Data from test_V78500241_3740.txt Node
Date: Fri Mar 25 16:07:42 CST 2022
User: usil
Spectrometer: V785-0024
Trigger mode: 0
Integration Time (sec): 4.000000E-1
Scans to average: 1
Nonlinearity correction enabled: false
Boxcar width: 0
Storing dark spectrum: false
XAxis mode: Wavelengths
Number of Pixels in Spectrum: 1024
>>>>>Begin Spectral Data<<<<<
801.071	28150
801.214	28173
801.356	27922
801.499	27873
801.641	27850
801.783	27778
801.926	27930
802.068	27903
802.211	27583
802.353	27553
802.496	27477
802.638	27595
802.78	27359
802.923	27275
803.065	27336
803.208	27329
803.35	27363
803.492	27450
803.635	27572
803.777	27454
803.919	27686
804.061	28036
804.204	27774
804.346	27473
804.488	27492
804.63	27519
804.773	27622
804.915	27648
805.057	27701
805.199	27583
805.341	27732
805.483	27762
805.626	27793
805.768	27724
805.91	27766
806.052	27770
806.194	27808
806.336	28013
806.478	27675
806.62	27797
806.762	27846
806.904	28128
807.046	28329
807.188	28363
807.33	28074
807.472	28356
807.614	28192
807.756	28204
807.898	28070
808.04	28090
808.182	27956
808.324	28090
808.465	28124
808.607	28360
808.749	28535
808.891	28588
809.033	28573
809.174	28470
809.316	28493
809.458	28451
809.6	28474
809.741	28542
809.883	28675
810.025	28710
810.166	28546
810.308	28854
810.45	28622
810.591	28538
810.733	28538
810.875	28497
811.016	28470
811.158	28474
811.299	28649
811.441	28706
811.582	28668
811.724	28481
811.865	28451
812.007	28516
812.148	28348
812.29	28531
812.431	28733
812.573	28828
812.714	28900
812.855	28968
812.997	28968
813.138	29162
813.279	28957
813.421	28934
813.562	28908
813.703	28854
813.845	28710
813.986	28451
814.127	28276
814.268	28032
814.41	28112
814.551	28101
814.692	28363
814.833	28032
814.974	28074
815.115	28086
815.256	27945
815.397	28078
815.539	28128
815.68	28105
815.821	27766
815.962	27937
816.103	28032
816.244	27842
816.385	27606
816.526	27717
816.666	27534
816.807	27359
816.948	27450
817.089	27515
817.23	27561
817.371	27359
817.512	27378
817.653	27477
817.793	27542
817.934	27424
818.075	27485
818.216	27488
818.356	27351
818.497	27431
818.638	27176
818.778	27199
818.919	27237
819.06	27112
819.2	27363
819.341	27515
819.481	27408
819.622	27606
819.762	27762
819.903	27812
820.043	27614
820.184	27576
820.324	27553
820.465	27572
820.605	27732
820.746	27583
820.886	27477
821.026	27595
821.167	27507
821.307	27545
821.447	27435
821.588	27462
821.728	27154
821.868	26956
822.008	26887
822.149	27028
822.289	26918
822.429	26602
822.569	26678
822.709	26537
822.849	26499
822.99	26522
823.13	26518
823.27	26370
823.41	26259
823.55	26024
823.69	26278
823.83	26172
823.97	26153
824.11	25947
824.25	25951
824.389	25970
824.529	26142
824.669	26050
824.809	26161
824.949	26233
825.089	26092
825.228	26119
825.368	25986
825.508	25921
825.648	25951
825.787	25940
825.927	26107
826.067	25769
826.206	25951
826.346	26024
826.485	26016
826.625	26046
826.765	26100
826.904	26020
827.044	25856
827.183	25738
827.323	25658
827.462	25734
827.601	25757
827.741	25685
827.88	25776
828.02	25567
828.159	25628
828.298	25586
828.437	25761
828.577	25537
828.716	25772
828.855	25605
828.994	25335
829.134	25426
829.273	25308
829.412	25259
829.551	25278
829.69	25282
829.829	25343
829.968	25422
830.107	25411
830.246	25407
830.385	25438
830.524	25152
830.663	25168
830.802	25072
830.941	24890
831.08	24871
831.219	25065
831.357	25019
831.496	25251
831.635	24977
831.774	24939
831.913	24821
832.051	24764
832.19	24642
832.329	24871
832.467	24749
832.606	24612
832.744	24521
832.883	24620
833.022	24654
833.16	24700
833.299	24604
833.437	24719
833.576	24677
833.714	24601
833.852	24817
833.991	24730
834.129	24829
834.267	24764
834.406	24692
834.544	24623
834.682	24642
834.821	24665
834.959	24764
835.097	24620
835.235	24795
835.373	24707
835.511	24635
835.65	24559
835.788	24547
835.926	24467
836.064	24311
836.202	24391
836.34	24525
836.478	24646
836.615	24509
836.753	24612
836.891	24760
837.029	24563
837.167	24486
837.305	24144
837.443	24372
837.58	24232
837.718	24361
837.856	24315
837.993	24334
838.131	24350
838.269	24213
838.406	24418
838.544	24220
838.681	23996
838.819	23961
838.956	23897
839.094	23798
839.231	23885
839.369	23958
839.506	24216
839.643	24064
839.781	23748
839.918	23733
840.055	23885
840.193	23771
840.33	23783
840.467	23665
840.604	23718
840.742	23988
840.879	23436
841.016	23528
841.153	23524
841.29	23767
841.427	23737
841.564	23646
841.701	23642
841.838	23745
841.975	23551
842.112	23676
842.249	23604
842.385	23474
842.522	23752
842.659	23421
842.796	23425
842.933	23551
843.069	23543
843.206	23421
843.343	23551
843.479	23547
843.616	23448
843.752	23239
843.889	23258
844.025	23372
844.162	23254
844.298	23356
844.435	23284
844.571	23128
844.708	23280
844.844	23444
844.98	23440
845.117	23379
845.253	23246
845.389	23105
845.525	23220
845.661	23117
845.798	23060
845.934	23010
846.07	22946
846.206	22968
846.342	23121
846.478	23155
846.614	22858
846.75	22725
846.886	22862
847.022	22797
847.158	22793
847.294	22828
847.429	22889
847.565	22744
847.701	23003
847.837	22459
847.972	22573
848.108	22554
848.244	22527
848.379	22230
848.515	22402
848.65	22443
848.786	22268
848.921	22135
849.057	22405
849.192	22535
849.328	22314
849.463	22284
849.598	22257
849.734	22162
849.869	22234
850.004	22070
850.14	22120
850.275	22131
850.41	22097
850.545	22021
850.68	22082
850.815	22051
850.95	22169
851.085	22322
851.22	22112
851.355	22048
851.49	22040
851.625	22010
851.76	22101
851.895	22002
852.03	21975
852.165	22109
852.299	22090
852.434	22223
852.569	22051
852.703	22196
852.838	22090
852.973	22211
853.107	22120
853.242	22097
853.376	21884
853.511	21835
853.645	21831
853.78	22010
853.914	21934
854.048	21926
854.183	21876
854.317	21899
854.451	22105
854.585	21899
854.72	21869
854.854	22078
854.988	21903
855.122	21880
855.256	21751
855.39	21781
855.524	21934
855.658	21865
855.792	21941
855.926	21899
856.06	21892
856.194	21960
856.327	21911
856.461	21903
856.595	21819
856.729	21812
856.862	21998
856.996	21899
857.13	21899
857.263	22036
857.397	21899
857.53	21869
857.664	21899
857.797	22006
857.931	22002
858.064	21907
858.197	21934
858.331	21998
858.464	21812
858.597	21732
858.731	21835
858.864	21857
858.997	21816
859.13	21937
859.263	21945
859.396	22067
859.529	21812
859.662	21915
859.795	21751
859.928	21983
860.061	22078
860.194	22055
860.327	21876
860.46	21873
860.592	22051
860.725	22040
860.858	22063
860.99	21808
861.123	21941
861.256	21876
861.388	21915
861.521	22569
861.653	21759
861.786	21629
861.918	21671
862.05	21835
862.183	21736
862.315	21823
862.447	21857
862.58	21903
862.712	21614
862.844	21648
862.976	21728
863.108	21709
863.24	22101
863.372	21656
863.504	21789
863.636	21545
863.768	21736
863.9	21656
864.032	21553
864.164	21435
864.296	21580
864.428	21610
864.559	21713
864.691	21545
864.823	21591
864.954	21720
865.086	21523
865.217	21439
865.349	21382
865.48	21576
865.612	21549
865.743	21641
865.875	21580
866.006	21424
866.137	21454
866.269	21416
866.4	21469
866.531	21462
866.662	21378
866.793	21378
866.924	21534
867.055	21534
867.186	21534
867.317	21370
867.448	21344
867.579	21428
867.71	21447
867.841	21298
867.972	21447
868.103	21351
868.233	21428
868.364	21507
868.495	21416
868.625	21591
868.756	21915
868.886	21504
869.017	21717
869.147	21785
869.278	21789
869.408	21633
869.539	21759
869.669	21743
869.799	21778
869.929	21759
870.06	21770
870.19	22051
870.32	21975
870.45	22017
870.58	22105
870.71	22226
870.84	22226
870.97	22070
871.1	22051
871.23	22303
871.36	22363
871.489	22188
871.619	22234
871.749	22230
871.879	22325
872.008	22344
872.138	22325
872.267	22280
872.397	22219
872.526	22128
872.656	22196
872.785	22120
872.915	22367
873.044	22379
873.173	22333
873.303	22337
873.432	22489
873.561	22398
873.69	22265
873.819	22363
873.948	22394
874.077	22512
874.206	22181
874.335	22424
874.464	22432
874.593	22527
874.722	22508
874.851	22478
874.979	22489
875.108	22626
875.237	22443
875.365	22455
875.494	22580
875.623	22637
875.751	22485
875.88	22683
876.008	22630
876.136	22710
876.265	23003
876.393	23029
876.521	22995
876.65	23025
876.778	22812
876.906	22900
877.034	22812
877.162	22824
877.29	22740
877.418	22881
877.546	22915
877.674	22869
877.802	22923
877.93	22782
878.058	22881
878.185	22744
878.313	22862
878.441	22790
878.568	22908
878.696	22854
878.824	22850
878.951	22896
879.079	22980
879.206	23170
879.333	23029
879.461	22934
879.588	22980
879.715	22972
879.842	23140
879.97	22885
880.097	22744
880.224	22641
880.351	22812
880.478	22626
880.605	22675
880.732	22550
880.859	22892
880.986	22565
881.112	22672
881.239	22683
881.366	22561
881.493	22375
881.619	22223
881.746	22360
881.872	22310
881.999	22265
882.125	22185
882.252	22226
882.378	22181
882.505	22333
882.631	22147
882.757	22059
882.883	22063
883.01	21861
883.136	22036
883.262	21751
883.388	21694
883.514	21979
883.64	21892
883.766	21831
883.892	21675
884.018	21835
884.143	21850
884.269	21865
884.395	21717
884.52	21564
884.646	21614
884.772	21488
884.897	21610
885.023	21545
885.148	21774
885.274	21869
885.399	21682
885.524	21583
885.65	21652
885.775	21633
885.9	21549
886.025	21599
886.15	21618
886.275	21622
886.4	21500
886.525	21644
886.65	21561
886.775	21500
886.9	21793
887.025	21766
887.149	21549
887.274	21405
887.399	21344
887.523	21416
887.648	21241
887.773	21302
887.897	21428
888.021	21416
888.146	21184
888.27	21359
888.395	21408
888.519	21412
888.643	21382
888.767	21389
888.891	21283
889.015	21051
889.139	21226
889.263	21123
889.387	21268
889.511	21313
889.635	21283
889.759	21093
889.883	21017
890.006	21176
890.13	21279
890.254	21131
890.377	21005
890.501	20986
890.624	20956
890.748	20933
890.871	20902
890.995	20598
891.118	20708
891.241	20750
891.364	20686
891.488	20823
891.611	20792
891.734	20804
891.857	20807
891.98	20644
892.103	20686
892.226	20568
892.349	20583
892.471	20518
892.594	20708
892.717	20716
892.839	20571
892.962	20518
893.085	20632
893.207	20613
893.33	20655
893.452	20427
893.575	20499
893.697	20541
893.819	20754
893.941	20769
894.064	20655
894.186	20514
894.308	20590
894.43	20689
894.552	20644
894.674	20765
894.796	20400
894.918	20518
895.04	20568
895.161	20530
895.283	20564
895.405	20450
895.526	20640
895.648	20587
895.769	20552
895.891	20682
896.012	20667
896.134	20571
896.255	20667
896.376	20434
896.498	20575
896.619	20583
896.74	20507
896.861	20762
896.982	20804
897.103	21032
897.224	20960
897.345	20838
897.466	20743
897.587	20868
897.708	20944
897.828	20826
897.949	20765
898.07	20533
898.19	20743
898.311	20754
898.431	20670
898.552	20758
898.672	20921
898.792	20792
898.913	20842
899.033	20773
899.153	20686
899.273	20492
899.393	20674
899.513	20712
899.633	20575
899.753	20602
899.873	20556
899.993	20640
900.113	20492
900.232	20514
900.352	20530
900.472	20298
900.591	20313
900.711	20256
900.83	20290
900.95	20446
901.069	20370
901.189	20259
901.308	20012
901.427	19811
901.546	19875
901.665	19879
901.784	19852
901.904	19689
902.023	19624
902.141	19559
902.26	19468
902.379	19559
902.498	19449
902.617	19457
902.735	19365
902.854	19285
902.973	19384
903.091	19095
903.21	19190
903.328	19072
903.446	18962
903.565	19004
903.683	18848
903.801	18757
903.919	18844
904.038	18791
904.156	18631
904.274	18749
904.392	18578
904.51	18635
904.627	18597
904.745	18604
904.863	18734
904.981	18330
905.098	18311
905.216	18289
905.334	18262
905.451	18243
905.569	18292
905.686	18285
905.803	18262
905.921	18148
906.038	18258
906.155	18106
906.272	17935
906.389	18019
906.506	17878
906.623	17870
906.74	17733
906.857	17752
906.974	17805
907.091	18015
907.208	17977
907.324	17874
907.441	17703
907.557	17581
907.674	17558
907.79	17467
907.907	17570
908.023	17630
908.139	17516
908.256	17463
908.372	17463
908.488	17322
908.604	17227
908.72	17246
908.836	17292
908.952	17235
909.068	17193
909.184	17349
909.3	17208
909.415	17250
909.531	17166
909.647	17041
909.762	17022
909.878	16930
909.993	17010
910.108	16900
910.224	16930
910.339	16881
910.454	16793
910.57	16767
910.685	16698
910.8	16892
910.915	16904
911.03	16592
911.145	16630
911.259	16519
911.374	16580
911.489	16428
911.604	16470
911.718	16253
911.833	16348
911.947	16249
912.062	16188
912.176	16280
912.291	16242
912.405	16268
912.519	16527
912.633	16447
912.748	16306
912.862	16386
912.976	16029
913.09	15987
913.204	16025
913.318	16074
913.431	16158
913.545	16097
913.659	16135
913.772	16055
913.886	15949
914	15869
914.113	15975
914.226	16010
914.34	15964
914.453	15781
914.566	16029
914.68	15759
914.793	15618
914.906	15572
915.019	15549
915.132	15454
915.245	15545
915.358	15469
915.47	15431
915.583	15428
915.696	15450
915.809	15568
915.921	15603
916.034	15405
916.146	15351
916.259	15367
916.371	15485
916.483	15332
916.595	15351
916.708	15241
916.82	15294
916.932	15180
917.044	15260
917.156	15249
917.268	15214
917.38	15176
917.491	15097
917.603	15093
917.715	15089
917.826	15214
917.938	15146
918.049	14998
918.161	15062
918.272	15169
918.384	15138
918.495	15150
918.606	14929
918.717	14864
918.828	14902
918.939	14880
919.05	14773
919.161	14754
919.272	14735
919.383	14659
919.494	14933
919.604	15062
919.715	14864
919.826	14785
919.936	14777
920.047	14891
920.157	14823
920.267	15116
920.378	14887
920.488	14765
920.598	15028
920.708	15062
920.818	15009
920.928	14899
921.038	15055
921.148	15085
921.258	14834
921.368	14716
921.477	14560
921.587	14488
921.697	14446
921.806	14606
921.916	14400
922.025	14187
922.134	14103
922.244	14138
922.353	14176
922.462	14046
922.571	14031
922.68	13742
922.789	13757
922.898	13826
923.007	13746
923.116	13837
923.224	13784
923.333	13757
923.442	13742
923.55	13639
923.659	13719
923.767	13746
923.876	13696
923.984	13666
924.092	13514
924.201	13677
924.309	13601
924.417	13525
924.525	13502
924.633	13499
924.741	14377
924.849	13308
924.956	13415
925.064	13274
925.172	13175
925.279	13244
925.387	13236
925.494	13183
925.602	13320
925.709	13278
925.816	13141
925.924	13244
926.031	13206
926.138	13160
926.245	13152
926.352	13118
926.459	13141
926.566	13206
926.673	13099
926.779	13019
926.886	13053
926.993	12795
927.099	12909
927.206	12779
927.312	12738
927.419	12856
927.525	12798
927.631	12878
927.737	12673
927.843	12654
927.95	12528
928.056	12597
928.162	12677
928.267	12662
928.373	13278
928.479	12620
928.585	12410
928.69	12604
928.796	12684
928.901	12498
929.007	12414
929.112	12486
929.218	12486
929.323	12399
929.428	12323
929.533	12517
929.638	12300
929.743	12323
929.848	12365
929.953	12353
930.058	12182
930.163	11984
930.267	12053
930.372	12194
930.477	12121
930.581	12270
930.685	11954
930.79	11870
930.894	11969
930.998	11866
931.103	12011
931.207	11767
931.311	11512
931.415	11532
931.519	11372
931.623	11353
