Data from test_V78500241_3267.txt Node
Date: Fri Mar 25 16:04:25 CST 2022
User: usil
Spectrometer: V785-0024
Trigger mode: 0
Integration Time (sec): 4.000000E-1
Scans to average: 1
Nonlinearity correction enabled: false
Boxcar width: 0
Storing dark spectrum: false
XAxis mode: Wavelengths
Number of Pixels in Spectrum: 1024
>>>>>Begin Spectral Data<<<<<
801.071	28694
801.214	28550
801.356	28314
801.499	28322
801.641	28284
801.783	28253
801.926	28223
802.068	28200
802.211	28143
802.353	28261
802.496	28059
802.638	27998
802.78	27918
802.923	27876
803.065	27956
803.208	27960
803.35	27956
803.492	28185
803.635	28150
803.777	28067
803.919	28173
804.061	28455
804.204	28226
804.346	28070
804.488	28143
804.63	28276
804.773	28169
804.915	28124
805.057	28363
805.199	28333
805.341	28261
805.483	28344
805.626	28310
805.768	28276
805.91	28318
806.052	28573
806.194	28314
806.336	28516
806.478	28322
806.62	28344
806.762	28573
806.904	28702
807.046	28934
807.188	28793
807.33	28862
807.472	28843
807.614	28786
807.756	28847
807.898	28725
808.04	28565
808.182	28569
808.324	28725
808.465	28702
808.607	28965
808.749	29204
808.891	29223
809.033	29246
809.174	29067
809.316	29022
809.458	29064
809.6	29056
809.741	29033
809.883	29189
810.025	29178
810.166	29277
810.308	29429
810.45	29296
810.591	29216
810.733	29025
810.875	29071
811.016	28831
811.158	28957
811.299	29162
811.441	29197
811.582	29159
811.724	29204
811.865	28919
812.007	29109
812.148	28995
812.29	29018
812.431	29235
812.573	29433
812.714	29509
812.855	29577
812.997	29703
813.138	29680
813.279	29668
813.421	29509
813.562	29482
813.703	29360
813.845	29322
813.986	28976
814.127	28888
814.268	28656
814.41	28729
814.551	28869
814.692	28763
814.833	28679
814.974	28729
815.115	28908
815.256	28748
815.397	28554
815.539	28687
815.68	28542
815.821	28538
815.962	28527
816.103	28596
816.244	28375
816.385	28497
816.526	28337
816.666	28154
816.807	28177
816.948	28109
817.089	28226
817.23	28211
817.371	28135
817.512	28059
817.653	28070
817.793	28059
817.934	28021
818.075	28006
818.216	27994
818.356	28158
818.497	27998
818.638	27816
818.778	27850
818.919	27880
819.06	27895
819.2	27914
819.341	28017
819.481	28135
819.622	28299
819.762	28440
819.903	28401
820.043	28188
820.184	28268
820.324	28166
820.465	28348
820.605	28230
820.746	28268
820.886	28074
821.026	28200
821.167	28181
821.307	28295
821.447	28131
821.588	27876
821.728	27903
821.868	27675
822.008	27572
822.149	27583
822.289	27420
822.429	27382
822.569	27207
822.709	27218
822.849	27001
822.99	27116
823.13	27256
823.27	26921
823.41	26982
823.55	26727
823.69	26914
823.83	26864
823.97	26883
824.11	26708
824.25	26629
824.389	26697
824.529	26830
824.669	26765
824.809	26861
824.949	26819
825.089	26910
825.228	26689
825.368	26640
825.508	26701
825.648	26648
825.787	26621
825.927	26746
826.067	26629
826.206	26583
826.346	26609
826.485	26632
826.625	26518
826.765	26720
826.904	26644
827.044	26423
827.183	26427
827.323	26256
827.462	26381
827.601	26252
827.741	26389
827.88	26168
828.02	26374
828.159	26305
828.298	26317
828.437	26469
828.577	26275
828.716	26404
828.855	26278
828.994	25974
829.134	25913
829.273	26020
829.412	25909
829.551	26088
829.69	26035
829.829	26012
829.968	26020
830.107	26065
830.246	26073
830.385	25978
830.524	25928
830.663	25928
830.802	25738
830.941	25597
831.08	25620
831.219	25871
831.357	25651
831.496	25959
831.635	25575
831.774	25578
831.913	25537
832.051	25449
832.19	25339
832.329	25289
832.467	25339
832.606	25194
832.744	25114
832.883	25339
833.022	25270
833.16	25297
833.299	25297
833.437	25331
833.576	25392
833.714	25324
833.852	25400
833.991	25430
834.129	25415
834.267	25335
834.406	25358
834.544	25438
834.682	25434
834.821	25285
834.959	25422
835.097	25221
835.235	25274
835.373	25320
835.511	25304
835.65	25145
835.788	25339
835.926	25076
836.064	24947
836.202	25053
836.34	25228
836.478	25076
836.615	25164
836.753	25107
836.891	25091
837.029	25069
837.167	25053
837.305	25129
837.443	25076
837.58	24989
837.718	25057
837.856	24981
837.993	25194
838.131	24916
838.269	24810
838.406	24905
838.544	24837
838.681	24753
838.819	24623
838.956	24525
839.094	24467
839.231	24498
839.369	24601
839.506	24871
839.643	24639
839.781	24372
839.918	24357
840.055	24563
840.193	24353
840.33	24437
840.467	24338
840.604	24414
840.742	24692
840.879	24205
841.016	24258
841.153	24285
841.29	24502
841.427	24353
841.564	24464
841.701	24418
841.838	24304
841.975	24205
842.112	24270
842.249	24136
842.385	24079
842.522	24266
842.659	24114
842.796	24018
842.933	23992
843.069	24117
843.206	24087
843.343	24167
843.479	24057
843.616	24083
843.752	23863
843.889	23969
844.025	24125
844.162	23912
844.298	24018
844.435	23935
844.571	23866
844.708	23916
844.844	24091
844.98	24102
845.117	24076
845.253	23775
845.389	23843
845.525	23859
845.661	23748
845.798	23585
845.934	23760
846.07	23646
846.206	23535
846.342	23764
846.478	23619
846.614	23600
846.75	23318
846.886	23318
847.022	23391
847.158	23387
847.294	23421
847.429	23356
847.565	23284
847.701	23600
847.837	23105
847.972	23033
848.108	23124
848.244	23151
848.379	22934
848.515	22987
848.65	23006
848.786	23003
848.921	22885
849.057	23033
849.192	22953
849.328	23083
849.463	22987
849.598	22854
849.734	22843
849.869	22866
850.004	22656
850.14	22706
850.275	22721
850.41	22645
850.545	22702
850.68	22645
850.815	22786
850.95	22694
851.085	22866
851.22	22771
851.355	22733
851.49	22698
851.625	22607
851.76	22713
851.895	22736
852.03	22660
852.165	22630
852.299	22797
852.434	22809
852.569	22630
852.703	22748
852.838	22683
852.973	22725
853.107	22835
853.242	22622
853.376	22580
853.511	22470
853.645	22588
853.78	22516
853.914	22485
854.048	22519
854.183	22447
854.317	22489
854.451	22778
854.585	22550
854.72	22523
854.854	22736
854.988	22424
855.122	22489
855.256	22382
855.39	22565
855.524	22626
855.658	22588
855.792	22603
855.926	22478
856.06	22527
856.194	22622
856.327	22489
856.461	22516
856.595	22318
856.729	22508
856.862	22668
856.996	22603
857.13	22615
857.263	22596
857.397	22679
857.53	22421
857.664	22615
857.797	22489
857.931	22675
858.064	22489
858.197	22649
858.331	22527
858.464	22508
858.597	22413
858.731	22516
858.864	22402
858.997	22489
859.13	22409
859.263	22550
859.396	22653
859.529	22485
859.662	22440
859.795	22466
859.928	22702
860.061	22672
860.194	22717
860.327	22630
860.46	22557
860.592	22649
860.725	22603
860.858	22660
860.99	22588
861.123	22455
861.256	22603
861.388	22577
861.521	23178
861.653	22394
861.786	22131
861.918	22348
862.05	22478
862.183	22523
862.315	22561
862.447	22512
862.58	22390
862.712	22322
862.844	22246
862.976	22382
863.108	22272
863.24	22630
863.372	22192
863.504	22211
863.636	22188
863.768	22238
863.9	22219
864.032	22192
864.164	22158
864.296	22249
864.428	22295
864.559	22299
864.691	22257
864.823	22234
864.954	22299
865.086	22128
865.217	22173
865.349	22116
865.48	22063
865.612	22116
865.743	22356
865.875	22048
866.006	21930
866.137	22188
866.269	22059
866.4	22112
866.531	21979
866.662	21953
866.793	21975
866.924	21915
867.055	22010
867.186	22067
867.317	22029
867.448	21968
867.579	22074
867.71	21903
867.841	21975
867.972	22067
868.103	21994
868.233	22017
868.364	21972
868.495	22162
868.625	22192
868.756	22367
868.886	22169
869.017	22230
869.147	22299
869.278	22371
869.408	22303
869.539	22363
869.669	22318
869.799	22299
869.929	22367
870.06	22394
870.19	22622
870.32	22485
870.45	22569
870.58	22683
870.71	22687
870.84	22733
870.97	22694
871.1	22557
871.23	22740
871.36	22896
871.489	22710
871.619	22786
871.749	22752
871.879	22824
872.008	22873
872.138	22938
872.267	22858
872.397	22653
872.526	22710
872.656	22664
872.785	22687
872.915	22965
873.044	23056
873.173	22984
873.303	22801
873.432	23003
873.561	23044
873.69	22919
873.819	22869
873.948	22881
874.077	22805
874.206	22713
874.335	22885
874.464	22927
874.593	23162
874.722	23105
874.851	23185
874.979	23067
875.108	23208
875.237	23151
875.365	23029
875.494	23166
875.623	23178
875.751	23200
875.88	23147
876.008	23140
876.136	23212
876.265	23497
876.393	23699
876.521	23642
876.65	23687
876.778	23490
876.906	23455
877.034	23490
877.162	23493
877.29	23440
877.418	23596
877.546	23596
877.674	23417
877.802	23452
877.93	23368
878.058	23421
878.185	23315
878.313	23398
878.441	23444
878.568	23322
878.696	23345
878.824	23444
878.951	23497
879.079	23634
879.206	23760
879.333	23646
879.461	23493
879.588	23528
879.715	23672
879.842	23707
879.97	23444
880.097	23364
880.224	23330
880.351	23280
880.478	23334
880.605	23239
880.732	23151
880.859	23398
880.986	23227
881.112	23356
881.239	23239
881.366	22942
881.493	23003
881.619	22824
881.746	22911
881.872	22809
881.999	22847
882.125	22835
882.252	22850
882.378	22862
882.505	22999
882.631	22599
882.757	22516
882.883	22660
883.01	22512
883.136	22390
883.262	22325
883.388	22200
883.514	22512
883.64	22588
883.766	22421
883.892	22234
884.018	22390
884.143	22451
884.269	22557
884.395	22314
884.52	22147
884.646	22143
884.772	22211
884.897	22112
885.023	22211
885.148	22204
885.274	22363
885.399	22333
885.524	22181
885.65	22090
885.775	22112
885.9	22226
886.025	22287
886.15	22181
886.275	22116
886.4	22063
886.525	22040
886.65	22040
886.775	21979
886.9	22348
887.025	22367
887.149	22074
887.274	21945
887.399	21968
887.523	21903
887.648	21922
887.773	21945
887.897	21899
888.021	21903
888.146	21724
888.27	21987
888.395	21983
888.519	21991
888.643	21873
888.767	21857
888.891	21766
889.015	21770
889.139	21793
889.263	21637
889.387	21759
889.511	21907
889.635	21808
889.759	21709
889.883	21663
890.006	21660
890.13	21732
890.254	21542
890.377	21644
890.501	21431
890.624	21275
890.748	21424
890.871	21310
890.995	21287
891.118	21077
891.241	21325
891.364	21233
891.488	21329
891.611	21226
891.734	21211
891.857	21226
891.98	21157
892.103	21272
892.226	21203
892.349	21146
892.471	20941
892.594	21165
892.717	21192
892.839	21108
892.962	21165
893.085	21077
893.207	21085
893.33	20902
893.452	20979
893.575	21173
893.697	21062
893.819	21226
893.941	21291
894.064	21283
894.186	21131
894.308	20902
894.43	21226
894.552	21306
894.674	21165
894.796	20971
894.918	21051
895.04	20967
895.161	21127
895.283	21180
895.405	21058
895.526	21009
895.648	21036
895.769	21066
895.891	21108
896.012	21332
896.134	21013
896.255	21062
896.376	21005
896.498	20952
896.619	21100
896.74	21112
896.861	21112
896.982	21462
897.103	21530
897.224	21351
897.345	21340
897.466	21214
897.587	21378
897.708	21458
897.828	21298
897.949	21154
898.07	21165
898.19	21249
898.311	21306
898.431	21173
898.552	21359
898.672	21344
898.792	21264
898.913	21344
899.033	21211
899.153	21180
899.273	20929
899.393	20979
899.513	21032
899.633	20956
899.753	21028
899.873	20971
899.993	21062
900.113	20986
900.232	20967
900.352	20868
900.472	20731
900.591	20807
900.711	20823
900.83	20720
900.95	20910
901.069	20792
901.189	20640
901.308	20495
901.427	20362
901.546	20434
901.665	20336
901.784	20366
901.904	20164
902.023	20103
902.141	19925
902.26	19928
902.379	19955
902.498	19818
902.617	19917
902.735	19913
902.854	19936
902.973	19788
903.091	19499
903.21	19525
903.328	19567
903.446	19419
903.565	19354
903.683	19301
903.801	19274
903.919	19225
904.038	19259
904.156	19251
904.274	19065
904.392	19099
904.51	19095
904.627	19076
904.745	19148
904.863	19042
904.981	18924
905.098	18837
905.216	18859
905.334	18844
905.451	18745
905.569	18753
905.686	18783
905.803	18719
905.921	18506
906.038	18570
906.155	18582
906.272	18418
906.389	18334
906.506	18334
906.623	18201
906.74	18194
906.857	18292
906.974	18144
907.091	18350
907.208	18422
907.324	18262
907.441	18159
907.557	18049
907.674	17927
907.79	17950
907.907	17946
908.023	18079
908.139	18030
908.256	17878
908.372	17840
908.488	17901
908.604	17798
908.72	17707
908.836	17760
908.952	17623
909.068	17718
909.184	17703
909.3	17714
909.415	17615
909.531	17657
909.647	17410
909.762	17471
909.878	17303
909.993	17311
910.108	17410
910.224	17452
910.339	17296
910.454	17231
910.57	17174
910.685	17029
910.8	17330
910.915	17277
911.03	17166
911.145	17010
911.259	16927
911.374	16976
911.489	16946
911.604	16774
911.718	16721
911.833	16733
911.947	16527
912.062	16554
912.176	16691
912.291	16740
912.405	16626
912.519	16843
912.633	16984
912.748	16744
912.862	16615
912.976	16546
913.09	16344
913.204	16478
913.318	16504
913.431	16675
913.545	16584
913.659	16561
913.772	16428
913.886	16379
914	16272
914.113	16432
914.226	16489
914.34	16371
914.453	16329
914.566	16318
914.68	16116
914.793	16162
914.906	15918
915.019	15869
915.132	15827
915.245	15789
915.358	15861
915.47	15926
915.583	15979
915.696	15945
915.809	15907
915.921	15964
916.034	15781
916.146	15709
916.259	15766
916.371	15949
916.483	15850
916.595	15781
916.708	15732
916.82	15690
916.932	15591
917.044	15660
917.156	15690
917.268	15504
917.38	15572
917.491	15477
917.603	15526
917.715	15625
917.826	15584
917.938	15370
918.049	15348
918.161	15473
918.272	15591
918.384	15538
918.495	15454
918.606	15367
918.717	15138
918.828	15294
918.939	15283
919.05	15161
919.161	15199
919.272	14998
919.383	15081
919.494	15211
919.604	15473
919.715	15207
919.826	15005
919.936	15138
920.047	15252
920.157	15154
920.267	15294
920.378	15241
920.488	15157
920.598	15397
920.708	15473
920.818	15287
920.928	15340
921.038	15603
921.148	15340
921.258	15150
921.368	14971
921.477	14933
921.587	14948
921.697	14781
921.806	14944
921.916	14800
922.025	14583
922.134	14541
922.244	14545
922.353	14541
922.462	14427
922.571	14385
922.68	14240
922.789	14221
922.898	14176
923.007	14210
923.116	14168
923.224	14119
923.333	14153
923.442	14065
923.55	14012
923.659	14161
923.767	14027
923.876	13989
923.984	14058
924.092	13852
924.201	13951
924.309	13837
924.417	13913
924.525	13822
924.633	13879
924.741	14613
924.849	13594
924.956	13807
925.064	13704
925.172	13476
925.279	13559
925.387	13620
925.494	13601
925.602	13685
925.709	13518
925.816	13415
925.924	13552
926.031	13674
926.138	13537
926.245	13495
926.352	13354
926.459	13582
926.566	13510
926.673	13453
926.779	13232
926.886	13278
926.993	13114
927.099	13133
927.206	13084
927.312	12962
927.419	13171
927.525	13149
927.631	13042
927.737	13000
927.843	12947
927.95	12886
928.056	12913
928.162	13023
928.267	12916
928.373	13533
928.479	12924
928.585	12753
928.69	12825
928.796	12909
928.901	12734
929.007	12597
929.112	12783
929.218	12650
929.323	12654
929.428	12593
929.533	12768
929.638	12570
929.743	12578
929.848	12559
929.953	12570
930.058	12483
930.163	12232
930.267	12266
930.372	12422
930.477	12254
930.581	12448
930.685	12323
930.79	12175
930.894	12213
930.998	12102
931.103	12243
931.207	11920
931.311	11863
931.415	11718
931.519	11619
931.623	11539
