Data from test_V78500241_1337.txt Node
Date: Fri Mar 25 15:51:03 CST 2022
User: usil
Spectrometer: V785-0024
Trigger mode: 0
Integration Time (sec): 4.000000E-1
Scans to average: 1
Nonlinearity correction enabled: false
Boxcar width: 0
Storing dark spectrum: false
XAxis mode: Wavelengths
Number of Pixels in Spectrum: 1024
>>>>>Begin Spectral Data<<<<<
801.071	28013
801.214	27884
801.356	27705
801.499	27625
801.641	27344
801.783	27336
801.926	27603
802.068	27481
802.211	27466
802.353	27374
802.496	27203
802.638	27161
802.78	27272
802.923	27070
803.065	27108
803.208	27108
803.35	27291
803.492	27272
803.635	27313
803.777	27302
803.919	27553
804.061	27549
804.204	27435
804.346	27211
804.488	27279
804.63	27203
804.773	27222
804.915	27401
805.057	27401
805.199	27344
805.341	27485
805.483	27439
805.626	27439
805.768	27386
805.91	27363
806.052	27443
806.194	27416
806.336	27713
806.478	27599
806.62	27530
806.762	27496
806.904	27812
807.046	27960
807.188	27869
807.33	27968
807.472	27998
807.614	27778
807.756	27888
807.898	27903
808.04	27819
808.182	27709
808.324	27774
808.465	27785
808.607	27983
808.749	28006
808.891	28048
809.033	28268
809.174	28147
809.316	28173
809.458	28169
809.6	28112
809.741	28329
809.883	28310
810.025	28356
810.166	28257
810.308	28356
810.45	28485
810.591	28284
810.733	28158
810.875	28177
811.016	28029
811.158	27994
811.299	28314
811.441	28287
811.582	28447
811.724	28166
811.865	28200
812.007	28082
812.148	28150
812.29	28147
812.431	28303
812.573	28329
812.714	28569
812.855	28687
812.997	28622
813.138	28908
813.279	28774
813.421	28763
813.562	28519
813.703	28394
813.845	28318
813.986	28185
814.127	27945
814.268	27869
814.41	27873
814.551	27747
814.692	27895
814.833	27918
814.974	27755
815.115	27842
815.256	27667
815.397	27736
815.539	27827
815.68	27709
815.821	27629
815.962	27595
816.103	27564
816.244	27458
816.385	27374
816.526	27408
816.666	27237
816.807	27116
816.948	27127
817.089	27264
817.23	27230
817.371	27055
817.512	27173
817.653	27146
817.793	27036
817.934	27161
818.075	27058
818.216	27123
818.356	26982
818.497	26994
818.638	26857
818.778	26929
818.919	26807
819.06	26940
819.2	27039
819.341	27157
819.481	27028
819.622	27329
819.762	27534
819.903	27249
820.043	27378
820.184	27184
820.324	27313
820.465	27252
820.605	27192
820.746	27298
820.886	27081
821.026	27188
821.167	27100
821.307	27104
821.447	27214
821.588	27039
821.728	26944
821.868	26830
822.008	26621
822.149	26575
822.289	26530
822.429	26453
822.569	26233
822.709	26278
822.849	26103
822.99	26134
823.13	26054
823.27	25894
823.41	25944
823.55	25902
823.69	26001
823.83	25959
823.97	25856
824.11	25578
824.25	25643
824.389	25753
824.529	25883
824.669	25841
824.809	25780
824.949	25734
825.089	25761
825.228	25750
825.368	25533
825.508	25476
825.648	25674
825.787	25613
825.927	25750
826.067	25518
826.206	25506
826.346	25708
826.485	25727
826.625	25677
826.765	25753
826.904	25632
827.044	25373
827.183	25518
827.323	25293
827.462	25312
827.601	25247
827.741	25183
827.88	25438
828.02	25232
828.159	25327
828.298	25251
828.437	25255
828.577	25225
828.716	25441
828.855	25198
828.994	25034
829.134	25107
829.273	25095
829.412	25057
829.551	24973
829.69	24894
829.829	24992
829.968	25228
830.107	25107
830.246	24985
830.385	24996
830.524	24966
830.663	24821
830.802	24730
830.941	24467
831.08	24525
831.219	24631
831.357	24661
831.496	24745
831.635	24551
831.774	24639
831.913	24540
832.051	24532
832.19	24498
832.329	24479
832.467	24220
832.606	24342
832.744	24292
832.883	24281
833.022	24410
833.16	24342
833.299	24395
833.437	24133
833.576	24388
833.714	24304
833.852	24304
833.991	24323
834.129	24422
834.267	24289
834.406	24369
834.544	24308
834.682	24300
834.821	24285
834.959	24528
835.097	24330
835.235	24445
835.373	24395
835.511	24384
835.65	24285
835.788	24262
835.926	23992
836.064	23912
836.202	24064
836.34	24174
836.478	24213
836.615	24034
836.753	24182
836.891	24372
837.029	24159
837.167	24167
837.305	24087
837.443	24224
837.58	23988
837.718	24057
837.856	23984
837.993	23893
838.131	23980
838.269	23863
838.406	23931
838.544	23809
838.681	23627
838.819	23619
838.956	23387
839.094	23520
839.231	23543
839.369	23676
839.506	23889
839.643	23707
839.781	23551
839.918	23398
840.055	23463
840.193	23417
840.33	23490
840.467	23417
840.604	23410
840.742	23592
840.879	23273
841.016	23337
841.153	23337
841.29	23410
841.427	23379
841.564	23406
841.701	23368
841.838	23421
841.975	23307
842.112	23185
842.249	23174
842.385	23254
842.522	23387
842.659	23235
842.796	23124
842.933	23246
843.069	23022
843.206	23151
843.343	23200
843.479	23124
843.616	23197
843.752	22968
843.889	22968
844.025	23193
844.162	22961
844.298	22904
844.435	23022
844.571	22839
844.708	23003
844.844	23181
844.98	23052
845.117	23090
845.253	22824
845.389	22755
845.525	22831
845.661	22843
845.798	22668
845.934	22729
846.07	22763
846.206	22649
846.342	22767
846.478	22584
846.614	22557
846.75	22344
846.886	22242
847.022	22569
847.158	22398
847.294	22417
847.429	22455
847.565	22363
847.701	22561
847.837	22150
847.972	22063
848.108	22188
848.244	22173
848.379	22090
848.515	21998
848.65	21991
848.786	21922
848.921	21964
849.057	22044
849.192	22025
849.328	22070
849.463	21998
849.598	21964
849.734	21854
849.869	21838
850.004	21682
850.14	21800
850.275	21789
850.41	21614
850.545	21629
850.68	21739
850.815	21713
850.95	21679
851.085	21934
851.22	21895
851.355	21743
851.49	21808
851.625	21694
851.76	21652
851.895	21743
852.03	21690
852.165	21717
852.299	21808
852.434	21899
852.569	21755
852.703	21838
852.838	21800
852.973	21911
853.107	21964
853.242	21720
853.376	21545
853.511	21526
853.645	21454
853.78	21682
853.914	21511
854.048	21583
854.183	21549
854.317	21576
854.451	21717
854.585	21614
854.72	21515
854.854	21675
854.988	21507
855.122	21686
855.256	21462
855.39	21538
855.524	21614
855.658	21603
855.792	21576
855.926	21660
856.06	21686
856.194	21591
856.327	21595
856.461	21504
856.595	21420
856.729	21500
856.862	21751
856.996	21599
857.13	21625
857.263	21698
857.397	21648
857.53	21542
857.664	21595
857.797	21614
857.931	21606
858.064	21603
858.197	21644
858.331	21614
858.464	21485
858.597	21351
858.731	21599
858.864	21542
858.997	21473
859.13	21511
859.263	21610
859.396	21599
859.529	21542
859.662	21637
859.795	21485
859.928	21519
860.061	21854
860.194	21713
860.327	21553
860.46	21603
860.592	21690
860.725	21720
860.858	21720
860.99	21667
861.123	21542
861.256	21462
861.388	21587
861.521	22238
861.653	21401
861.786	21424
861.918	21374
862.05	21450
862.183	21469
862.315	21534
862.447	21534
862.58	21439
862.712	21374
862.844	21131
862.976	21397
863.108	21466
863.24	21599
863.372	21268
863.504	21176
863.636	21249
863.768	21389
863.9	21291
864.032	21226
864.164	21207
864.296	21336
864.428	21344
864.559	21473
864.691	21397
864.823	21348
864.954	21298
865.086	21389
865.217	21192
865.349	21135
865.48	21237
865.612	21135
865.743	21348
865.875	21199
866.006	21157
866.137	21074
866.269	21119
866.4	21264
866.531	21195
866.662	21013
866.793	21024
866.924	21119
867.055	21237
867.186	21226
867.317	21051
867.448	21081
867.579	20918
867.71	20982
867.841	20941
867.972	21131
868.103	21127
868.233	21100
868.364	21169
868.495	21275
868.625	21329
868.756	21450
868.886	21298
869.017	21363
869.147	21401
869.278	21473
869.408	21348
869.539	21348
869.669	21416
869.799	21351
869.929	21447
870.06	21481
870.19	21709
870.32	21717
870.45	21675
870.58	21614
870.71	21804
870.84	21857
870.97	21789
871.1	21675
871.23	21972
871.36	21987
871.489	21842
871.619	21975
871.749	21983
871.879	22040
872.008	22044
872.138	21945
872.267	21873
872.397	21953
872.526	21724
872.656	21766
872.785	21808
872.915	21972
873.044	22090
873.173	22154
873.303	22006
873.432	22036
873.561	21983
873.69	21983
873.819	21945
873.948	22093
874.077	21922
874.206	21972
874.335	22002
874.464	22048
874.593	22192
874.722	22124
874.851	22204
874.979	22265
875.108	22284
875.237	22139
875.365	22166
875.494	22055
875.623	22219
875.751	22150
875.88	22280
876.008	22325
876.136	22424
876.265	22603
876.393	22759
876.521	22725
876.65	22679
876.778	22557
876.906	22580
877.034	22504
877.162	22523
877.29	22599
877.418	22592
877.546	22584
877.674	22516
877.802	22455
877.93	22546
878.058	22607
878.185	22333
878.313	22500
878.441	22584
878.568	22390
878.696	22527
878.824	22557
878.951	22580
879.079	22725
879.206	22869
879.333	22797
879.461	22542
879.588	22778
879.715	22702
879.842	22843
879.97	22713
880.097	22367
880.224	22375
880.351	22375
880.478	22348
880.605	22337
880.732	22322
880.859	22634
880.986	22451
881.112	22356
881.239	22394
881.366	22131
881.493	22063
881.619	21937
881.746	22101
881.872	22021
881.999	21892
882.125	21800
882.252	22040
882.378	21804
882.505	22051
882.631	21800
882.757	21694
882.883	21614
883.01	21663
883.136	21629
883.262	21599
883.388	21397
883.514	21599
883.64	21622
883.766	21622
883.892	21401
884.018	21561
884.143	21557
884.269	21572
884.395	21428
884.52	21150
884.646	21363
884.772	21222
884.897	21184
885.023	21287
885.148	21408
885.274	21450
885.399	21397
885.524	21313
885.65	21359
885.775	21325
885.9	21279
886.025	21260
886.15	21283
886.275	21336
886.4	21154
886.525	21279
886.65	21310
886.775	21165
886.9	21424
887.025	21439
887.149	21218
887.274	20971
887.399	21150
887.523	20944
887.648	21028
887.773	20868
887.897	21214
888.021	21074
888.146	21055
888.27	21184
888.395	21173
888.519	21055
888.643	21001
888.767	20998
888.891	20800
889.015	20842
889.139	20933
889.263	20765
889.387	20902
889.511	21028
889.635	20910
889.759	20724
889.883	20701
890.006	20845
890.13	20998
890.254	20670
890.377	20625
890.501	20617
890.624	20495
890.748	20621
890.871	20393
890.995	20412
891.118	20339
891.241	20381
891.364	20438
891.488	20495
891.611	20434
891.734	20457
891.857	20434
891.98	20408
892.103	20511
892.226	20301
892.349	20438
892.471	20115
892.594	20317
892.717	20446
892.839	20389
892.962	20248
893.085	20332
893.207	20317
893.33	20206
893.452	20309
893.575	20324
893.697	20305
893.819	20400
893.941	20469
894.064	20248
894.186	20332
894.308	20309
894.43	20362
894.552	20473
894.674	20366
894.796	20214
894.918	20229
895.04	20119
895.161	20385
895.283	20469
895.405	20195
895.526	20286
895.648	20305
895.769	20218
895.891	20328
896.012	20419
896.134	20377
896.255	20271
896.376	20282
896.498	20225
896.619	20298
896.74	20199
896.861	20385
896.982	20750
897.103	20651
897.224	20545
897.345	20514
897.466	20396
897.587	20423
897.708	20571
897.828	20495
897.949	20419
898.07	20343
898.19	20514
898.311	20594
898.431	20374
898.552	20461
898.672	20625
898.792	20507
898.913	20507
899.033	20400
899.153	20400
899.273	20176
899.393	20153
899.513	20309
899.633	20240
899.753	20187
899.873	20183
899.993	20248
900.113	20142
900.232	20149
900.352	20214
900.472	20210
900.591	20043
900.711	19974
900.83	20016
900.95	20164
901.069	20172
901.189	19887
901.308	19639
901.427	19521
901.546	19719
901.665	19616
901.784	19556
901.904	19472
902.023	19388
902.141	19228
902.26	19247
902.379	19187
902.498	19103
902.617	19126
902.735	19198
902.854	19168
902.973	19072
903.091	18768
903.21	18901
903.328	18707
903.446	18726
903.565	18612
903.683	18582
903.801	18502
903.919	18574
904.038	18635
904.156	18384
904.274	18479
904.392	18452
904.51	18353
904.627	18376
904.745	18464
904.863	18376
904.981	18083
905.098	18022
905.216	17999
905.334	18049
905.451	18076
905.569	17984
905.686	18098
905.803	17889
905.921	17912
906.038	17920
906.155	17863
906.272	17805
906.389	17764
906.506	17543
906.623	17592
906.74	17551
906.857	17501
906.974	17551
907.091	17608
907.208	17714
907.324	17543
907.441	17490
907.557	17368
907.674	17353
907.79	17242
907.907	17288
908.023	17239
908.139	17318
908.256	17258
908.372	17178
908.488	17132
908.604	17090
908.72	17018
908.836	17029
908.952	17010
909.068	17143
909.184	17128
909.3	17029
909.415	17041
909.531	17071
909.647	16740
909.762	16778
909.878	16710
909.993	16889
910.108	16668
910.224	16672
910.339	16752
910.454	16618
910.57	16466
910.685	16527
910.8	16786
910.915	16736
911.03	16637
911.145	16299
911.259	16265
911.374	16341
911.489	16219
911.604	16112
911.718	16093
911.833	16013
911.947	16029
912.062	15876
912.176	16166
912.291	16105
912.405	16044
912.519	16261
912.633	16265
912.748	16177
912.862	16063
912.976	15945
913.09	15671
913.204	15751
913.318	15922
913.431	16063
913.545	15907
913.659	16013
913.772	15819
913.886	15663
914	15625
914.113	15793
914.226	15781
914.34	15701
914.453	15580
914.566	15762
914.68	15599
914.793	15595
914.906	15359
915.019	15363
915.132	15283
915.245	15256
915.358	15359
915.47	15325
915.583	15287
915.696	15405
915.809	15370
915.921	15408
916.034	15226
916.146	15192
916.259	15089
916.371	15287
916.483	15264
916.595	15123
916.708	15138
916.82	15165
916.932	15154
917.044	15074
917.156	15058
917.268	14979
917.38	14853
917.491	14956
917.603	14967
917.715	15005
917.826	15112
917.938	14868
918.049	14792
918.161	14796
918.272	15020
918.384	15005
918.495	14910
918.606	14781
918.717	14602
918.828	14640
918.939	14735
919.05	14556
919.161	14598
919.272	14552
919.383	14564
919.494	14716
919.604	14876
919.715	14667
919.826	14552
919.936	14579
920.047	14735
920.157	14705
920.267	14864
920.378	14697
920.488	14545
920.598	14811
920.708	15032
920.818	14800
920.928	14724
921.038	14857
921.148	14925
921.258	14552
921.368	14454
921.477	14419
921.587	14328
921.697	14225
921.806	14366
921.916	14240
922.025	14020
922.134	14107
922.244	13982
922.353	14001
922.462	13928
922.571	13913
922.68	13712
922.789	13628
922.898	13723
923.007	13620
923.116	13647
923.224	13666
923.333	13655
923.442	13559
923.55	13483
923.659	13567
923.767	13582
923.876	13476
923.984	13460
924.092	13343
924.201	13419
924.309	13381
924.417	13411
924.525	13324
924.633	13411
924.741	14237
924.849	13156
924.956	13316
925.064	13133
925.172	13076
925.279	13168
925.387	13122
925.494	13103
925.602	13263
925.709	13160
925.816	12970
925.924	13038
926.031	13107
926.138	13046
926.245	13057
926.352	12932
926.459	13118
926.566	13072
926.673	13034
926.779	12890
926.886	12711
926.993	12650
927.099	12658
927.206	12673
927.312	12593
927.419	12722
927.525	12669
927.631	12635
927.737	12635
927.843	12544
927.95	12273
928.056	12464
928.162	12494
928.267	12509
928.373	13133
928.479	12525
928.585	12308
928.69	12448
928.796	12502
928.901	12350
929.007	12216
929.112	12311
929.218	12247
929.323	12182
929.428	12148
929.533	12353
929.638	12095
929.743	12114
929.848	12163
929.953	12110
930.058	12026
930.163	11859
930.267	11916
930.372	11988
930.477	11885
930.581	12076
930.685	11939
930.79	11737
930.894	11813
930.998	11752
931.103	11878
931.207	11604
931.311	11505
931.415	11349
931.519	11109
931.623	11037
