Data from test_V78500241_3273.txt Node
Date: Fri Mar 25 16:04:28 CST 2022
User: usil
Spectrometer: V785-0024
Trigger mode: 0
Integration Time (sec): 4.000000E-1
Scans to average: 1
Nonlinearity correction enabled: false
Boxcar width: 0
Storing dark spectrum: false
XAxis mode: Wavelengths
Number of Pixels in Spectrum: 1024
>>>>>Begin Spectral Data<<<<<
801.071	28478
801.214	28367
801.356	28207
801.499	28086
801.641	27895
801.783	28006
801.926	28086
802.068	28013
802.211	27755
802.353	27778
802.496	27759
802.638	27755
802.78	27595
802.923	27553
803.065	27580
803.208	27580
803.35	27614
803.492	27804
803.635	27804
803.777	27789
803.919	27926
804.061	28109
804.204	28017
804.346	27827
804.488	27812
804.63	27835
804.773	27793
804.915	27956
805.057	28032
805.199	27831
805.341	27903
805.483	28017
805.626	28086
805.768	28040
805.91	28051
806.052	27956
806.194	27907
806.336	28238
806.478	28181
806.62	28055
806.762	28044
806.904	28405
807.046	28550
807.188	28443
807.33	28519
807.472	28637
807.614	28535
807.756	28478
807.898	28512
808.04	28226
808.182	28242
808.324	28337
808.465	28348
808.607	28489
808.749	28752
808.891	28725
809.033	28877
809.174	28847
809.316	28706
809.458	28679
809.6	28713
809.741	28801
809.883	28854
810.025	29029
810.166	28984
810.308	29098
810.45	28915
810.591	28934
810.733	28759
810.875	28721
811.016	28717
811.158	28698
811.299	28793
811.441	28930
811.582	28873
811.724	28733
811.865	28664
812.007	28637
812.148	28713
812.29	28809
812.431	28934
812.573	29018
812.714	29109
812.855	29212
812.997	29277
813.138	29478
813.279	29311
813.421	29296
813.562	29227
813.703	29094
813.845	28968
813.986	28554
814.127	28611
814.268	28413
814.41	28561
814.551	28409
814.692	28584
814.833	28394
814.974	28478
815.115	28519
815.256	28295
815.397	28299
815.539	28322
815.68	28310
815.821	28154
815.962	28295
816.103	28196
816.244	28105
816.385	28017
816.526	27949
816.666	27876
816.807	27701
816.948	27720
817.089	27770
817.23	27667
817.371	27728
817.512	27880
817.653	27816
817.793	27648
817.934	27759
818.075	27656
818.216	27694
818.356	27778
818.497	27511
818.638	27568
818.778	27462
818.919	27351
819.06	27637
819.2	27587
819.341	27705
819.481	27644
819.622	27789
819.762	28082
819.903	27918
820.043	27892
820.184	27804
820.324	27827
820.465	27979
820.605	27884
820.746	28040
820.886	27709
821.026	27823
821.167	27759
821.307	27934
821.447	27831
821.588	27694
821.728	27709
821.868	27572
822.008	27374
822.149	27199
822.289	27283
822.429	26933
822.569	27024
822.709	26956
822.849	26849
822.99	26697
823.13	26708
823.27	26705
823.41	26571
823.55	26499
823.69	26545
823.83	26621
823.97	26533
824.11	26298
824.25	26336
824.389	26408
824.529	26427
824.669	26514
824.809	26438
824.949	26415
825.089	26488
825.228	26396
825.368	26278
825.508	26278
825.648	26248
825.787	26469
825.927	26393
826.067	26339
826.206	26412
826.346	26210
826.485	26313
826.625	26187
826.765	26423
826.904	26396
827.044	26149
827.183	25993
827.323	26084
827.462	26122
827.601	26005
827.741	25997
827.88	25986
828.02	25856
828.159	25944
828.298	25966
828.437	26115
828.577	25928
828.716	26046
828.855	25883
828.994	25727
829.134	25689
829.273	25677
829.412	25620
829.551	25548
829.69	25814
829.829	25769
829.968	25936
830.107	25685
830.246	25563
830.385	25658
830.524	25586
830.663	25556
830.802	25445
830.941	25308
831.08	25160
831.219	25304
831.357	25499
831.496	25453
831.635	25278
831.774	25255
831.913	25175
832.051	24992
832.19	25065
832.329	25164
832.467	24943
832.606	24894
832.744	24928
832.883	24970
833.022	24939
833.16	24920
833.299	25099
833.437	25023
833.576	25015
833.714	25000
833.852	25145
833.991	25103
834.129	25050
834.267	25023
834.406	25076
834.544	25129
834.682	25118
834.821	25015
834.959	25118
835.097	24909
835.235	24981
835.373	25019
835.511	24973
835.65	24848
835.788	24909
835.926	24829
836.064	24817
836.202	24802
836.34	24798
836.478	24856
836.615	24981
836.753	24840
836.891	24882
837.029	24783
837.167	24738
837.305	24658
837.443	24734
837.58	24749
837.718	24798
837.856	24779
837.993	24711
838.131	24658
838.269	24604
838.406	24623
838.544	24513
838.681	24353
838.819	24285
838.956	24194
839.094	24133
839.231	24152
839.369	24262
839.506	24315
839.643	24266
839.781	24095
839.918	24239
840.055	24060
840.193	24110
840.33	24015
840.467	24026
840.604	24045
840.742	24289
840.879	23832
841.016	24098
841.153	24034
841.29	24262
841.427	24034
841.564	24102
841.701	23984
841.838	23946
841.975	24018
842.112	23999
842.249	23897
842.385	23851
842.522	24026
842.659	23954
842.796	23828
842.933	23893
843.069	23920
843.206	23729
843.343	23809
843.479	23828
843.616	23805
843.752	23566
843.889	23737
844.025	23551
844.162	23520
844.298	23672
844.435	23642
844.571	23585
844.708	23577
844.844	23745
844.98	23680
845.117	23726
845.253	23433
845.389	23277
845.525	23490
845.661	23417
845.798	23433
845.934	23307
846.07	23326
846.206	23349
846.342	23398
846.478	23341
846.614	23052
846.75	23052
846.886	22995
847.022	23044
847.158	23029
847.294	23041
847.429	23029
847.565	23113
847.701	23318
847.837	22805
847.972	22801
848.108	22831
848.244	22778
848.379	22710
848.515	22630
848.65	22565
848.786	22557
848.921	22660
849.057	22721
849.192	22634
849.328	22607
849.463	22672
849.598	22493
849.734	22500
849.869	22481
850.004	22504
850.14	22478
850.275	22447
850.41	22382
850.545	22310
850.68	22249
850.815	22390
850.95	22474
851.085	22508
851.22	22443
851.355	22535
851.49	22390
851.625	22337
851.76	22276
851.895	22333
852.03	22287
852.165	22443
852.299	22382
852.434	22497
852.569	22394
852.703	22246
852.838	22478
852.973	22481
853.107	22474
853.242	22356
853.376	22295
853.511	22173
853.645	22204
853.78	22276
853.914	22287
854.048	22109
854.183	22318
854.317	22310
854.451	22432
854.585	22188
854.72	22207
854.854	22291
854.988	22105
855.122	22200
855.256	22135
855.39	22200
855.524	22424
855.658	22360
855.792	22379
855.926	22284
856.06	22207
856.194	22200
856.327	22242
856.461	22097
856.595	22147
856.729	22265
856.862	22333
856.996	22310
857.13	22242
857.263	22352
857.397	22363
857.53	22173
857.664	22253
857.797	22287
857.931	22287
858.064	22337
858.197	22333
858.331	22204
858.464	22067
858.597	22051
858.731	22192
858.864	22200
858.997	22162
859.13	22124
859.263	22177
859.396	22367
859.529	22238
859.662	22211
859.795	22116
859.928	22303
860.061	22329
860.194	22478
860.327	22261
860.46	22257
860.592	22409
860.725	22337
860.858	22318
860.99	22230
861.123	22124
861.256	22185
861.388	22223
861.521	22904
861.653	22055
861.786	22051
861.918	22002
862.05	22093
862.183	22219
862.315	22086
862.447	22318
862.58	22090
862.712	22002
862.844	21846
862.976	22063
863.108	22036
863.24	22200
863.372	21888
863.504	22059
863.636	21793
863.768	21994
863.9	21964
864.032	21720
864.164	21884
864.296	21934
864.428	22112
864.559	22055
864.691	22036
864.823	21968
864.954	21907
865.086	21922
865.217	21797
865.349	21781
865.48	21884
865.612	21949
865.743	21953
865.875	21922
866.006	21797
866.137	21842
866.269	21713
866.4	21785
866.531	21857
866.662	21736
866.793	21557
866.924	21789
867.055	21915
867.186	21736
867.317	21774
867.448	21660
867.579	21728
867.71	21641
867.841	21629
867.972	21717
868.103	21701
868.233	21766
868.364	21766
868.495	21922
868.625	21949
868.756	22105
868.886	21930
869.017	21911
869.147	22055
869.278	22101
869.408	22021
869.539	21907
869.669	22025
869.799	22040
869.929	22105
870.06	22112
870.19	22375
870.32	22246
870.45	22261
870.58	22272
870.71	22440
870.84	22405
870.97	22398
871.1	22413
871.23	22599
871.36	22421
871.489	22580
871.619	22504
871.749	22538
871.879	22634
872.008	22755
872.138	22573
872.267	22580
872.397	22481
872.526	22371
872.656	22436
872.785	22299
872.915	22725
873.044	22626
873.173	22580
873.303	22618
873.432	22653
873.561	22740
873.69	22656
873.819	22470
873.948	22706
874.077	22656
874.206	22478
874.335	22538
874.464	22744
874.593	22858
874.722	22763
874.851	22961
874.979	22911
875.108	22854
875.237	22805
875.365	22801
875.494	22599
875.623	22919
875.751	22839
875.88	22809
876.008	22854
876.136	22938
876.265	23223
876.393	23200
876.521	23360
876.65	23284
876.778	23174
876.906	23105
877.034	23136
877.162	23178
877.29	23060
877.418	23170
877.546	23174
877.674	23136
877.802	23181
877.93	23067
878.058	23189
878.185	23025
878.313	23143
878.441	23136
878.568	23029
878.696	23033
878.824	23128
878.951	23261
879.079	23318
879.206	23459
879.333	23299
879.461	23109
879.588	23261
879.715	23299
879.842	23425
879.97	23143
880.097	23029
880.224	22999
880.351	23060
880.478	23022
880.605	22904
880.732	23033
880.859	23185
880.986	23014
881.112	23018
881.239	22721
881.366	22698
881.493	22660
881.619	22535
881.746	22603
881.872	22580
881.999	22413
882.125	22405
882.252	22565
882.378	22535
882.505	22557
882.631	22375
882.757	22215
882.883	22249
883.01	22261
883.136	22276
883.262	22112
883.388	21994
883.514	22325
883.64	22257
883.766	22112
883.892	22036
884.018	22135
884.143	22147
884.269	22185
884.395	21983
884.52	21793
884.646	21972
884.772	21667
884.897	21854
885.023	21873
885.148	21907
885.274	22101
885.399	21941
885.524	21876
885.65	21903
885.775	21854
885.9	21854
886.025	22040
886.15	21960
886.275	21724
886.4	21816
886.525	21835
886.65	21819
886.775	21781
886.9	21960
887.025	22002
887.149	21922
887.274	21637
887.399	21637
887.523	21583
887.648	21599
887.773	21408
887.897	21698
888.021	21652
888.146	21637
888.27	21766
888.395	21701
888.519	21580
888.643	21553
888.767	21663
888.891	21511
889.015	21469
889.139	21393
889.263	21443
889.387	21485
889.511	21637
889.635	21481
889.759	21454
889.883	21412
890.006	21386
890.13	21469
890.254	21325
890.377	21439
890.501	21157
890.624	21203
890.748	21218
890.871	20994
890.995	21005
891.118	20830
891.241	20933
891.364	21017
891.488	21146
891.611	20944
891.734	20933
891.857	21020
891.98	21047
892.103	20982
892.226	21009
892.349	20956
892.471	20842
892.594	20937
892.717	20899
892.839	20876
892.962	20891
893.085	20880
893.207	20724
893.33	20754
893.452	20720
893.575	20849
893.697	20800
893.819	21074
893.941	21024
894.064	20994
894.186	20861
894.308	20648
894.43	21013
894.552	20994
894.674	20876
894.796	20727
894.918	20807
895.04	20746
895.161	20956
895.283	20891
895.405	20971
895.526	20727
895.648	20830
895.769	20640
895.891	20743
896.012	20925
896.134	20868
896.255	20880
896.376	20800
896.498	20819
896.619	20895
896.74	20830
896.861	20956
896.982	21131
897.103	21260
897.224	21146
897.345	20960
897.466	20967
897.587	21108
897.708	21176
897.828	21161
897.949	20944
898.07	20925
898.19	20826
898.311	21154
898.431	20994
898.552	21131
898.672	21146
898.792	21157
898.913	21051
899.033	20819
899.153	20895
899.273	20720
899.393	20872
899.513	20826
899.633	20910
899.753	20727
899.873	20727
899.993	20777
900.113	20750
900.232	20743
900.352	20598
900.472	20667
900.591	20514
900.711	20629
900.83	20514
900.95	20667
901.069	20507
901.189	20507
901.308	20187
901.427	20111
901.546	20145
901.665	20115
901.784	20115
901.904	19955
902.023	19887
902.141	19689
902.26	19590
902.379	19761
902.498	19643
902.617	19639
902.735	19655
902.854	19594
902.973	19552
903.091	19327
903.21	19274
903.328	19331
903.446	19137
903.565	19065
903.683	19053
903.801	19061
903.919	19114
904.038	19095
904.156	18863
904.274	18924
904.392	18806
904.51	18791
904.627	18798
904.745	18878
904.863	18859
904.981	18661
905.098	18517
905.216	18563
905.334	18460
905.451	18521
905.569	18528
905.686	18464
905.803	18395
905.921	18281
906.038	18418
906.155	18361
906.272	18194
906.389	18334
906.506	18209
906.623	18114
906.74	18053
906.857	17897
906.974	18019
907.091	18079
907.208	18148
907.324	18022
907.441	17923
907.557	17771
907.674	17737
907.79	17630
907.907	17779
908.023	17790
908.139	17634
908.256	17737
908.372	17619
908.488	17623
908.604	17455
908.72	17421
908.836	17532
908.952	17417
909.068	17501
909.184	17691
909.3	17524
909.415	17623
909.531	17368
909.647	17197
909.762	17288
909.878	17067
909.993	17265
910.108	17181
910.224	17102
910.339	17143
910.454	17056
910.57	16968
910.685	16927
910.8	17288
910.915	17105
911.03	17003
911.145	16763
911.259	16805
911.374	16713
911.489	16687
911.604	16702
911.718	16493
911.833	16489
911.947	16462
912.062	16303
912.176	16508
912.291	16596
912.405	16462
912.519	16721
912.633	16755
912.748	16622
912.862	16500
912.976	16246
913.09	16131
913.204	16291
913.318	16265
913.431	16390
913.545	16386
913.659	16367
913.772	16272
913.886	16147
914	16188
914.113	16154
914.226	16287
914.34	16238
914.453	16116
914.566	16010
914.68	16105
914.793	15915
914.906	15747
915.019	15618
915.132	15622
915.245	15576
915.358	15625
915.47	15728
915.583	15656
915.696	15766
915.809	15709
915.921	15797
916.034	15595
916.146	15614
916.259	15629
916.371	15660
916.483	15625
916.595	15469
916.708	15549
916.82	15587
916.932	15561
917.044	15515
917.156	15443
917.268	15260
917.38	15325
917.491	15302
917.603	15214
917.715	15397
917.826	15317
917.938	15226
918.049	15161
918.161	15214
918.272	15359
918.384	15416
918.495	15291
918.606	15176
918.717	14975
918.828	15127
918.939	15039
919.05	14902
919.161	15077
919.272	14925
919.383	14910
919.494	15070
919.604	15218
919.715	15017
919.826	14895
919.936	14986
920.047	15104
920.157	15112
920.267	15135
920.378	14982
920.488	14979
920.598	15100
920.708	15272
920.818	15192
920.928	15032
921.038	15272
921.148	15241
921.258	14948
921.368	14861
921.477	14758
921.587	14701
921.697	14564
921.806	14769
921.916	14621
922.025	14404
922.134	14427
922.244	14286
922.353	14355
922.462	14294
922.571	14210
922.68	13997
922.789	14107
922.898	14058
923.007	13993
923.116	14065
923.224	14001
923.333	14027
923.442	13833
923.55	13883
923.659	13913
923.767	13868
923.876	13856
923.984	13928
924.092	13742
924.201	13791
924.309	13772
924.417	13731
924.525	13651
924.633	13670
924.741	14400
924.849	13430
924.956	13685
925.064	13491
925.172	13373
925.279	13419
925.387	13514
925.494	13377
925.602	13487
925.709	13495
925.816	13327
925.924	13335
926.031	13449
926.138	13362
926.245	13365
926.352	13278
926.459	13377
926.566	13529
926.673	13194
926.779	13160
926.886	13110
926.993	12981
927.099	12993
927.206	12871
927.312	12890
927.419	13046
927.525	12871
927.631	12939
927.737	12817
927.843	12837
927.95	12696
928.056	12741
928.162	12806
928.267	12722
928.373	13339
928.479	12825
928.585	12589
928.69	12745
928.796	12760
928.901	12623
929.007	12464
929.112	12639
929.218	12559
929.323	12395
929.428	12441
929.533	12540
929.638	12407
929.743	12372
929.848	12525
929.953	12456
930.058	12372
930.163	12216
930.267	12247
930.372	12281
930.477	12091
930.581	12342
930.685	12190
930.79	12114
930.894	12041
930.998	11999
931.103	12159
931.207	11802
931.311	11722
931.415	11657
931.519	11429
931.623	11395
