Data from test_V78500241_2261.txt Node
Date: Fri Mar 25 15:57:27 CST 2022
User: usil
Spectrometer: V785-0024
Trigger mode: 0
Integration Time (sec): 4.000000E-1
Scans to average: 1
Nonlinearity correction enabled: false
Boxcar width: 0
Storing dark spectrum: false
XAxis mode: Wavelengths
Number of Pixels in Spectrum: 1024
>>>>>Begin Spectral Data<<<<<
801.071	29086
801.214	29105
801.356	28984
801.499	28881
801.641	28782
801.783	28752
801.926	28774
802.068	28752
802.211	28607
802.353	28577
802.496	28356
802.638	28424
802.78	28440
802.923	28253
803.065	28348
803.208	28318
803.35	28432
803.492	28656
803.635	28656
803.777	28687
803.919	28740
804.061	28934
804.204	28774
804.346	28664
804.488	28508
804.63	28706
804.773	28710
804.915	28641
805.057	28892
805.199	28687
805.341	28740
805.483	28778
805.626	28748
805.768	28554
805.91	28816
806.052	28877
806.194	28793
806.336	29083
806.478	28733
806.62	28839
806.762	29048
806.904	29166
807.046	29326
807.188	29296
807.33	29349
807.472	29398
807.614	29109
807.756	29353
807.898	29140
808.04	29003
808.182	29147
808.324	29360
808.465	29258
808.607	29311
808.749	29505
808.891	29577
809.033	29661
809.174	29642
809.316	29501
809.458	29516
809.6	29512
809.741	29661
809.883	29634
810.025	29764
810.166	29927
810.308	29862
810.45	29665
810.591	29798
810.733	29649
810.875	29589
811.016	29512
811.158	29360
811.299	29630
811.441	29687
811.582	29722
811.724	29551
811.865	29528
812.007	29482
812.148	29615
812.29	29646
812.431	29790
812.573	29977
812.714	30083
812.855	29992
812.997	30117
813.138	30418
813.279	30327
813.421	30152
813.562	30106
813.703	29851
813.845	29821
813.986	29566
814.127	29459
814.268	29345
814.41	29375
814.551	29254
814.692	29360
814.833	29280
814.974	29254
815.115	29326
815.256	29212
815.397	29197
815.539	29280
815.68	29098
815.821	29079
815.962	29071
816.103	29022
816.244	29033
816.385	28923
816.526	28938
816.666	28580
816.807	28649
816.948	28786
817.089	28755
817.23	28691
817.371	28698
817.512	28554
817.653	28504
817.793	28611
817.934	28542
818.075	28778
818.216	28508
818.356	28687
818.497	28443
818.638	28432
818.778	28561
818.919	28341
819.06	28459
819.2	28470
819.341	28637
819.481	28641
819.622	28809
819.762	28984
819.903	28949
820.043	28831
820.184	28812
820.324	28809
820.465	28904
820.605	28740
820.746	28816
820.886	28622
821.026	28752
821.167	28786
821.307	28725
821.447	28710
821.588	28523
821.728	28436
821.868	28268
822.008	28124
822.149	28120
822.289	28284
822.429	27888
822.569	27911
822.709	27914
822.849	27648
822.99	27717
823.13	27694
823.27	27485
823.41	27359
823.55	27386
823.69	27583
823.83	27496
823.97	27454
824.11	27241
824.25	27340
824.389	27176
824.529	27370
824.669	27393
824.809	27473
824.949	27351
825.089	27389
825.228	27435
825.368	27218
825.508	27123
825.648	27173
825.787	27104
825.927	27237
826.067	27184
826.206	27108
826.346	27245
826.485	27241
826.625	27192
826.765	27245
826.904	27154
827.044	27032
827.183	27062
827.323	26876
827.462	26929
827.601	26990
827.741	26773
827.88	26940
828.02	26606
828.159	26769
828.298	26910
828.437	26990
828.577	26925
828.716	27001
828.855	26804
828.994	26606
829.134	26651
829.273	26560
829.412	26465
829.551	26442
829.69	26530
829.829	26731
829.968	26640
830.107	26670
830.246	26602
830.385	26613
830.524	26514
830.663	26320
830.802	26298
830.941	26115
831.08	26218
831.219	26206
831.357	26450
831.496	26362
831.635	26115
831.774	26058
831.913	26005
832.051	25989
832.19	26039
832.329	26039
832.467	25883
832.606	25795
832.744	25818
832.883	25860
833.022	25845
833.16	25837
833.299	25902
833.437	25902
833.576	25879
833.714	25811
833.852	25913
833.991	25982
834.129	26145
834.267	26035
834.406	25898
834.544	25955
834.682	26005
834.821	25982
834.959	25944
835.097	25940
835.235	25951
835.373	25887
835.511	25849
835.65	25715
835.788	25674
835.926	25674
836.064	25571
836.202	25457
836.34	25704
836.478	25830
836.615	25666
836.753	25719
836.891	25746
837.029	25784
837.167	25655
837.305	25757
837.443	25628
837.58	25449
837.718	25597
837.856	25578
837.993	25460
838.131	25525
838.269	25476
838.406	25422
838.544	25491
838.681	25293
838.819	25126
838.956	24958
839.094	25015
839.231	25118
839.369	25122
839.506	25381
839.643	25247
839.781	24992
839.918	24977
840.055	24970
840.193	24939
840.33	24932
840.467	24913
840.604	24913
840.742	25308
840.879	24871
841.016	24878
841.153	24741
841.29	24882
841.427	24901
841.564	25027
841.701	24916
841.838	24996
841.975	24932
842.112	24837
842.249	24555
842.385	24749
842.522	24833
842.659	24779
842.796	24658
842.933	24764
843.069	24658
843.206	24665
843.343	24741
843.479	24536
843.616	24604
843.752	24551
843.889	24505
844.025	24570
844.162	24388
844.298	24661
844.435	24547
844.571	24380
844.708	24559
844.844	24623
844.98	24574
845.117	24608
845.253	24330
845.389	24228
845.525	24391
845.661	24201
845.798	24110
845.934	24270
846.07	24205
846.206	24098
846.342	24277
846.478	24152
846.614	23950
846.75	23779
846.886	23885
847.022	23927
847.158	23912
847.294	23737
847.429	23889
847.565	23805
847.701	24098
847.837	23661
847.972	23703
848.108	23714
848.244	23809
848.379	23596
848.515	23520
848.65	23406
848.786	23448
848.921	23436
849.057	23482
849.192	23547
849.328	23558
849.463	23463
849.598	23429
849.734	23353
849.869	23341
850.004	23223
850.14	23337
850.275	23181
850.41	23261
850.545	23250
850.68	23166
850.815	23178
850.95	23235
851.085	23345
851.22	23402
851.355	23220
851.49	23239
851.625	23025
851.76	23216
851.895	23212
852.03	23166
852.165	23231
852.299	23216
852.434	23353
852.569	23292
852.703	23220
852.838	23296
852.973	23436
853.107	23406
853.242	23124
853.376	23029
853.511	22923
853.645	23098
853.78	23128
853.914	22961
854.048	22942
854.183	23022
854.317	23022
854.451	23220
854.585	23162
854.72	23071
854.854	23109
854.988	22869
855.122	23071
855.256	22995
855.39	23044
855.524	23159
855.658	23075
855.792	23189
855.926	23102
856.06	23060
856.194	23056
856.327	23056
856.461	22843
856.595	23003
856.729	22987
856.862	22980
856.996	23231
857.13	23075
857.263	23288
857.397	23075
857.53	22995
857.664	23102
857.797	23128
857.931	23098
858.064	23155
858.197	23109
858.331	23056
858.464	22961
858.597	22908
858.731	23003
858.864	22873
858.997	22987
859.13	23140
859.263	23075
859.396	23113
859.529	23003
859.662	22980
859.795	22976
859.928	23060
860.061	23185
860.194	23307
860.327	23155
860.46	23056
860.592	23220
860.725	23299
860.858	23288
860.99	23075
861.123	22995
861.256	22911
861.388	23109
861.521	23680
861.653	22877
861.786	22908
861.918	22927
862.05	22831
862.183	22858
862.315	22968
862.447	23117
862.58	22854
862.712	22767
862.844	22782
862.976	22828
863.108	22786
863.24	23174
863.372	22771
863.504	22793
863.636	22679
863.768	22748
863.9	22771
864.032	22679
864.164	22645
864.296	22755
864.428	22763
864.559	22809
864.691	22839
864.823	22763
864.954	22683
865.086	22698
865.217	22721
865.349	22599
865.48	22607
865.612	22653
865.743	22774
865.875	22622
866.006	22679
866.137	22580
866.269	22634
866.4	22618
866.531	22519
866.662	22516
866.793	22470
866.924	22683
867.055	22672
867.186	22455
867.317	22592
867.448	22497
867.579	22451
867.71	22455
867.841	22508
867.972	22512
868.103	22546
868.233	22546
868.364	22637
868.495	22538
868.625	22774
868.756	22949
868.886	22721
869.017	22782
869.147	22759
869.278	22873
869.408	22892
869.539	22733
869.669	22839
869.799	22801
869.929	22759
870.06	22938
870.19	23132
870.32	23086
870.45	23132
870.58	23140
870.71	23296
870.84	23311
870.97	23109
871.1	23250
871.23	23360
871.36	23395
871.489	23258
871.619	23307
871.749	23334
871.879	23360
872.008	23455
872.138	23353
872.267	23425
872.397	23220
872.526	23227
872.656	23280
872.785	23220
872.915	23444
873.044	23436
873.173	23406
873.303	23562
873.432	23505
873.561	23512
873.69	23467
873.819	23535
873.948	23505
874.077	23372
874.206	23421
874.335	23402
874.464	23562
874.593	23562
874.722	23573
874.851	23672
874.979	23543
875.108	23589
875.237	23528
875.365	23531
875.494	23501
875.623	23554
875.751	23444
875.88	23691
876.008	23840
876.136	23870
876.265	23832
876.393	24148
876.521	24174
876.65	24007
876.778	23855
876.906	23885
877.034	23916
877.162	23961
877.29	23920
877.418	23870
877.546	23897
877.674	23836
877.802	23889
877.93	24018
878.058	23996
878.185	23923
878.313	23855
878.441	23912
878.568	23695
878.696	23893
878.824	23882
878.951	24053
879.079	24178
879.206	24163
879.333	24022
879.461	24030
879.588	24015
879.715	24144
879.842	24163
879.97	24053
880.097	23840
880.224	23676
880.351	23878
880.478	23802
880.605	23535
880.732	23665
880.859	23961
880.986	23790
881.112	23897
881.239	23577
881.366	23543
881.493	23474
881.619	23406
881.746	23311
881.872	23326
881.999	23258
882.125	23189
882.252	23277
882.378	23372
882.505	23353
882.631	23094
882.757	22968
882.883	23143
883.01	23094
883.136	22919
883.262	22835
883.388	22653
883.514	22809
883.64	23041
883.766	22892
883.892	22687
884.018	22793
884.143	22980
884.269	22949
884.395	22740
884.52	22596
884.646	22782
884.772	22626
884.897	22603
885.023	22656
885.148	22573
885.274	22778
885.399	22729
885.524	22660
885.65	22622
885.775	22740
885.9	22641
886.025	22706
886.15	22790
886.275	22561
886.4	22447
886.525	22577
886.65	22573
886.775	22554
886.9	22668
887.025	22752
887.149	22493
887.274	22333
887.399	22447
887.523	22322
887.648	22287
887.773	22261
887.897	22455
888.021	22348
888.146	22363
888.27	22466
888.395	22500
888.519	22424
888.643	22337
888.767	22421
888.891	22276
889.015	22093
889.139	22253
889.263	22063
889.387	22265
889.511	22276
889.635	22181
889.759	22154
889.883	22135
890.006	22116
890.13	22219
890.254	22067
890.377	21922
890.501	21842
890.624	21892
890.748	21911
890.871	21732
890.995	21728
891.118	21557
891.241	21705
891.364	21736
891.488	21713
891.611	21762
891.734	21713
891.857	21705
891.98	21583
892.103	21633
892.226	21667
892.349	21686
892.471	21416
892.594	21644
892.717	21603
892.839	21614
892.962	21572
893.085	21663
893.207	21606
893.33	21504
893.452	21523
893.575	21641
893.697	21431
893.819	21644
893.941	21747
894.064	21698
894.186	21439
894.308	21416
894.43	21622
894.552	21686
894.674	21633
894.796	21431
894.918	21534
895.04	21405
895.161	21663
895.283	21633
895.405	21545
895.526	21545
895.648	21454
895.769	21504
895.891	21542
896.012	21641
896.134	21625
896.255	21481
896.376	21416
896.498	21496
896.619	21599
896.74	21561
896.861	21511
896.982	21861
897.103	21926
897.224	21736
897.345	21804
897.466	21698
897.587	21705
897.708	21804
897.828	21819
897.949	21724
898.07	21576
898.19	21641
898.311	21713
898.431	21724
898.552	21835
898.672	21759
898.792	21755
898.913	21797
899.033	21545
899.153	21538
899.273	21378
899.393	21363
899.513	21576
899.633	21443
899.753	21405
899.873	21393
899.993	21462
900.113	21367
900.232	21424
900.352	21317
900.472	21268
900.591	21112
900.711	21173
900.83	21157
900.95	21298
901.069	21291
901.189	21188
901.308	20716
901.427	20750
901.546	20735
901.665	20868
901.784	20796
901.904	20590
902.023	20476
902.141	20259
902.26	20328
902.379	20393
902.498	20256
902.617	20225
902.735	20221
902.854	20237
902.973	20214
903.091	19841
903.21	19909
903.328	19925
903.446	19795
903.565	19689
903.683	19788
903.801	19704
903.919	19685
904.038	19628
904.156	19422
904.274	19575
904.392	19453
904.51	19441
904.627	19422
904.745	19480
904.863	19525
904.981	19266
905.098	19091
905.216	19175
905.334	19156
905.451	19046
905.569	19198
905.686	19259
905.803	19202
905.921	18856
906.038	18958
906.155	18909
906.272	18707
906.389	18867
906.506	18692
906.623	18677
906.74	18642
906.857	18608
906.974	18464
907.091	18681
907.208	18757
907.324	18768
907.441	18525
907.557	18407
907.674	18376
907.79	18323
907.907	18353
908.023	18456
908.139	18319
908.256	18365
908.372	18315
908.488	18186
908.604	17996
908.72	18015
908.836	18045
908.952	18125
909.068	18136
909.184	18087
909.3	18068
909.415	18163
909.531	18083
909.647	17790
909.762	17783
909.878	17642
909.993	17741
910.108	17657
910.224	17661
910.339	17707
910.454	17699
910.57	17577
910.685	17429
910.8	17775
910.915	17653
911.03	17554
911.145	17433
911.259	17414
911.374	17299
911.489	17254
911.604	17181
911.718	17060
911.833	17151
911.947	17102
912.062	16900
912.176	16949
912.291	17079
912.405	16976
912.519	17406
912.633	17303
912.748	17124
912.862	17014
912.976	16904
913.09	16812
913.204	16873
913.318	16831
913.431	16946
913.545	16923
913.659	16942
913.772	16835
913.886	16752
914	16672
914.113	16805
914.226	16736
914.34	16710
914.453	16577
914.566	16641
914.68	16588
914.793	16531
914.906	16211
915.019	16268
915.132	16124
915.245	16226
915.358	16215
915.47	16188
915.583	16234
915.696	16238
915.809	16348
915.921	16204
916.034	16150
916.146	16204
916.259	16101
916.371	16234
916.483	16131
916.595	16013
916.708	15949
916.82	15899
916.932	15949
917.044	15975
917.156	15861
917.268	15884
917.38	15831
917.491	15785
917.603	15922
917.715	15991
917.826	15922
917.938	15743
918.049	15709
918.161	15797
918.272	15903
918.384	15941
918.495	15766
918.606	15603
918.717	15603
918.828	15603
918.939	15679
919.05	15492
919.161	15568
919.272	15310
919.383	15344
919.494	15538
919.604	15755
919.715	15496
919.826	15405
919.936	15462
920.047	15530
920.157	15561
920.267	15732
920.378	15504
920.488	15469
920.598	15751
920.708	15797
920.818	15622
920.928	15717
921.038	15857
921.148	15823
921.258	15473
921.368	15386
921.477	15226
921.587	15161
921.697	15093
921.806	15169
921.916	15062
922.025	14956
922.134	14868
922.244	14811
922.353	14937
922.462	14720
922.571	14701
922.68	14530
922.789	14503
922.898	14484
923.007	14381
923.116	14465
923.224	14488
923.333	14484
923.442	14374
923.55	14358
923.659	14469
923.767	14377
923.876	14199
923.984	14374
924.092	14248
924.201	14298
924.309	14240
924.417	14244
924.525	14096
924.633	14081
924.741	14857
924.849	13978
924.956	14043
925.064	13826
925.172	13791
925.279	13917
925.387	13917
925.494	13811
925.602	13921
925.709	13913
925.816	13742
925.924	13753
926.031	13837
926.138	13734
926.245	13803
926.352	13655
926.459	13833
926.566	13833
926.673	13674
926.779	13578
926.886	13571
926.993	13430
927.099	13419
927.206	13308
927.312	13346
927.419	13403
927.525	13339
927.631	13400
927.737	13164
927.843	13251
927.95	13137
928.056	13209
928.162	13274
928.267	13228
928.373	13868
928.479	13304
928.585	12951
928.69	13141
928.796	13141
928.901	13034
929.007	12890
929.112	12989
929.218	12954
929.323	12993
929.428	12943
929.533	13000
929.638	12894
929.743	12875
929.848	12890
929.953	12806
930.058	12719
930.163	12593
930.267	12608
930.372	12726
930.477	12513
930.581	12741
930.685	12551
930.79	12418
930.894	12448
930.998	12353
931.103	12517
931.207	12220
931.311	12079
931.415	11980
931.519	11878
931.623	11764
