Data from test_V78500241_1984.txt Node
Date: Fri Mar 25 15:55:32 CST 2022
User: usil
Spectrometer: V785-0024
Trigger mode: 0
Integration Time (sec): 4.000000E-1
Scans to average: 1
Nonlinearity correction enabled: false
Boxcar width: 0
Storing dark spectrum: false
XAxis mode: Wavelengths
Number of Pixels in Spectrum: 1024
>>>>>Begin Spectral Data<<<<<
801.071	28318
801.214	28287
801.356	28188
801.499	27892
801.641	27945
801.783	27759
801.926	27895
802.068	27934
802.211	27823
802.353	27743
802.496	27500
802.638	27553
802.78	27477
802.923	27408
803.065	27332
803.208	27393
803.35	27622
803.492	27587
803.635	27755
803.777	27572
803.919	27789
804.061	28078
804.204	27682
804.346	27838
804.488	27641
804.63	27713
804.773	27663
804.915	27736
805.057	27770
805.199	27766
805.341	27831
805.483	27934
805.626	27895
805.768	27770
805.91	27930
806.052	27838
806.194	27690
806.336	28025
806.478	27835
806.62	27854
806.762	27998
806.904	27987
807.046	28333
807.188	28417
807.33	28375
807.472	28401
807.614	28295
807.756	28382
807.898	28272
808.04	28295
808.182	28154
808.324	28257
808.465	28200
808.607	28386
808.749	28546
808.891	28584
809.033	28561
809.174	28668
809.316	28607
809.458	28599
809.6	28519
809.741	28538
809.883	28641
810.025	28904
810.166	28767
810.308	28888
810.45	28835
810.591	28721
810.733	28592
810.875	28497
811.016	28322
811.158	28466
811.299	28592
811.441	28641
811.582	28645
811.724	28516
811.865	28550
812.007	28542
812.148	28656
812.29	28504
812.431	28557
812.573	28999
812.714	28995
812.855	29113
812.997	29113
813.138	29337
813.279	29117
813.421	29083
813.562	29022
813.703	29003
813.845	28828
813.986	28451
814.127	28447
814.268	28215
814.41	28371
814.551	28386
814.692	28230
814.833	28131
814.974	28109
815.115	28200
815.256	28116
815.397	28116
815.539	28109
815.68	28101
815.821	27945
815.962	28101
816.103	27991
816.244	28013
816.385	27816
816.526	27831
816.666	27694
816.807	27523
816.948	27694
817.089	27557
817.23	27515
817.371	27545
817.512	27454
817.653	27564
817.793	27481
817.934	27644
818.075	27545
818.216	27564
818.356	27450
818.497	27458
818.638	27264
818.778	27306
818.919	27344
819.06	27302
819.2	27447
819.341	27393
819.481	27515
819.622	27732
819.762	27983
819.903	27770
820.043	27682
820.184	27637
820.324	27682
820.465	27717
820.605	27671
820.746	27656
820.886	27587
821.026	27690
821.167	27538
821.307	27663
821.447	27557
821.588	27488
821.728	27408
821.868	27272
822.008	26918
822.149	27013
822.289	27089
822.429	26788
822.569	26765
822.709	26701
822.849	26564
822.99	26583
823.13	26305
823.27	26507
823.41	26290
823.55	26324
823.69	26450
823.83	26385
823.97	26324
824.11	26096
824.25	26187
824.389	26176
824.529	26301
824.669	26126
824.809	26309
824.949	26267
825.089	26176
825.228	26191
825.368	26039
825.508	25978
825.648	26054
825.787	26016
825.927	26122
826.067	26054
826.206	26012
826.346	26134
826.485	25989
826.625	25966
826.765	26100
826.904	26016
827.044	25849
827.183	25818
827.323	25670
827.462	25769
827.601	25712
827.741	25719
827.88	25704
828.02	25632
828.159	25719
828.298	25689
828.437	25788
828.577	25681
828.716	25833
828.855	25689
828.994	25377
829.134	25533
829.273	25533
829.412	25297
829.551	25464
829.69	25609
829.829	25586
829.968	25609
830.107	25441
830.246	25529
830.385	25373
830.524	25209
830.663	25244
830.802	25065
830.941	24992
831.08	25031
831.219	25023
831.357	25122
831.496	25263
831.635	25088
831.774	25080
831.913	24844
832.051	24844
832.19	24837
832.329	24867
832.467	24711
832.606	24760
832.744	24601
832.883	24707
833.022	24661
833.16	24673
833.299	24848
833.437	24814
833.576	24806
833.714	24635
833.852	24825
833.991	24741
834.129	24700
834.267	24882
834.406	24741
834.544	24814
834.682	24734
834.821	24669
834.959	24977
835.097	24787
835.235	24798
835.373	24806
835.511	24848
835.65	24700
835.788	24700
835.926	24418
836.064	24441
836.202	24475
836.34	24658
836.478	24635
836.615	24631
836.753	24597
836.891	24620
837.029	24566
837.167	24604
837.305	24494
837.443	24433
837.58	24410
837.718	24410
837.856	24464
837.993	24426
838.131	24338
838.269	24292
838.406	24304
838.544	24296
838.681	24060
838.819	24148
838.956	23901
839.094	23870
839.231	23980
839.369	24239
839.506	24388
839.643	24144
839.781	24011
839.918	23935
840.055	23931
840.193	23935
840.33	23954
840.467	23817
840.604	23805
840.742	24076
840.879	23668
841.016	23733
841.153	23665
841.29	23885
841.427	23794
841.564	23870
841.701	23847
841.838	23748
841.975	23718
842.112	23726
842.249	23592
842.385	23558
842.522	23775
842.659	23490
842.796	23440
842.933	23691
843.069	23604
843.206	23585
843.343	23570
843.479	23509
843.616	23619
843.752	23455
843.889	23429
844.025	23364
844.162	23277
844.298	23429
844.435	23311
844.571	23239
844.708	23436
844.844	23490
844.98	23398
845.117	23520
845.253	23216
845.389	23189
845.525	23227
845.661	23246
845.798	23117
845.934	23204
846.07	23033
846.206	23170
846.342	23155
846.478	23098
846.614	22816
846.75	22778
846.886	22763
847.022	22820
847.158	22805
847.294	22934
847.429	22889
847.565	22725
847.701	22980
847.837	22470
847.972	22504
848.108	22611
848.244	22717
848.379	22417
848.515	22436
848.65	22352
848.786	22363
848.921	22337
849.057	22436
849.192	22489
849.328	22371
849.463	22405
849.598	22405
849.734	22284
849.869	22162
850.004	22238
850.14	22192
850.275	22078
850.41	22070
850.545	22067
850.68	22150
850.815	22162
850.95	22143
851.085	22363
851.22	22230
851.355	22124
851.49	22109
851.625	22124
851.76	22147
851.895	22040
852.03	22128
852.165	22086
852.299	22230
852.434	22261
852.569	22185
852.703	22181
852.838	22192
852.973	22287
853.107	22272
853.242	22090
853.376	21937
853.511	21892
853.645	21998
853.78	22059
853.914	21953
854.048	21979
854.183	21926
854.317	21949
854.451	22128
854.585	21956
854.72	21994
854.854	22082
854.988	21903
855.122	21987
855.256	21842
855.39	21979
855.524	22055
855.658	22154
855.792	22029
855.926	21941
856.06	22017
856.194	22078
856.327	22051
856.461	22063
856.595	21850
856.729	21964
856.862	22063
856.996	22051
857.13	22002
857.263	22109
857.397	22010
857.53	21998
857.664	22082
857.797	22006
857.931	22070
858.064	21934
858.197	22090
858.331	21994
858.464	21899
858.597	21983
858.731	21911
858.864	21915
858.997	21975
859.13	21983
859.263	22048
859.396	21945
859.529	21991
859.662	21934
859.795	21960
859.928	21998
860.061	22154
860.194	22105
860.327	21998
860.46	22044
860.592	22158
860.725	22207
860.858	22048
860.99	22059
861.123	21895
861.256	21850
861.388	21945
861.521	22820
861.653	21709
861.786	21679
861.918	21949
862.05	21865
862.183	21884
862.315	21972
862.447	22074
862.58	21873
862.712	21652
862.844	21732
862.976	21797
863.108	21739
863.24	22090
863.372	21705
863.504	21743
863.636	21709
863.768	21671
863.9	21644
864.032	21698
864.164	21686
864.296	21595
864.428	21766
864.559	21739
864.691	21717
864.823	21682
864.954	21614
865.086	21682
865.217	21591
865.349	21492
865.48	21614
865.612	21473
865.743	21580
865.875	21679
866.006	21583
866.137	21557
866.269	21519
866.4	21534
866.531	21424
866.662	21557
866.793	21488
866.924	21428
867.055	21553
867.186	21431
867.317	21439
867.448	21386
867.579	21507
867.71	21397
867.841	21443
867.972	21553
868.103	21538
868.233	21500
868.364	21485
868.495	21507
868.625	21705
868.756	21850
868.886	21663
869.017	21785
869.147	21838
869.278	21899
869.408	21850
869.539	21599
869.669	21861
869.799	21724
869.929	21922
870.06	21804
870.19	22097
870.32	21991
870.45	22059
870.58	22162
870.71	22261
870.84	22204
870.97	22048
871.1	22230
871.23	22188
871.36	22333
871.489	22310
871.619	22230
871.749	22261
871.879	22417
872.008	22512
872.138	22402
872.267	22280
872.397	22249
872.526	22196
872.656	22109
872.785	22181
872.915	22417
873.044	22550
873.173	22405
873.303	22466
873.432	22497
873.561	22481
873.69	22478
873.819	22352
873.948	22394
874.077	22489
874.206	22249
874.335	22398
874.464	22512
874.593	22557
874.722	22535
874.851	22523
874.979	22588
875.108	22675
875.237	22561
875.365	22634
875.494	22599
875.623	22660
875.751	22470
875.88	22557
876.008	22687
876.136	22763
876.265	22896
876.393	23200
876.521	23151
876.65	23022
876.778	22927
876.906	22991
877.034	22938
877.162	22980
877.29	23022
877.418	22953
877.546	22972
877.674	22892
877.802	22919
877.93	22976
878.058	22911
878.185	22896
878.313	22831
878.441	22946
878.568	22767
878.696	22809
878.824	23052
878.951	22957
879.079	23147
879.206	23364
879.333	23170
879.461	23037
879.588	23098
879.715	23143
879.842	23166
879.97	23037
880.097	22820
880.224	22805
880.351	22793
880.478	22805
880.605	22755
880.732	22698
880.859	22942
880.986	22744
881.112	22748
881.239	22622
881.366	22542
881.493	22466
881.619	22379
881.746	22348
881.872	22276
881.999	22268
882.125	22375
882.252	22417
882.378	22242
882.505	22341
882.631	22185
882.757	22036
882.883	22131
883.01	21934
883.136	21846
883.262	21888
883.388	21888
883.514	22067
883.64	22105
883.766	21892
883.892	21751
884.018	21747
884.143	21956
884.269	22074
884.395	21770
884.52	21724
884.646	21667
884.772	21549
884.897	21633
885.023	21755
885.148	21778
885.274	21781
885.399	21641
885.524	21709
885.65	21641
885.775	21705
885.9	21682
886.025	21766
886.15	21679
886.275	21660
886.4	21599
886.525	21648
886.65	21603
886.775	21679
886.9	21724
887.025	21918
887.149	21542
887.274	21473
887.399	21424
887.523	21367
887.648	21405
887.773	21275
887.897	21412
888.021	21523
888.146	21454
888.27	21466
888.395	21397
888.519	21382
888.643	21492
888.767	21431
888.891	21233
889.015	21203
889.139	21275
889.263	21211
889.387	21287
889.511	21359
889.635	21370
889.759	21043
889.883	21169
890.006	21214
890.13	21252
890.254	21077
890.377	21112
890.501	20876
890.624	20864
890.748	21062
890.871	20929
890.995	20826
891.118	20667
891.241	20716
891.364	20796
891.488	20891
891.611	20792
891.734	20834
891.857	20754
891.98	20788
892.103	20632
892.226	20823
892.349	20659
892.471	20568
892.594	20762
892.717	20674
892.839	20659
892.962	20727
893.085	20815
893.207	20651
893.33	20499
893.452	20552
893.575	20594
893.697	20594
893.819	20697
893.941	20899
894.064	20777
894.186	20651
894.308	20590
894.43	20842
894.552	20804
894.674	20834
894.796	20598
894.918	20632
895.04	20473
895.161	20655
895.283	20708
895.405	20571
895.526	20708
895.648	20571
895.769	20754
895.891	20727
896.012	20693
896.134	20765
896.255	20644
896.376	20571
896.498	20655
896.619	20651
896.74	20632
896.861	20743
896.982	20952
897.103	21070
897.224	20842
897.345	20838
897.466	20796
897.587	20838
897.708	21013
897.828	20762
897.949	20632
898.07	20705
898.19	20788
898.311	21020
898.431	20785
898.552	20883
898.672	20902
898.792	20990
898.913	20815
899.033	20712
899.153	20796
899.273	20625
899.393	20792
899.513	20602
899.633	20632
899.753	20587
899.873	20651
899.993	20651
900.113	20549
900.232	20560
900.352	20476
900.472	20393
900.591	20393
900.711	20522
900.83	20351
900.95	20537
901.069	20446
901.189	20259
901.308	20081
901.427	19955
901.546	19974
901.665	19944
901.784	20103
901.904	19890
902.023	19814
902.141	19525
902.26	19453
902.379	19460
902.498	19346
902.617	19331
902.735	19556
902.854	19460
902.973	19377
903.091	19129
903.21	19069
903.328	19050
903.446	19034
903.565	18966
903.683	18973
903.801	18806
903.919	18776
904.038	18920
904.156	18700
904.274	18684
904.392	18730
904.51	18658
904.627	18661
904.745	18772
904.863	18574
904.981	18437
905.098	18414
905.216	18353
905.334	18304
905.451	18391
905.569	18376
905.686	18357
905.803	18342
905.921	18095
906.038	18281
906.155	18076
906.272	18102
906.389	18102
906.506	18038
906.623	17832
906.74	17847
906.857	17745
906.974	17786
907.091	17969
907.208	17977
907.324	17980
907.441	17699
907.557	17653
907.674	17589
907.79	17562
907.907	17573
908.023	17558
908.139	17566
908.256	17471
908.372	17478
908.488	17452
908.604	17341
908.72	17353
908.836	17299
908.952	17341
909.068	17193
909.184	17440
909.3	17303
909.415	17330
909.531	17242
909.647	16972
909.762	17033
909.878	16968
909.993	17006
910.108	17045
910.224	16972
910.339	17029
910.454	16858
910.57	16713
910.685	16790
910.8	17140
910.915	16911
911.03	16801
911.145	16592
911.259	16538
911.374	16630
911.489	16500
911.604	16417
911.718	16367
911.833	16314
911.947	16295
912.062	16188
912.176	16303
912.291	16246
912.405	16394
912.519	16481
912.633	16516
912.748	16413
912.862	16249
912.976	16188
913.09	16051
913.204	16166
913.318	16112
913.431	16226
913.545	16192
913.659	16310
913.772	16196
913.886	15998
914	15991
914.113	16036
914.226	15975
914.34	16010
914.453	15812
914.566	15949
914.68	15895
914.793	15823
914.906	15629
915.019	15526
915.132	15530
915.245	15523
915.358	15614
915.47	15488
915.583	15481
915.696	15515
915.809	15603
915.921	15591
916.034	15526
916.146	15469
916.259	15382
916.371	15462
916.483	15424
916.595	15408
916.708	15386
916.82	15340
916.932	15329
917.044	15325
917.156	15275
917.268	15154
917.38	15233
917.491	15097
917.603	15192
917.715	15226
917.826	15252
917.938	15157
918.049	14963
918.161	15024
918.272	15214
918.384	15260
918.495	15039
918.606	14941
918.717	14899
918.828	14975
918.939	14967
919.05	14887
919.161	14910
919.272	14644
919.383	14651
919.494	14902
919.604	15173
919.715	14963
919.826	14743
919.936	14785
920.047	14895
920.157	14777
920.267	15036
920.378	14899
920.488	14849
920.598	15089
920.708	15169
920.818	15058
920.928	15051
921.038	15188
921.148	15142
921.258	14845
921.368	14811
921.477	14640
921.587	14625
921.697	14590
921.806	14564
921.916	14434
922.025	14370
922.134	14301
922.244	14225
922.353	14237
922.462	14130
922.571	14001
922.68	13875
922.789	13879
922.898	13883
923.007	13833
923.116	13902
923.224	13780
923.333	13868
923.442	13693
923.55	13727
923.659	13693
923.767	13746
923.876	13689
923.984	13658
924.092	13727
924.201	13712
924.309	13639
924.417	13715
924.525	13575
924.633	13586
924.741	14252
924.849	13346
924.956	13411
925.064	13320
925.172	13255
925.279	13285
925.387	13225
925.494	13304
925.602	13384
925.709	13293
925.816	13141
925.924	13160
926.031	13354
926.138	13217
926.245	13270
926.352	13156
926.459	13194
926.566	13285
926.673	13179
926.779	13000
926.886	13099
926.993	12901
927.099	12844
927.206	12730
927.312	12760
927.419	12840
927.525	12817
927.631	12837
927.737	12768
927.843	12707
927.95	12616
928.056	12741
928.162	12745
928.267	12612
928.373	13400
928.479	12684
928.585	12452
928.69	12646
928.796	12513
928.901	12521
929.007	12410
929.112	12517
929.218	12498
929.323	12372
929.428	12296
929.533	12452
929.638	12361
929.743	12304
929.848	12418
929.953	12311
930.058	12159
930.163	11999
930.267	12095
930.372	12239
930.477	12026
930.581	12228
930.685	12102
930.79	11984
930.894	11958
930.998	11863
931.103	12038
931.207	11703
931.311	11558
931.415	11467
931.519	11372
931.623	11284
