Data from test_V78500241_1496.txt Node
Date: Fri Mar 25 15:52:09 CST 2022
User: usil
Spectrometer: V785-0024
Trigger mode: 0
Integration Time (sec): 4.000000E-1
Scans to average: 1
Nonlinearity correction enabled: false
Boxcar width: 0
Storing dark spectrum: false
XAxis mode: Wavelengths
Number of Pixels in Spectrum: 1024
>>>>>Begin Spectral Data<<<<<
801.071	27956
801.214	27998
801.356	27709
801.499	27511
801.641	27507
801.783	27469
801.926	27488
802.068	27454
802.211	27306
802.353	27252
802.496	27135
802.638	27214
802.78	27135
802.923	27085
803.065	26975
803.208	27062
803.35	27077
803.492	27176
803.635	27367
803.777	27211
803.919	27325
804.061	27637
804.204	27424
804.346	27252
804.488	27237
804.63	27264
804.773	27241
804.915	27355
805.057	27321
805.199	27317
805.341	27317
805.483	27572
805.626	27473
805.768	27332
805.91	27485
806.052	27530
806.194	27378
806.336	27591
806.478	27367
806.62	27481
806.762	27633
806.904	27797
807.046	28067
807.188	27949
807.33	27766
807.472	27968
807.614	27690
807.756	27949
807.898	27698
808.04	27884
808.182	27690
808.324	27747
808.465	27774
808.607	27987
808.749	28116
808.891	28219
809.033	28196
809.174	28200
809.316	28143
809.458	28101
809.6	27964
809.741	28147
809.883	28185
810.025	28611
810.166	28432
810.308	28375
810.45	28310
810.591	28230
810.733	28090
810.875	28276
811.016	28002
811.158	28010
811.299	28295
811.441	28303
811.582	28215
811.724	28067
811.865	28120
812.007	28025
812.148	28166
812.29	28139
812.431	28257
812.573	28409
812.714	28428
812.855	28634
812.997	28736
813.138	28824
813.279	28748
813.421	28744
813.562	28615
813.703	28504
813.845	28303
813.986	28074
814.127	27956
814.268	27679
814.41	27888
814.551	27800
814.692	27819
814.833	27652
814.974	27743
815.115	27827
815.256	27629
815.397	27797
815.539	27785
815.68	27523
815.821	27507
815.962	27557
816.103	27603
816.244	27351
816.385	27545
816.526	27397
816.666	27169
816.807	27043
816.948	27009
817.089	27180
817.23	27161
817.371	27032
817.512	26956
817.653	27108
817.793	27093
817.934	27062
818.075	27184
818.216	27142
818.356	27123
818.497	26940
818.638	26849
818.778	26929
818.919	26834
819.06	26895
819.2	27024
819.341	27161
819.481	27081
819.622	27055
819.762	27252
819.903	27283
820.043	27386
820.184	27226
820.324	27066
820.465	27127
820.605	27085
820.746	27154
820.886	27074
821.026	27283
821.167	27131
821.307	27138
821.447	26971
821.588	26887
821.728	26838
821.868	26651
822.008	26587
822.149	26484
822.289	26632
822.429	26343
822.569	26240
822.709	26218
822.849	26088
822.99	25989
823.13	26039
823.27	25986
823.41	25849
823.55	25822
823.69	25875
823.83	25890
823.97	25841
824.11	25780
824.25	25586
824.389	25620
824.529	25799
824.669	25746
824.809	25849
824.949	25685
825.089	25761
825.228	25814
825.368	25457
825.508	25563
825.648	25510
825.787	25586
825.927	25662
826.067	25567
826.206	25460
826.346	25510
826.485	25666
826.625	25658
826.765	25628
826.904	25719
827.044	25392
827.183	25411
827.323	25213
827.462	25373
827.601	25266
827.741	25400
827.88	25308
828.02	25145
828.159	25320
828.298	25327
828.437	25316
828.577	25259
828.716	25320
828.855	25209
828.994	25179
829.134	24989
829.273	25038
829.412	24954
829.551	24833
829.69	24928
829.829	24996
829.968	25148
830.107	25008
830.246	24928
830.385	24817
830.524	24817
830.663	24863
830.802	24700
830.941	24650
831.08	24471
831.219	24658
831.357	24570
831.496	24768
831.635	24498
831.774	24525
831.913	24429
832.051	24525
832.19	24380
832.329	24308
832.467	24235
832.606	24266
832.744	24197
832.883	24277
833.022	24174
833.16	24216
833.299	24174
833.437	24270
833.576	24235
833.714	24254
833.852	24399
833.991	24235
834.129	24342
834.267	24414
834.406	24407
834.544	24353
834.682	24353
834.821	24300
834.959	24475
835.097	24194
835.235	24338
835.373	24251
835.511	24136
835.65	24098
835.788	24190
835.926	24098
836.064	23901
836.202	24049
836.34	24235
836.478	24300
836.615	24049
836.753	24144
836.891	24254
837.029	24125
837.167	23980
837.305	24045
837.443	23969
837.58	23897
837.718	24083
837.856	24057
837.993	23942
838.131	23954
838.269	23764
838.406	23931
838.544	23847
838.681	23668
838.819	23634
838.956	23436
839.094	23376
839.231	23524
839.369	23714
839.506	23824
839.643	23649
839.781	23417
839.918	23391
840.055	23467
840.193	23467
840.33	23280
840.467	23326
840.604	23341
840.742	23615
840.879	23239
841.016	23315
841.153	23277
841.29	23539
841.427	23356
841.564	23261
841.701	23330
841.838	23330
841.975	23269
842.112	23284
842.249	23383
842.385	23105
842.522	23356
842.659	23296
842.796	23181
842.933	23067
843.069	23056
843.206	23109
843.343	23128
843.479	23029
843.616	23159
843.752	22908
843.889	22934
844.025	23003
844.162	22885
844.298	23041
844.435	22938
844.571	22862
844.708	22930
844.844	22999
844.98	22995
845.117	23048
845.253	22812
845.389	22782
845.525	22717
845.661	22790
845.798	22729
845.934	22641
846.07	22702
846.206	22691
846.342	22637
846.478	22527
846.614	22409
846.75	22295
846.886	22333
847.022	22379
847.158	22394
847.294	22268
847.429	22310
847.565	22268
847.701	22603
847.837	22124
847.972	22105
848.108	22177
848.244	22143
848.379	21899
848.515	21892
848.65	22002
848.786	21918
848.921	21941
849.057	22051
849.192	22074
849.328	22017
849.463	21842
849.598	22013
849.734	21694
849.869	21755
850.004	21759
850.14	21618
850.275	21701
850.41	21679
850.545	21576
850.68	21618
850.815	21667
850.95	21774
851.085	21907
851.22	21846
851.355	21739
851.49	21720
851.625	21633
851.76	21538
851.895	21694
852.03	21568
852.165	21713
852.299	21759
852.434	21789
852.569	21675
852.703	21629
852.838	21823
852.973	21785
853.107	21949
853.242	21701
853.376	21538
853.511	21405
853.645	21477
853.78	21671
853.914	21538
854.048	21420
854.183	21469
854.317	21511
854.451	21675
854.585	21622
854.72	21538
854.854	21644
854.988	21485
855.122	21633
855.256	21378
855.39	21530
855.524	21595
855.658	21614
855.792	21580
855.926	21553
856.06	21507
856.194	21663
856.327	21545
856.461	21458
856.595	21500
856.729	21488
856.862	21698
856.996	21633
857.13	21542
857.263	21610
857.397	21717
857.53	21515
857.664	21515
857.797	21686
857.931	21755
858.064	21538
858.197	21663
858.331	21473
858.464	21473
858.597	21420
858.731	21511
858.864	21553
858.997	21340
859.13	21644
859.263	21618
859.396	21648
859.529	21545
859.662	21523
859.795	21507
859.928	21572
860.061	21591
860.194	21614
860.327	21553
860.46	21473
860.592	21652
860.725	21599
860.858	21625
860.99	21530
861.123	21507
861.256	21408
861.388	21466
861.521	22143
861.653	21447
861.786	21325
861.918	21313
862.05	21477
862.183	21435
862.315	21450
862.447	21591
862.58	21306
862.712	21275
862.844	21233
862.976	21336
863.108	21287
863.24	21823
863.372	21260
863.504	21382
863.636	21081
863.768	21386
863.9	21264
864.032	21116
864.164	21340
864.296	21294
864.428	21325
864.559	21389
864.691	21310
864.823	21127
864.954	21287
865.086	21218
865.217	21173
865.349	21104
865.48	21127
865.612	21116
865.743	21313
865.875	21165
866.006	21066
866.137	21138
866.269	21100
866.4	21089
866.531	21138
866.662	21055
866.793	21032
866.924	21142
867.055	21157
867.186	21142
867.317	21096
867.448	21024
867.579	21001
867.71	21028
867.841	20994
867.972	21028
868.103	21028
868.233	21119
868.364	21039
868.495	21135
868.625	21336
868.756	21370
868.886	21355
869.017	21408
869.147	21504
869.278	21462
869.408	21397
869.539	21184
869.669	21348
869.799	21492
869.929	21481
870.06	21382
870.19	21568
870.32	21690
870.45	21728
870.58	21686
870.71	21747
870.84	21728
870.97	21781
871.1	21724
871.23	21831
871.36	21880
871.489	21846
871.619	21907
871.749	21972
871.879	21956
872.008	21975
872.138	21892
872.267	21835
872.397	21770
872.526	21713
872.656	21766
872.785	21717
872.915	21907
873.044	22017
873.173	21857
873.303	21968
873.432	21911
873.561	22021
873.69	21945
873.819	21956
873.948	22055
874.077	21975
874.206	21930
874.335	21880
874.464	22101
874.593	22143
874.722	22147
874.851	22215
874.979	22166
875.108	22230
875.237	22070
875.365	22090
875.494	22158
875.623	22230
875.751	22067
875.88	22097
876.008	22230
876.136	22371
876.265	22527
876.393	22752
876.521	22611
876.65	22592
876.778	22535
876.906	22500
877.034	22443
877.162	22428
877.29	22375
877.418	22603
877.546	22584
877.674	22455
877.802	22546
877.93	22542
878.058	22485
878.185	22546
878.313	22504
878.441	22546
878.568	22394
878.696	22481
878.824	22599
878.951	22668
879.079	22679
879.206	22797
879.333	22599
879.461	22611
879.588	22634
879.715	22512
879.842	22778
879.97	22554
880.097	22234
880.224	22287
880.351	22440
880.478	22367
880.605	22169
880.732	22352
880.859	22535
880.986	22360
881.112	22386
881.239	22322
881.366	21983
881.493	21972
881.619	21888
881.746	21892
881.872	21922
881.999	21876
882.125	21770
882.252	21876
882.378	21816
882.505	22074
882.631	21739
882.757	21656
882.883	21732
883.01	21549
883.136	21587
883.262	21576
883.388	21405
883.514	21625
883.64	21705
883.766	21572
883.892	21336
884.018	21405
884.143	21469
884.269	21576
884.395	21408
884.52	21195
884.646	21241
884.772	21142
884.897	21047
885.023	21188
885.148	21249
885.274	21428
885.399	21370
885.524	21218
885.65	21256
885.775	21131
885.9	21188
886.025	21416
886.15	21245
886.275	21241
886.4	21001
886.525	21119
886.65	21161
886.775	21127
886.9	21233
887.025	21359
887.149	21237
887.274	21081
887.399	21020
887.523	20982
887.648	20963
887.773	20929
887.897	21104
888.021	21055
888.146	20948
888.27	21142
888.395	21039
888.519	21066
888.643	20982
888.767	21070
888.891	20967
889.015	20712
889.139	20823
889.263	20777
889.387	20918
889.511	21058
889.635	20982
889.759	20765
889.883	20739
890.006	20796
890.13	20876
890.254	20735
890.377	20712
890.501	20689
890.624	20442
890.748	20632
890.871	20522
890.995	20404
891.118	20199
891.241	20423
891.364	20370
891.488	20423
891.611	20377
891.734	20355
891.857	20396
891.98	20366
892.103	20339
892.226	20423
892.349	20229
892.471	20202
892.594	20324
892.717	20256
892.839	20290
892.962	20195
893.085	20278
893.207	20305
893.33	20206
893.452	20237
893.575	20366
893.697	20225
893.819	20332
893.941	20381
894.064	20320
894.186	20237
894.308	20157
894.43	20248
894.552	20298
894.674	20370
894.796	20119
894.918	20221
895.04	20309
895.161	20320
895.283	20259
895.405	20332
895.526	20145
895.648	20328
895.769	20309
895.891	20199
896.012	20248
896.134	20358
896.255	20248
896.376	20225
896.498	20180
896.619	20396
896.74	20256
896.861	20396
896.982	20568
897.103	20758
897.224	20488
897.345	20560
897.466	20381
897.587	20457
897.708	20549
897.828	20461
897.949	20358
898.07	20305
898.19	20259
898.311	20484
898.431	20465
898.552	20370
898.672	20533
898.792	20476
898.913	20545
899.033	20282
899.153	20381
899.273	20218
899.393	20214
899.513	20096
899.633	20237
899.753	20328
899.873	20180
899.993	20377
900.113	20206
900.232	20206
900.352	20161
900.472	19997
900.591	20069
900.711	19902
900.83	19967
900.95	20005
901.069	20107
901.189	19780
901.308	19620
901.427	19693
901.546	19594
901.665	19613
901.784	19601
901.904	19430
902.023	19426
902.141	19118
902.26	19084
902.379	19350
902.498	19061
902.617	19110
902.735	19198
902.854	19069
902.973	19042
903.091	18829
903.21	18711
903.328	18768
903.446	18696
903.565	18635
903.683	18547
903.801	18536
903.919	18547
904.038	18498
904.156	18353
904.274	18429
904.392	18403
904.51	18311
904.627	18239
904.745	18304
904.863	18338
904.981	18148
905.098	18022
905.216	18083
905.334	18060
905.451	17969
905.569	17908
905.686	17999
905.803	18057
905.921	17836
906.038	17893
906.155	17790
906.272	17710
906.389	17707
906.506	17649
906.623	17505
906.74	17558
906.857	17410
906.974	17467
907.091	17532
907.208	17714
907.324	17501
907.441	17440
907.557	17326
907.674	17204
907.79	17242
907.907	17166
908.023	17296
908.139	17223
908.256	17277
908.372	17048
908.488	17212
908.604	17045
908.72	16881
908.836	17064
908.952	16965
909.068	17014
909.184	16995
909.3	16953
909.415	17022
909.531	16999
909.647	16698
909.762	16664
909.878	16577
909.993	16634
910.108	16687
910.224	16649
910.339	16565
910.454	16500
910.57	16459
910.685	16398
910.8	16603
910.915	16546
911.03	16485
911.145	16280
911.259	16318
911.374	16242
911.489	16322
911.604	16101
911.718	16044
911.833	16036
911.947	15895
912.062	15854
912.176	16032
912.291	16105
912.405	15953
912.519	16211
912.633	16063
912.748	15994
912.862	16010
912.976	15781
913.09	15778
913.204	15781
913.318	15876
913.431	15876
913.545	15880
913.659	15983
913.772	15694
913.886	15648
914	15603
914.113	15610
914.226	15732
914.34	15625
914.453	15466
914.566	15576
914.68	15553
914.793	15549
914.906	15313
915.019	15256
915.132	15070
915.245	15272
915.358	15260
915.47	15173
915.583	15230
915.696	15188
915.809	15287
915.921	15325
916.034	15188
916.146	15135
916.259	15017
916.371	15237
916.483	15142
916.595	15138
916.708	15051
916.82	15093
916.932	15085
917.044	15051
917.156	14960
917.268	14785
917.38	14902
917.491	14815
917.603	14800
917.715	14944
917.826	14952
917.938	14899
918.049	14739
918.161	14872
918.272	15039
918.384	14956
918.495	14826
918.606	14648
918.717	14644
918.828	14640
918.939	14731
919.05	14495
919.161	14598
919.272	14495
919.383	14518
919.494	14686
919.604	14834
919.715	14575
919.826	14377
919.936	14568
920.047	14651
920.157	14549
920.267	14758
920.378	14632
920.488	14651
920.598	14807
920.708	14842
920.818	14785
920.928	14701
921.038	14941
921.148	14754
921.258	14511
921.368	14454
921.477	14343
921.587	14343
921.697	14298
921.806	14294
921.916	14210
922.025	14111
922.134	13967
922.244	13894
922.353	14077
922.462	13772
922.571	13795
922.68	13689
922.789	13578
922.898	13586
923.007	13521
923.116	13738
923.224	13597
923.333	13639
923.442	13407
923.55	13373
923.659	13441
923.767	13483
923.876	13369
923.984	13460
924.092	13339
924.201	13381
924.309	13343
924.417	13308
924.525	13236
924.633	13225
924.741	14202
924.849	13042
924.956	13270
925.064	13110
925.172	12935
925.279	12977
925.387	13031
925.494	12973
925.602	13198
925.709	13126
925.816	12939
925.924	12935
926.031	13046
926.138	13080
926.245	12989
926.352	12897
926.459	12954
926.566	13019
926.673	12913
926.779	12669
926.886	12760
926.993	12703
927.099	12642
927.206	12563
927.312	12532
927.419	12589
927.525	12673
927.631	12616
927.737	12483
927.843	12445
927.95	12315
928.056	12429
928.162	12448
928.267	12403
928.373	13156
928.479	12547
928.585	12209
928.69	12372
928.796	12399
928.901	12289
929.007	12186
929.112	12330
929.218	12178
929.323	12178
929.428	12197
929.533	12277
929.638	12144
929.743	12114
929.848	12190
929.953	12053
930.058	11988
930.163	11840
930.267	11813
930.372	12007
930.477	11790
930.581	12011
930.685	11897
930.79	11691
930.894	11779
930.998	11661
931.103	11847
931.207	11429
931.311	11387
931.415	11277
931.519	11143
931.623	11052
