Data from test_V78500241_1303.txt Node
Date: Fri Mar 25 15:50:49 CST 2022
User: usil
Spectrometer: V785-0024
Trigger mode: 0
Integration Time (sec): 4.000000E-1
Scans to average: 1
Nonlinearity correction enabled: false
Boxcar width: 0
Storing dark spectrum: false
XAxis mode: Wavelengths
Number of Pixels in Spectrum: 1024
>>>>>Begin Spectral Data<<<<<
801.071	28440
801.214	28322
801.356	28169
801.499	28249
801.641	28063
801.783	27994
801.926	28021
802.068	28078
802.211	27968
802.353	27816
802.496	27656
802.638	27667
802.78	27698
802.923	27667
803.065	27564
803.208	27717
803.35	27709
803.492	27690
803.635	27865
803.777	27713
803.919	27747
804.061	28070
804.204	27880
804.346	27701
804.488	27728
804.63	27892
804.773	27755
804.915	27937
805.057	27937
805.199	27907
805.341	28002
805.483	27892
805.626	27968
805.768	27774
805.91	27964
806.052	27937
806.194	27953
806.336	28169
806.478	28101
806.62	28150
806.762	28021
806.904	28375
807.046	28447
807.188	28531
807.33	28337
807.472	28401
807.614	28466
807.756	28322
807.898	28242
808.04	28341
808.182	28413
808.324	28242
808.465	28436
808.607	28481
808.749	28550
808.891	28664
809.033	28900
809.174	28831
809.316	28744
809.458	28622
809.6	28637
809.741	28869
809.883	28885
810.025	28942
810.166	28980
810.308	29052
810.45	28908
810.591	28904
810.733	28691
810.875	28721
811.016	28649
811.158	28675
811.299	28816
811.441	28786
811.582	28965
811.724	28675
811.865	28649
812.007	28679
812.148	28752
812.29	28786
812.431	28915
812.573	29033
812.714	29128
812.855	29311
812.997	29162
813.138	29364
813.279	29292
813.421	29334
813.562	29292
813.703	29056
813.845	28911
813.986	28584
814.127	28508
814.268	28356
814.41	28470
814.551	28344
814.692	28497
814.833	28382
814.974	28257
815.115	28557
815.256	28344
815.397	28261
815.539	28360
815.68	28318
815.821	28196
815.962	28181
816.103	28261
816.244	27953
816.385	28063
816.526	28036
816.666	27831
816.807	27717
816.948	27739
817.089	27797
817.23	27831
817.371	27660
817.512	27842
817.653	27671
817.793	27561
817.934	27679
818.075	27610
818.216	27800
818.356	27755
818.497	27751
818.638	27408
818.778	27329
818.919	27447
819.06	27599
819.2	27652
819.341	27542
819.481	27690
819.622	27922
819.762	27994
819.903	27922
820.043	27842
820.184	27831
820.324	27808
820.465	27956
820.605	27964
820.746	27743
820.886	27793
821.026	27770
821.167	27778
821.307	27895
821.447	27857
821.588	27622
821.728	27492
821.868	27416
822.008	27291
822.149	27230
822.289	27256
822.429	26811
822.569	26933
822.709	26861
822.849	26781
822.99	26781
823.13	26754
823.27	26735
823.41	26488
823.55	26442
823.69	26606
823.83	26503
823.97	26541
824.11	26290
824.25	26259
824.389	26492
824.529	26526
824.669	26374
824.809	26670
824.949	26545
825.089	26571
825.228	26583
825.368	26119
825.508	26324
825.648	26309
825.787	26404
825.927	26248
826.067	26237
826.206	26199
826.346	26240
826.485	26305
826.625	26252
826.765	26514
826.904	26145
827.044	26050
827.183	26024
827.323	25932
827.462	26062
827.601	25902
827.741	25970
827.88	26145
828.02	25978
828.159	25997
828.298	26012
828.437	26058
828.577	25864
828.716	25913
828.855	25864
828.994	25655
829.134	25704
829.273	25841
829.412	25658
829.551	25605
829.69	25685
829.829	25712
829.968	25784
830.107	25704
830.246	25548
830.385	25620
830.524	25609
830.663	25438
830.802	25419
830.941	25145
831.08	25400
831.219	25419
831.357	25308
831.496	25499
831.635	25335
831.774	25198
831.913	25118
832.051	25114
832.19	25008
832.329	25042
832.467	25038
832.606	24962
832.744	24932
832.883	24890
833.022	24871
833.16	24905
833.299	25050
833.437	24924
833.576	25179
833.714	24992
833.852	25015
833.991	25099
834.129	25183
834.267	25175
834.406	24897
834.544	25034
834.682	25027
834.821	24932
834.959	25202
835.097	25213
835.235	24924
835.373	25000
835.511	25023
835.65	24810
835.788	24894
835.926	24711
836.064	24730
836.202	24665
836.34	24814
836.478	24913
836.615	24681
836.753	24783
836.891	24829
837.029	24848
837.167	24772
837.305	24753
837.443	24700
837.58	24738
837.718	24696
837.856	24798
837.993	24738
838.131	24635
838.269	24639
838.406	24589
838.544	24467
838.681	24376
838.819	24258
838.956	24110
839.094	24190
839.231	24152
839.369	24239
839.506	24498
839.643	24346
839.781	24152
839.918	24026
840.055	24216
840.193	24087
840.33	24117
840.467	24057
840.604	24117
840.742	24213
840.879	23969
841.016	24015
841.153	23847
841.29	24140
841.427	23916
841.564	24030
841.701	24038
841.838	24087
841.975	23923
842.112	23893
842.249	23946
842.385	23824
842.522	23946
842.659	23832
842.796	23653
842.933	23843
843.069	23805
843.206	23779
843.343	23786
843.479	23707
843.616	23786
843.752	23608
843.889	23516
844.025	23646
844.162	23463
844.298	23672
844.435	23566
844.571	23551
844.708	23684
844.844	23718
844.98	23775
845.117	23756
845.253	23562
845.389	23444
845.525	23436
845.661	23395
845.798	23292
845.934	23345
846.07	23246
846.206	23345
846.342	23463
846.478	23307
846.614	23056
846.75	22976
846.886	22938
847.022	23200
847.158	23060
847.294	22972
847.429	23090
847.565	23048
847.701	23280
847.837	22698
847.972	22626
848.108	22778
848.244	22759
848.379	22634
848.515	22596
848.65	22481
848.786	22557
848.921	22607
849.057	22668
849.192	22698
849.328	22489
849.463	22580
849.598	22481
849.734	22535
849.869	22443
850.004	22322
850.14	22322
850.275	22356
850.41	22219
850.545	22314
850.68	22348
850.815	22394
850.95	22310
851.085	22573
851.22	22489
851.355	22337
851.49	22280
851.625	22310
851.76	22322
851.895	22291
852.03	22188
852.165	22379
852.299	22462
852.434	22455
852.569	22363
852.703	22432
852.838	22344
852.973	22481
853.107	22489
853.242	22314
853.376	22230
853.511	22029
853.645	22257
853.78	22257
853.914	22276
854.048	22101
854.183	22124
854.317	22135
854.451	22386
854.585	22162
854.72	22131
854.854	22211
854.988	22226
855.122	22299
855.256	22063
855.39	22188
855.524	22238
855.658	22257
855.792	22181
855.926	22207
856.06	22219
856.194	22261
856.327	22162
856.461	22017
856.595	22097
856.729	22078
856.862	22303
856.996	22246
857.13	22363
857.263	22306
857.397	22234
857.53	22124
857.664	22306
857.797	22082
857.931	22280
858.064	22200
858.197	22303
858.331	22143
858.464	22230
858.597	21991
858.731	22188
858.864	22116
858.997	22124
859.13	22116
859.263	22131
859.396	22402
859.529	22150
859.662	22082
859.795	22131
859.928	22185
860.061	22352
860.194	22421
860.327	22303
860.46	22063
860.592	22238
860.725	22303
860.858	22348
860.99	22154
861.123	22029
861.256	22177
861.388	22246
861.521	22828
861.653	22025
861.786	21911
861.918	21884
862.05	22162
862.183	22070
862.315	22169
862.447	22135
862.58	22169
862.712	21899
862.844	21713
862.976	21880
863.108	22006
863.24	22272
863.372	21743
863.504	21831
863.636	21899
863.768	21998
863.9	21911
864.032	21895
864.164	21800
864.296	21994
864.428	21956
864.559	22124
864.691	21865
864.823	21857
864.954	21831
865.086	21770
865.217	21770
865.349	21728
865.48	21759
865.612	21899
865.743	21934
865.875	21850
866.006	21637
866.137	21850
866.269	21903
866.4	21724
866.531	21717
866.662	21751
866.793	21759
866.924	21625
867.055	21720
867.186	21705
867.317	21720
867.448	21732
867.579	21736
867.71	21572
867.841	21580
867.972	21667
868.103	21732
868.233	21671
868.364	21679
868.495	21774
868.625	21907
868.756	22048
868.886	21865
869.017	21884
869.147	21975
869.278	22112
869.408	21998
869.539	21941
869.669	21972
869.799	21956
869.929	21994
870.06	21899
870.19	22314
870.32	22230
870.45	22329
870.58	22246
870.71	22398
870.84	22424
870.97	22284
871.1	22409
871.23	22485
871.36	22569
871.489	22428
871.619	22398
871.749	22531
871.879	22421
872.008	22565
872.138	22516
872.267	22546
872.397	22462
872.526	22223
872.656	22443
872.785	22413
872.915	22557
873.044	22592
873.173	22519
873.303	22626
873.432	22679
873.561	22557
873.69	22622
873.819	22546
873.948	22618
874.077	22615
874.206	22470
874.335	22535
874.464	22653
874.593	22786
874.722	22580
874.851	22809
874.979	22733
875.108	22900
875.237	22611
875.365	22767
875.494	22653
875.623	22839
875.751	22736
875.88	22698
876.008	22980
876.136	22771
876.265	23128
876.393	23242
876.521	23143
876.65	23265
876.778	23170
876.906	23010
877.034	23006
877.162	23162
877.29	22957
877.418	23117
877.546	23140
877.674	23071
877.802	23162
877.93	23170
878.058	22972
878.185	23109
878.313	22999
878.441	23086
878.568	22862
878.696	23052
878.824	23075
878.951	23193
879.079	23181
879.206	23353
879.333	23292
879.461	23064
879.588	23155
879.715	23231
879.842	23364
879.97	23166
880.097	22915
880.224	22869
880.351	22877
880.478	22923
880.605	22900
880.732	22934
880.859	23109
880.986	22980
881.112	22919
881.239	22767
881.366	22694
881.493	22512
881.619	22656
881.746	22542
881.872	22565
881.999	22424
882.125	22554
882.252	22569
882.378	22344
882.505	22653
882.631	22360
882.757	22139
882.883	22265
883.01	22185
883.136	22253
883.262	22147
883.388	22017
883.514	22055
883.64	22135
883.766	22010
883.892	21979
884.018	22040
884.143	22158
884.269	22185
884.395	21869
884.52	21732
884.646	21732
884.772	21728
884.897	21747
885.023	21793
885.148	21979
885.274	21892
885.399	21831
885.524	21736
885.65	21880
885.775	21766
885.9	21785
886.025	21915
886.15	21895
886.275	21911
886.4	21713
886.525	21774
886.65	21717
886.775	21663
886.9	21918
887.025	21994
887.149	21823
887.274	21610
887.399	21595
887.523	21515
887.648	21504
887.773	21553
887.897	21656
888.021	21675
888.146	21618
888.27	21599
888.395	21641
888.519	21698
888.643	21450
888.767	21572
888.891	21386
889.015	21325
889.139	21408
889.263	21336
889.387	21496
889.511	21587
889.635	21492
889.759	21279
889.883	21378
890.006	21275
890.13	21466
890.254	21279
890.377	21192
890.501	20975
890.624	21055
890.748	21203
890.871	20979
890.995	20982
891.118	20864
891.241	20872
891.364	20914
891.488	21062
891.611	21058
891.734	20933
891.857	20830
891.98	20853
892.103	20998
892.226	20891
892.349	20845
892.471	20769
892.594	20758
892.717	20792
892.839	20750
892.962	20880
893.085	20830
893.207	20769
893.33	20785
893.452	20678
893.575	20929
893.697	20845
893.819	20933
893.941	21074
894.064	20899
894.186	20815
894.308	20773
894.43	20853
894.552	20948
894.674	20963
894.796	20731
894.918	20887
895.04	20693
895.161	20899
895.283	20849
895.405	20705
895.526	20712
895.648	20861
895.769	20739
895.891	20800
896.012	20788
896.134	20796
896.255	20861
896.376	20762
896.498	20689
896.619	20724
896.74	20842
896.861	20895
896.982	21127
897.103	21332
897.224	21036
897.345	20982
897.466	20963
897.587	21005
897.708	21055
897.828	21039
897.949	20906
898.07	20777
898.19	21032
898.311	21047
898.431	20975
898.552	20941
898.672	20902
898.792	21020
898.913	21081
899.033	20838
899.153	20769
899.273	20682
899.393	20678
899.513	20720
899.633	20648
899.753	20724
899.873	20720
899.993	20754
900.113	20587
900.232	20590
900.352	20518
900.472	20507
900.591	20469
900.711	20415
900.83	20423
900.95	20613
901.069	20587
901.189	20290
901.308	20142
901.427	20111
901.546	20161
901.665	20077
901.784	20096
901.904	20020
902.023	19811
902.141	19590
902.26	19590
902.379	19719
902.498	19586
902.617	19582
902.735	19643
902.854	19620
902.973	19434
903.091	19228
903.21	19141
903.328	19228
903.446	19114
903.565	19019
903.683	19080
903.801	18916
903.919	18989
904.038	18958
904.156	18768
904.274	18894
904.392	18814
904.51	18757
904.627	18783
904.745	18779
904.863	18909
904.981	18654
905.098	18490
905.216	18483
905.334	18513
905.451	18536
905.569	18388
905.686	18414
905.803	18486
905.921	18228
906.038	18441
906.155	18239
906.272	18076
906.389	18083
906.506	17942
906.623	18057
906.74	17923
906.857	17847
906.974	17935
907.091	18087
907.208	18125
907.324	18095
907.441	17920
907.557	17805
907.674	17760
907.79	17630
907.907	17707
908.023	17726
908.139	17741
908.256	17592
908.372	17585
908.488	17566
908.604	17505
908.72	17391
908.836	17482
908.952	17417
909.068	17452
909.184	17558
909.3	17433
909.415	17478
909.531	17448
909.647	17143
909.762	17128
909.878	17079
909.993	17147
910.108	17018
910.224	17003
910.339	17140
910.454	17079
910.57	16862
910.685	16828
910.8	17121
910.915	17060
911.03	16869
911.145	16694
911.259	16717
911.374	16691
911.489	16603
911.604	16691
911.718	16451
911.833	16527
911.947	16375
912.062	16299
912.176	16405
912.291	16443
912.405	16569
912.519	16691
912.633	16577
912.748	16493
912.862	16409
912.976	16223
913.09	16166
913.204	16238
913.318	16158
913.431	16337
913.545	16295
913.659	16253
913.772	16246
913.886	16059
914	16063
914.113	16086
914.226	16226
914.34	16135
914.453	15846
914.566	16131
914.68	15922
914.793	15899
914.906	15778
915.019	15652
915.132	15561
915.245	15682
915.358	15732
915.47	15667
915.583	15717
915.696	15679
915.809	15713
915.921	15720
916.034	15568
916.146	15534
916.259	15504
916.371	15606
916.483	15660
916.595	15504
916.708	15439
916.82	15469
916.932	15458
917.044	15420
917.156	15370
917.268	15355
917.38	15298
917.491	15294
917.603	15355
917.715	15344
917.826	15332
917.938	15157
918.049	15077
918.161	15192
918.272	15302
918.384	15317
918.495	15211
918.606	15089
918.717	14967
918.828	15017
918.939	15036
919.05	14861
919.161	15001
919.272	14773
919.383	14857
919.494	15062
919.604	15268
919.715	14979
919.826	14842
919.936	14998
920.047	15020
920.157	14998
920.267	15173
920.378	14948
920.488	14921
920.598	15142
920.708	15230
920.818	15074
920.928	15077
921.038	15283
921.148	15245
921.258	14933
921.368	14845
921.477	14701
921.587	14568
921.697	14590
921.806	14731
921.916	14511
922.025	14419
922.134	14286
922.244	14351
922.353	14282
922.462	14233
922.571	14145
922.68	14084
922.789	14035
922.898	13932
923.007	13951
923.116	13955
923.224	13951
923.333	13871
923.442	13826
923.55	13879
923.659	13795
923.767	13784
923.876	13837
923.984	13757
924.092	13651
924.201	13738
924.309	13666
924.417	13746
924.525	13578
924.633	13609
924.741	14522
924.849	13377
924.956	13590
925.064	13430
925.172	13384
925.279	13358
925.387	13362
925.494	13312
925.602	13491
925.709	13377
925.816	13232
925.924	13316
926.031	13388
926.138	13350
926.245	13400
926.352	13202
926.459	13297
926.566	13327
926.673	13232
926.779	13137
926.886	13076
926.993	12939
927.099	12859
927.206	12901
927.312	12882
927.419	12970
927.525	12882
927.631	12973
927.737	12696
927.843	12692
927.95	12620
928.056	12703
928.162	12745
928.267	12749
928.373	13209
928.479	12859
928.585	12627
928.69	12726
928.796	12692
928.901	12544
929.007	12380
929.112	12623
929.218	12445
929.323	12464
929.428	12483
929.533	12582
929.638	12429
929.743	12433
929.848	12357
929.953	12456
930.058	12323
930.163	12129
930.267	12205
930.372	12209
930.477	12060
930.581	12433
930.685	12171
930.79	12114
930.894	12034
930.998	12064
931.103	12152
931.207	11748
931.311	11703
931.415	11497
931.519	11379
931.623	11391
