Data from test_V78500241_3163.txt Node
Date: Fri Mar 25 16:03:42 CST 2022
User: usil
Spectrometer: V785-0024
Trigger mode: 0
Integration Time (sec): 4.000000E-1
Scans to average: 1
Nonlinearity correction enabled: false
Boxcar width: 0
Storing dark spectrum: false
XAxis mode: Wavelengths
Number of Pixels in Spectrum: 1024
>>>>>Begin Spectral Data<<<<<
801.071	28173
801.214	28013
801.356	27876
801.499	27873
801.641	27713
801.783	27709
801.926	27774
802.068	27766
802.211	27660
802.353	27610
802.496	27454
802.638	27401
802.78	27321
802.923	27287
803.065	27313
803.208	27195
803.35	27466
803.492	27519
803.635	27549
803.777	27397
803.919	27667
804.061	27793
804.204	27618
804.346	27523
804.488	27481
804.63	27557
804.773	27363
804.915	27515
805.057	27732
805.199	27545
805.341	27583
805.483	27747
805.626	27705
805.768	27485
805.91	27781
806.052	27895
806.194	27648
806.336	27778
806.478	27739
806.62	27637
806.762	27899
806.904	27975
807.046	28101
807.188	28207
807.33	28135
807.472	28029
807.614	28128
807.756	28173
807.898	27979
808.04	27892
808.182	27914
808.324	27873
808.465	28017
808.607	28116
808.749	28371
808.891	28474
809.033	28508
809.174	28390
809.316	28257
809.458	28421
809.6	28150
809.741	28405
809.883	28485
810.025	28615
810.166	28778
810.308	28679
810.45	28672
810.591	28561
810.733	28489
810.875	28390
811.016	28322
811.158	28188
811.299	28356
811.441	28603
811.582	28497
811.724	28394
811.865	28253
812.007	28272
812.148	28348
812.29	28417
812.431	28573
812.573	28702
812.714	28675
812.855	28763
812.997	28984
813.138	29052
813.279	29018
813.421	28892
813.562	28850
813.703	28694
813.845	28653
813.986	28405
814.127	28158
814.268	28048
814.41	28120
814.551	28025
814.692	28135
814.833	28139
814.974	28002
815.115	28055
815.256	27964
815.397	27911
815.539	28010
815.68	27934
815.821	27755
815.962	27774
816.103	28029
816.244	27618
816.385	27736
816.526	27526
816.666	27462
816.807	27321
816.948	27462
817.089	27332
817.23	27287
817.371	27302
817.512	27363
817.653	27340
817.793	27237
817.934	27294
818.075	27374
818.216	27306
818.356	27306
818.497	27207
818.638	27039
818.778	27135
818.919	27017
819.06	27028
819.2	27256
819.341	27241
819.481	27321
819.622	27435
819.762	27709
819.903	27485
820.043	27485
820.184	27443
820.324	27351
820.465	27515
820.605	27526
820.746	27188
820.886	27401
821.026	27530
821.167	27332
821.307	27450
821.447	27348
821.588	27275
821.728	27112
821.868	26963
822.008	26857
822.149	26891
822.289	26754
822.429	26587
822.569	26549
822.709	26438
822.849	26366
822.99	26301
823.13	26286
823.27	26282
823.41	26229
823.55	26134
823.69	26248
823.83	26252
823.97	26233
824.11	26054
824.25	25856
824.389	25887
824.529	25947
824.669	25921
824.809	26107
824.949	25986
825.089	26100
825.228	25982
825.368	25791
825.508	25811
825.648	25826
825.787	25734
825.927	25860
826.067	25826
826.206	25845
826.346	25898
826.485	25955
826.625	25833
826.765	25864
826.904	25890
827.044	25601
827.183	25666
827.323	25575
827.462	25651
827.601	25613
827.741	25628
827.88	25548
828.02	25396
828.159	25556
828.298	25449
828.437	25548
828.577	25438
828.716	25556
828.855	25571
828.994	25255
829.134	25384
829.273	25335
829.412	25304
829.551	25145
829.69	25415
829.829	25320
829.968	25244
830.107	25217
830.246	25289
830.385	25084
830.524	25069
830.663	25122
830.802	24882
830.941	24882
831.08	24844
831.219	24810
831.357	24939
831.496	25015
831.635	24882
831.774	24688
831.913	24802
832.051	24696
832.19	24711
832.329	24669
832.467	24661
832.606	24467
832.744	24433
832.883	24410
833.022	24589
833.16	24388
833.299	24509
833.437	24570
833.576	24551
833.714	24486
833.852	24700
833.991	24589
834.129	24661
834.267	24692
834.406	24730
834.544	24547
834.682	24544
834.821	24555
834.959	24779
835.097	24532
835.235	24578
835.373	24494
835.511	24502
835.65	24448
835.788	24422
835.926	24243
836.064	24277
836.202	24243
836.34	24365
836.478	24433
836.615	24414
836.753	24452
836.891	24460
837.029	24460
837.167	24300
837.305	24292
837.443	24266
837.58	24251
837.718	24152
837.856	24213
837.993	24262
838.131	24182
838.269	24057
838.406	24239
838.544	24041
838.681	23832
838.819	23866
838.956	23771
839.094	23760
839.231	23840
839.369	23927
839.506	24144
839.643	23897
839.781	23767
839.918	23668
840.055	23729
840.193	23611
840.33	23623
840.467	23592
840.604	23642
840.742	23874
840.879	23589
841.016	23528
841.153	23672
841.29	23714
841.427	23608
841.564	23581
841.701	23558
841.838	23566
841.975	23509
842.112	23558
842.249	23448
842.385	23368
842.522	23585
842.659	23444
842.796	23402
842.933	23398
843.069	23341
843.206	23360
843.343	23433
843.479	23273
843.616	23303
843.752	23246
843.889	23124
844.025	23303
844.162	23189
844.298	23254
844.435	23102
844.571	23029
844.708	23075
844.844	23269
844.98	23296
845.117	23204
845.253	23128
845.389	22942
845.525	23071
845.661	23014
845.798	23006
845.934	22850
846.07	22801
846.206	22900
846.342	22980
846.478	22812
846.614	22675
846.75	22516
846.886	22607
847.022	22721
847.158	22706
847.294	22580
847.429	22645
847.565	22755
847.701	22934
847.837	22284
847.972	22299
848.108	22443
848.244	22485
848.379	22367
848.515	22116
848.65	22044
848.786	22143
848.921	22246
849.057	22181
849.192	22379
849.328	22287
849.463	22196
849.598	22166
849.734	22021
849.869	22032
850.004	22051
850.14	22086
850.275	22002
850.41	21785
850.545	21953
850.68	21949
850.815	21899
850.95	22070
851.085	22109
851.22	22116
851.355	22010
851.49	21987
851.625	22021
851.76	21941
851.895	21800
852.03	21918
852.165	22067
852.299	21987
852.434	22070
852.569	21983
852.703	22029
852.838	21987
852.973	22093
853.107	22093
853.242	21903
853.376	21918
853.511	21656
853.645	21755
853.78	21911
853.914	21827
854.048	21812
854.183	21831
854.317	21865
854.451	21972
854.585	21911
854.72	21800
854.854	21888
854.988	21633
855.122	21808
855.256	21766
855.39	21873
855.524	21880
855.658	21838
855.792	21819
855.926	21827
856.06	21880
856.194	21880
856.327	21755
856.461	21656
856.595	21705
856.729	21835
856.862	21937
856.996	21751
857.13	21903
857.263	21892
857.397	21937
857.53	21766
857.664	21736
857.797	21770
857.931	21998
858.064	21846
858.197	21953
858.331	21739
858.464	21747
858.597	21743
858.731	21728
858.864	21633
858.997	21720
859.13	21861
859.263	21713
859.396	21854
859.529	21781
859.662	21690
859.795	21701
859.928	21861
860.061	22147
860.194	21922
860.327	21846
860.46	21842
860.592	21949
860.725	21846
860.858	21873
860.99	21751
861.123	21713
861.256	21770
861.388	21785
861.521	22424
861.653	21663
861.786	21652
861.918	21618
862.05	21705
862.183	21728
862.315	21724
862.447	21800
862.58	21622
862.712	21583
862.844	21500
862.976	21542
863.108	21583
863.24	21895
863.372	21435
863.504	21511
863.636	21553
863.768	21618
863.9	21564
864.032	21526
864.164	21492
864.296	21431
864.428	21610
864.559	21610
864.691	21492
864.823	21549
864.954	21416
865.086	21367
865.217	21408
865.349	21355
865.48	21545
865.612	21351
865.743	21511
865.875	21538
866.006	21298
866.137	21321
866.269	21405
866.4	21386
866.531	21340
866.662	21408
866.793	21260
866.924	21329
867.055	21363
867.186	21389
867.317	21344
867.448	21294
867.579	21260
867.71	21207
867.841	21222
867.972	21348
868.103	21382
868.233	21287
868.364	21325
868.495	21447
868.625	21549
868.756	21667
868.886	21435
869.017	21500
869.147	21641
869.278	21667
869.408	21603
869.539	21614
869.669	21622
869.799	21606
869.929	21717
870.06	21743
870.19	21869
870.32	22025
870.45	21926
870.58	22139
870.71	22025
870.84	22112
870.97	21964
871.1	21968
871.23	22204
871.36	22192
871.489	22070
871.619	22120
871.749	22234
871.879	22230
872.008	22344
872.138	22230
872.267	22147
872.397	22242
872.526	21987
872.656	22078
872.785	22116
872.915	22173
873.044	22200
873.173	22284
873.303	22379
873.432	22306
873.561	22318
873.69	22162
873.819	22185
873.948	22413
874.077	22169
874.206	22169
874.335	22295
874.464	22291
874.593	22371
874.722	22417
874.851	22398
874.979	22371
875.108	22485
875.237	22447
875.365	22344
875.494	22386
875.623	22569
875.751	22287
875.88	22318
876.008	22474
876.136	22603
876.265	22767
876.393	23071
876.521	22915
876.65	22961
876.778	22946
876.906	22733
877.034	22854
877.162	22759
877.29	22649
877.418	22725
877.546	22812
877.674	22786
877.802	22691
877.93	22759
878.058	22744
878.185	22607
878.313	22725
878.441	22725
878.568	22500
878.696	22561
878.824	22786
878.951	22835
879.079	22949
879.206	23086
879.333	22812
879.461	22877
879.588	22869
879.715	22953
879.842	23105
879.97	22812
880.097	22645
880.224	22447
880.351	22653
880.478	22622
880.605	22500
880.732	22596
880.859	22858
880.986	22470
881.112	22660
881.239	22462
881.366	22367
881.493	22272
881.619	22154
881.746	22207
881.872	22261
881.999	21991
882.125	22105
882.252	22097
882.378	22135
882.505	22242
882.631	22074
882.757	21717
882.883	21945
883.01	21888
883.136	21701
883.262	21804
883.388	21625
883.514	21766
883.64	21865
883.766	21789
883.892	21724
884.018	21679
884.143	21819
884.269	21903
884.395	21580
884.52	21519
884.646	21481
884.772	21519
884.897	21507
885.023	21416
885.148	21568
885.274	21648
885.399	21576
885.524	21526
885.65	21435
885.775	21496
885.9	21477
886.025	21568
886.15	21622
886.275	21534
886.4	21359
886.525	21572
886.65	21439
886.775	21367
886.9	21526
887.025	21690
887.149	21454
887.274	21351
887.399	21237
887.523	21272
887.648	21150
887.773	21154
887.897	21340
888.021	21237
888.146	21211
888.27	21310
888.395	21313
888.519	21207
888.643	21268
888.767	21192
888.891	21066
889.015	21001
889.139	21089
889.263	21047
889.387	21222
889.511	21287
889.635	21081
889.759	20986
889.883	21013
890.006	20979
890.13	21116
890.254	21005
890.377	21024
890.501	20735
890.624	20777
890.748	20842
890.871	20670
890.995	20682
891.118	20511
891.241	20625
891.364	20590
891.488	20792
891.611	20602
891.734	20693
891.857	20701
891.98	20640
892.103	20674
892.226	20583
892.349	20522
892.471	20320
892.594	20522
892.717	20640
892.839	20507
892.962	20461
893.085	20583
893.207	20454
893.33	20446
893.452	20366
893.575	20549
893.697	20560
893.819	20625
893.941	20686
894.064	20579
894.186	20408
894.308	20446
894.43	20613
894.552	20716
894.674	20537
894.796	20511
894.918	20446
895.04	20473
895.161	20640
895.283	20670
895.405	20446
895.526	20541
895.648	20552
895.769	20427
895.891	20522
896.012	20617
896.134	20511
896.255	20488
896.376	20476
896.498	20549
896.619	20663
896.74	20514
896.861	20609
896.982	20609
897.103	20880
897.224	20769
897.345	20758
897.466	20644
897.587	20724
897.708	20800
897.828	20689
897.949	20552
898.07	20503
898.19	20644
898.311	20758
898.431	20602
898.552	20670
898.672	20792
898.792	20765
898.913	20708
899.033	20552
899.153	20552
899.273	20389
899.393	20484
899.513	20488
899.633	20465
899.753	20351
899.873	20457
899.993	20465
900.113	20381
900.232	20457
900.352	20442
900.472	20286
900.591	20107
900.711	20286
900.83	20172
900.95	20259
901.069	20233
901.189	20084
901.308	20039
901.427	19753
901.546	19925
901.665	19864
901.784	19822
901.904	19658
902.023	19613
902.141	19362
902.26	19434
902.379	19445
902.498	19324
902.617	19255
902.735	19358
902.854	19373
902.973	19236
903.091	19065
903.21	18920
903.328	19008
903.446	18882
903.565	18825
903.683	18814
903.801	18711
903.919	18757
904.038	18734
904.156	18658
904.274	18623
904.392	18555
904.51	18445
904.627	18513
904.745	18684
904.863	18616
904.981	18452
905.098	18270
905.216	18319
905.334	18186
905.451	18281
905.569	18228
905.686	18232
905.803	18330
905.921	17988
906.038	18133
906.155	18064
906.272	17923
906.389	17920
906.506	17809
906.623	17741
906.74	17748
906.857	17676
906.974	17653
907.091	17828
907.208	17767
907.324	17851
907.441	17551
907.557	17471
907.674	17455
907.79	17433
907.907	17356
908.023	17509
908.139	17433
908.256	17406
908.372	17402
908.488	17307
908.604	17322
908.72	17155
908.836	17227
908.952	17193
909.068	17299
909.184	17273
909.3	17155
909.415	17132
909.531	17147
909.647	16999
909.762	16991
909.878	16854
909.993	16881
910.108	16771
910.224	16812
910.339	16828
910.454	16797
910.57	16675
910.685	16653
910.8	16774
910.915	16771
911.03	16755
911.145	16535
911.259	16459
911.374	16519
911.489	16470
911.604	16325
911.718	16238
911.833	16226
911.947	15987
912.062	16105
912.176	16246
912.291	16188
912.405	16257
912.519	16398
912.633	16329
912.748	16207
912.862	16147
912.976	16112
913.09	15865
913.204	15964
913.318	16021
913.431	16071
913.545	16124
913.659	16135
913.772	16040
913.886	15816
914	15876
914.113	15956
914.226	15846
914.34	15880
914.453	15778
914.566	15892
914.68	15690
914.793	15701
914.906	15450
915.019	15454
915.132	15389
915.245	15389
915.358	15523
915.47	15435
915.583	15431
915.696	15462
915.809	15504
915.921	15500
916.034	15367
916.146	15348
916.259	15279
916.371	15408
916.483	15363
916.595	15287
916.708	15268
916.82	15317
916.932	15165
917.044	15218
917.156	15013
917.268	15036
917.38	15131
917.491	15020
917.603	15070
917.715	15138
917.826	15165
917.938	15013
918.049	14941
918.161	15039
918.272	15157
918.384	15017
918.495	14986
918.606	14842
918.717	14785
918.828	14697
918.939	14849
919.05	14796
919.161	14845
919.272	14560
919.383	14659
919.494	14758
919.604	14933
919.715	14819
919.826	14743
919.936	14819
920.047	14830
920.157	14815
920.267	14944
920.378	14804
920.488	14670
920.598	14956
920.708	14990
920.818	14883
920.928	14872
921.038	14956
921.148	15001
921.258	14762
921.368	14686
921.477	14499
921.587	14537
921.697	14320
921.806	14564
921.916	14339
922.025	14168
922.134	14221
922.244	14123
922.353	14115
922.462	14031
922.571	13947
922.68	13906
922.789	13731
922.898	13742
923.007	13776
923.116	13738
923.224	13811
923.333	13795
923.442	13658
923.55	13609
923.659	13567
923.767	13582
923.876	13601
923.984	13696
924.092	13464
924.201	13514
924.309	13548
924.417	13514
924.525	13362
924.633	13415
924.741	14199
924.849	13209
924.956	13339
925.064	13232
925.172	13126
925.279	13179
925.387	13156
925.494	13072
925.602	13343
925.709	13183
925.816	13110
925.924	13099
926.031	13217
926.138	13084
926.245	13149
926.352	13008
926.459	13099
926.566	13145
926.673	13069
926.779	12840
926.886	12882
926.993	12776
927.099	12711
927.206	12745
927.312	12669
927.419	12730
927.525	12753
927.631	12776
927.737	12635
927.843	12563
927.95	12479
928.056	12513
928.162	12604
928.267	12593
928.373	13270
928.479	12631
928.585	12384
928.69	12490
928.796	12498
928.901	12403
929.007	12262
929.112	12410
929.218	12369
929.323	12384
929.428	12228
929.533	12403
929.638	12232
929.743	12270
929.848	12342
929.953	12258
930.058	12136
930.163	11912
930.267	12007
930.372	12178
930.477	11901
930.581	12262
930.685	11984
930.79	11813
930.894	11954
930.998	11870
931.103	11992
931.207	11642
931.311	11570
931.415	11459
931.519	11337
931.623	11261
