Data from test_V78500241_3021.txt Node
Date: Fri Mar 25 16:02:43 CST 2022
User: usil
Spectrometer: V785-0024
Trigger mode: 0
Integration Time (sec): 4.000000E-1
Scans to average: 1
Nonlinearity correction enabled: false
Boxcar width: 0
Storing dark spectrum: false
XAxis mode: Wavelengths
Number of Pixels in Spectrum: 1024
>>>>>Begin Spectral Data<<<<<
801.071	28706
801.214	28569
801.356	28367
801.499	28451
801.641	28432
801.783	28363
801.926	28341
802.068	28249
802.211	28337
802.353	28196
802.496	28067
802.638	28044
802.78	28109
802.923	28021
803.065	27991
803.208	27972
803.35	28051
803.492	28143
803.635	28238
803.777	28147
803.919	28352
804.061	28565
804.204	28379
804.346	28207
804.488	28314
804.63	28242
804.773	28185
804.915	28344
805.057	28401
805.199	28257
805.341	28413
805.483	28455
805.626	28314
805.768	28295
805.91	28478
806.052	28310
806.194	28367
806.336	28622
806.478	28386
806.62	28500
806.762	28675
806.904	28702
807.046	29006
807.188	28835
807.33	28987
807.472	28904
807.614	28980
807.756	28786
807.898	28740
808.04	28485
808.182	28618
808.324	28748
808.465	28839
808.607	29029
808.749	29143
808.891	29174
809.033	29178
809.174	29318
809.316	29143
809.458	29162
809.6	28976
809.741	29208
809.883	29296
810.025	29383
810.166	29326
810.308	29497
810.45	29368
810.591	29265
810.733	29223
810.875	29064
811.016	29056
811.158	29083
811.299	29235
811.441	29296
811.582	29326
811.724	29220
811.865	29117
812.007	29102
812.148	29094
812.29	29197
812.431	29231
812.573	29535
812.714	29630
812.855	29638
812.997	29798
813.138	29821
813.279	29847
813.421	29657
813.562	29627
813.703	29570
813.845	29455
813.986	29189
814.127	28965
814.268	28984
814.41	28923
814.551	28900
814.692	29018
814.833	28793
814.974	28843
815.115	28847
815.256	28706
815.397	28790
815.539	28691
815.68	28668
815.821	28698
815.962	28683
816.103	28740
816.244	28603
816.385	28462
816.526	28504
816.666	28375
816.807	28211
816.948	28242
817.089	28215
817.23	28135
817.371	28067
817.512	28101
817.653	28223
817.793	28158
817.934	28276
818.075	28207
818.216	28246
818.356	28135
818.497	28048
818.638	27789
818.778	27987
818.919	28036
819.06	28051
819.2	28105
819.341	28234
819.481	28257
819.622	28390
819.762	28542
819.903	28356
820.043	28329
820.184	28379
820.324	28268
820.465	28390
820.605	28360
820.746	28268
820.886	28246
821.026	28276
821.167	28169
821.307	28257
821.447	28223
821.588	28177
821.728	28101
821.868	27800
822.008	27701
822.149	27698
822.289	27679
822.429	27393
822.569	27443
822.709	27405
822.849	27142
822.99	27237
823.13	27279
823.27	27294
823.41	27074
823.55	27013
823.69	27024
823.83	27157
823.97	27081
824.11	26842
824.25	26815
824.389	26792
824.529	26937
824.669	26914
824.809	26857
824.949	26967
825.089	27032
825.228	26937
825.368	26765
825.508	26720
825.648	26765
825.787	26758
825.927	26906
826.067	26640
826.206	26830
826.346	26735
826.485	26781
826.625	26640
826.765	26861
826.904	26842
827.044	26503
827.183	26575
827.323	26450
827.462	26438
827.601	26499
827.741	26492
827.88	26442
828.02	26404
828.159	26499
828.298	26568
828.437	26396
828.577	26412
828.716	26564
828.855	26583
828.994	26244
829.134	26134
829.273	26161
829.412	25982
829.551	26096
829.69	26172
829.829	26206
829.968	26210
830.107	26343
830.246	26229
830.385	26126
830.524	26100
830.663	25898
830.802	25822
830.941	25852
831.08	25674
831.219	25731
831.357	25909
831.496	26027
831.635	25590
831.774	25822
831.913	25548
832.051	25635
832.19	25411
832.329	25613
832.467	25377
832.606	25339
832.744	25339
832.883	25381
833.022	25491
833.16	25445
833.299	25419
833.437	25415
833.576	25422
833.714	25525
833.852	25556
833.991	25506
834.129	25563
834.267	25510
834.406	25605
834.544	25502
834.682	25556
834.821	25453
834.959	25655
835.097	25434
835.235	25563
835.373	25533
835.511	25495
835.65	25316
835.788	25354
835.926	25285
836.064	25221
836.202	25198
836.34	25438
836.478	25468
836.615	25255
836.753	25362
836.891	25331
837.029	25411
837.167	25145
837.305	25190
837.443	25190
837.58	25190
837.718	25206
837.856	25126
837.993	25072
838.131	25129
838.269	24958
838.406	25107
838.544	25103
838.681	24821
838.819	24848
838.956	24563
839.094	24399
839.231	24753
839.369	24779
839.506	25091
839.643	24977
839.781	24566
839.918	24505
840.055	24597
840.193	24486
840.33	24536
840.467	24593
840.604	24544
840.742	24764
840.879	24346
841.016	24315
841.153	24475
841.29	24601
841.427	24650
841.564	24623
841.701	24544
841.838	24460
841.975	24414
842.112	24277
842.249	24395
842.385	24270
842.522	24532
842.659	24391
842.796	24194
842.933	24224
843.069	24365
843.206	24076
843.343	24281
843.479	24285
843.616	24216
843.752	24064
843.889	24011
844.025	24159
844.162	24121
844.298	24152
844.435	24076
844.571	23946
844.708	24076
844.844	24201
844.98	24117
845.117	24095
845.253	24038
845.389	23851
845.525	23965
845.661	23783
845.798	23657
845.934	23752
846.07	23726
846.206	23646
846.342	23916
846.478	23764
846.614	23627
846.75	23486
846.886	23463
847.022	23543
847.158	23604
847.294	23482
847.429	23497
847.565	23421
847.701	23767
847.837	23239
847.972	23178
848.108	23368
848.244	23277
848.379	23067
848.515	23090
848.65	23060
848.786	23140
848.921	23094
849.057	23147
849.192	23269
849.328	23071
849.463	23044
849.598	22991
849.734	22828
849.869	22965
850.004	22790
850.14	22923
850.275	22946
850.41	22896
850.545	22809
850.68	22664
850.815	22843
850.95	22778
851.085	23060
851.22	22999
851.355	22877
851.49	22812
851.625	22972
851.76	22847
851.895	22717
852.03	22805
852.165	22847
852.299	22934
852.434	22991
852.569	22904
852.703	22774
852.838	22965
852.973	22961
853.107	22957
853.242	22698
853.376	22618
853.511	22599
853.645	22694
853.78	22793
853.914	22675
854.048	22637
854.183	22611
854.317	22721
854.451	22797
854.585	22725
854.72	22607
854.854	22801
854.988	22596
855.122	22702
855.256	22615
855.39	22634
855.524	22805
855.658	22706
855.792	22748
855.926	22649
856.06	22713
856.194	22698
856.327	22615
856.461	22542
856.595	22577
856.729	22649
856.862	22816
856.996	22759
857.13	22660
857.263	22812
857.397	22691
857.53	22630
857.664	22634
857.797	22698
857.931	22782
858.064	22717
858.197	22850
858.331	22733
858.464	22626
858.597	22630
858.731	22596
858.864	22630
858.997	22523
859.13	22752
859.263	22653
859.396	22683
859.529	22615
859.662	22565
859.795	22611
859.928	22687
860.061	22858
860.194	22927
860.327	22740
860.46	22634
860.592	22717
860.725	22797
860.858	22847
860.99	22611
861.123	22618
861.256	22535
861.388	22679
861.521	23486
861.653	22516
861.786	22428
861.918	22428
862.05	22561
862.183	22478
862.315	22565
862.447	22611
862.58	22565
862.712	22341
862.844	22284
862.976	22417
863.108	22512
863.24	22660
863.372	22291
863.504	22398
863.636	22329
863.768	22379
863.9	22352
864.032	22344
864.164	22261
864.296	22333
864.428	22382
864.559	22371
864.691	22314
864.823	22287
864.954	22523
865.086	22348
865.217	22276
865.349	22173
865.48	22318
865.612	22188
865.743	22287
865.875	22329
866.006	22242
866.137	22226
866.269	22242
866.4	22230
866.531	22169
866.662	22219
866.793	22257
866.924	22299
867.055	22158
867.186	22219
867.317	22128
867.448	22093
867.579	22173
867.71	22120
867.841	22158
867.972	22192
868.103	22135
868.233	22234
868.364	22238
868.495	22135
868.625	22379
868.756	22398
868.886	22398
869.017	22443
869.147	22596
869.278	22561
869.408	22440
869.539	22447
869.669	22584
869.799	22512
869.929	22542
870.06	22535
870.19	22835
870.32	22683
870.45	22801
870.58	22797
870.71	22885
870.84	22892
870.97	22725
871.1	22881
871.23	22995
871.36	22980
871.489	22885
871.619	22946
871.749	22885
871.879	23109
872.008	23162
872.138	23003
872.267	23083
872.397	22900
872.526	22927
872.656	22976
872.785	22835
872.915	23102
873.044	23147
873.173	23098
873.303	23044
873.432	23143
873.561	23102
873.69	23098
873.819	22995
873.948	23086
874.077	22942
874.206	22980
874.335	22919
874.464	23181
874.593	23307
874.722	23296
874.851	23254
874.979	23334
875.108	23269
875.237	23083
875.365	23064
875.494	23174
875.623	23349
875.751	23223
875.88	23254
876.008	23345
876.136	23410
876.265	23794
876.393	23821
876.521	23585
876.65	23684
876.778	23718
876.906	23608
877.034	23543
877.162	23581
877.29	23589
877.418	23657
877.546	23478
877.674	23668
877.802	23604
877.93	23554
878.058	23554
878.185	23433
878.313	23547
878.441	23520
878.568	23376
878.696	23486
878.824	23619
878.951	23707
879.079	23802
879.206	23908
879.333	23790
879.461	23718
879.588	23661
879.715	23794
879.842	23901
879.97	23589
880.097	23334
880.224	23349
880.351	23535
880.478	23474
880.605	23440
880.732	23353
880.859	23592
880.986	23372
881.112	23566
881.239	23227
881.366	23121
881.493	23044
881.619	22915
881.746	22991
881.872	22892
881.999	22938
882.125	22889
882.252	23029
882.378	22938
882.505	22965
882.631	22793
882.757	22618
882.883	22717
883.01	22748
883.136	22527
883.262	22538
883.388	22527
883.514	22675
883.64	22588
883.766	22546
883.892	22413
884.018	22371
884.143	22611
884.269	22679
884.395	22375
884.52	22284
884.646	22310
884.772	22150
884.897	22162
885.023	22386
885.148	22379
885.274	22280
885.399	22394
885.524	22405
885.65	22287
885.775	22223
885.9	22295
886.025	22493
886.15	22363
886.275	22215
886.4	22128
886.525	22200
886.65	22150
886.775	22226
886.9	22246
887.025	22386
887.149	22226
887.274	22090
887.399	22147
887.523	22021
887.648	22006
887.773	22017
887.897	22143
888.021	21975
888.146	21968
888.27	22036
888.395	22162
888.519	22162
888.643	22074
888.767	22017
888.891	21899
889.015	21838
889.139	21865
889.263	21835
889.387	21956
889.511	21941
889.635	22029
889.759	21770
889.883	21846
890.006	21903
890.13	21884
890.254	21732
890.377	21724
890.501	21545
890.624	21519
890.748	21488
890.871	21466
890.995	21268
891.118	21378
891.241	21473
891.364	21256
891.488	21431
891.611	21511
891.734	21389
891.857	21393
891.98	21344
892.103	21359
892.226	21386
892.349	21359
892.471	21211
892.594	21306
892.717	21344
892.839	21355
892.962	21260
893.085	21294
893.207	21272
893.33	21192
893.452	21138
893.575	21344
893.697	21127
893.819	21340
893.941	21523
894.064	21351
894.186	21131
894.308	21245
894.43	21233
894.552	21317
894.674	21249
894.796	21116
894.918	21195
895.04	21252
895.161	21298
895.283	21218
895.405	21138
895.526	21180
895.648	21199
895.769	21237
895.891	21294
896.012	21275
896.134	21313
896.255	21287
896.376	21192
896.498	21332
896.619	21222
896.74	21321
896.861	21336
896.982	21568
897.103	21629
897.224	21656
897.345	21378
897.466	21317
897.587	21435
897.708	21462
897.828	21386
897.949	21412
898.07	21252
898.19	21348
898.311	21481
898.431	21340
898.552	21572
898.672	21450
898.792	21450
898.913	21412
899.033	21401
899.153	21214
899.273	21104
899.393	21203
899.513	21195
899.633	21104
899.753	21222
899.873	21024
899.993	21207
900.113	21127
900.232	21036
900.352	21013
900.472	20921
900.591	20906
900.711	20952
900.83	20823
900.95	21005
901.069	20967
901.189	20773
901.308	20636
901.427	20541
901.546	20564
901.665	20575
901.784	20480
901.904	20377
902.023	20202
902.141	20191
902.26	19989
902.379	20054
902.498	20054
902.617	19986
902.735	20027
902.854	19928
902.973	19822
903.091	19734
903.21	19548
903.328	19540
903.446	19514
903.565	19476
903.683	19472
903.801	19301
903.919	19388
904.038	19472
904.156	19175
904.274	19266
904.392	19129
904.51	19107
904.627	19183
904.745	19206
904.863	19206
904.981	18962
905.098	18856
905.216	18863
905.334	18840
905.451	18844
905.569	18829
905.686	18913
905.803	18696
905.921	18658
906.038	18753
906.155	18585
906.272	18597
906.389	18566
906.506	18426
906.623	18350
906.74	18418
906.857	18247
906.974	18174
907.091	18372
907.208	18441
907.324	18407
907.441	18346
907.557	18163
907.674	18110
907.79	17916
907.907	18106
908.023	18110
908.139	18197
908.256	17931
908.372	17901
908.488	17988
908.604	17805
908.72	17756
908.836	17893
908.952	17748
909.068	17832
909.184	17863
909.3	17840
909.415	17882
909.531	17790
909.647	17558
909.762	17585
909.878	17383
909.993	17592
910.108	17493
910.224	17478
910.339	17615
910.454	17448
910.57	17318
910.685	17231
910.8	17398
910.915	17444
911.03	17288
911.145	17064
911.259	17151
911.374	17075
911.489	17064
911.604	16965
911.718	16717
911.833	16869
911.947	16706
912.062	16664
912.176	16759
912.291	16847
912.405	16763
912.519	16885
912.633	16957
912.748	16850
912.862	16797
912.976	16584
913.09	16569
913.204	16626
913.318	16592
913.431	16691
913.545	16717
913.659	16721
913.772	16596
913.886	16542
914	16550
914.113	16481
914.226	16493
914.34	16508
914.453	16257
914.566	16535
914.68	16318
914.793	16219
914.906	16101
915.019	16147
915.132	15850
915.245	15846
915.358	16055
915.47	16055
915.583	15949
915.696	16006
915.809	16120
915.921	16204
916.034	15907
916.146	15911
916.259	15903
916.371	15800
916.483	15953
916.595	15736
916.708	15770
916.82	15854
916.932	15713
917.044	15698
917.156	15679
917.268	15534
917.38	15637
917.491	15644
917.603	15584
917.715	15701
917.826	15644
917.938	15473
918.049	15519
918.161	15519
918.272	15709
918.384	15694
918.495	15580
918.606	15329
918.717	15279
918.828	15325
918.939	15348
919.05	15355
919.161	15382
919.272	15085
919.383	15199
919.494	15344
919.604	15538
919.715	15310
919.826	15176
919.936	15207
920.047	15226
920.157	15260
920.267	15424
920.378	15249
920.488	15332
920.598	15462
920.708	15644
920.818	15447
920.928	15431
921.038	15587
921.148	15416
921.258	15294
921.368	15207
921.477	15108
921.587	14971
921.697	14785
921.806	14982
921.916	14845
922.025	14701
922.134	14746
922.244	14640
922.353	14636
922.462	14602
922.571	14461
922.68	14377
922.789	14271
922.898	14180
923.007	14157
923.116	14290
923.224	14290
923.333	14267
923.442	14103
923.55	14058
923.659	14157
923.767	14077
923.876	14027
923.984	14100
924.092	13978
924.201	14062
924.309	14069
924.417	14027
924.525	13898
924.633	13902
924.741	14655
924.849	13795
924.956	13871
925.064	13822
925.172	13571
925.279	13609
925.387	13696
925.494	13616
925.602	13765
925.709	13719
925.816	13628
925.924	13658
926.031	13700
926.138	13578
926.245	13624
926.352	13502
926.459	13628
926.566	13639
926.673	13529
926.779	13388
926.886	13255
926.993	13213
927.099	13225
927.206	13133
927.312	13202
927.419	13297
927.525	13244
927.631	13206
927.737	13152
927.843	13000
927.95	12985
928.056	13012
928.162	13072
928.267	13012
928.373	13624
928.479	13080
928.585	12901
928.69	12962
928.796	13008
928.901	12798
929.007	12658
929.112	12882
929.218	12905
929.323	12730
929.428	12681
929.533	12890
929.638	12563
929.743	12715
929.848	12711
929.953	12681
930.058	12475
930.163	12376
930.267	12384
930.372	12525
930.477	12327
930.581	12555
930.685	12448
930.79	12178
930.894	12327
930.998	12205
931.103	12418
931.207	11984
931.311	11901
931.415	11756
931.519	11608
931.623	11600
