Data from test_V78500241_115.txt Node
Date: Fri Mar 25 15:42:35 CST 2022
User: usil
Spectrometer: V785-0024
Trigger mode: 0
Integration Time (sec): 4.000000E-1
Scans to average: 1
Nonlinearity correction enabled: false
Boxcar width: 0
Storing dark spectrum: false
XAxis mode: Wavelengths
Number of Pixels in Spectrum: 1024
>>>>>Begin Spectral Data<<<<<
801.071	29950
801.214	29901
801.356	29634
801.499	29467
801.641	29360
801.783	29330
801.926	29372
802.068	29303
802.211	29124
802.353	29143
802.496	29052
802.638	28946
802.78	29014
802.923	28896
803.065	28911
803.208	28968
803.35	28984
803.492	29124
803.635	29159
803.777	29151
803.919	28938
804.061	29562
804.204	29208
804.346	29041
804.488	29010
804.63	29094
804.773	28828
804.915	29143
805.057	29056
805.199	29143
805.341	29170
805.483	29151
805.626	29246
805.768	29147
805.91	29315
806.052	29204
806.194	29064
806.336	29368
806.478	29170
806.62	29143
806.762	29368
806.904	29398
807.046	29672
807.188	29539
807.33	29615
807.472	29585
807.614	29486
807.756	29455
807.898	29318
808.04	29448
808.182	29341
808.324	29402
808.465	29330
808.607	29490
808.749	29718
808.891	29805
809.033	29809
809.174	29718
809.316	29691
809.458	29843
809.6	29737
809.741	29855
809.883	29832
810.025	30034
810.166	29927
810.308	30011
810.45	29912
810.591	29973
810.733	29649
810.875	29699
811.016	29520
811.158	29684
811.299	29882
811.441	29916
811.582	29813
811.724	29718
811.865	29687
812.007	29668
812.148	29752
812.29	29661
812.431	29889
812.573	29958
812.714	30003
812.855	30155
812.997	30247
813.138	30517
813.279	30262
813.421	30136
813.562	30121
813.703	29984
813.845	29862
813.986	29585
814.127	29467
814.268	29299
814.41	29379
814.551	29315
814.692	29429
814.833	29246
814.974	29189
815.115	29330
815.256	29155
815.397	29136
815.539	29056
815.68	28980
815.821	28976
815.962	29041
816.103	28927
816.244	28847
816.385	28736
816.526	28744
816.666	28691
816.807	28493
816.948	28538
817.089	28630
817.23	28451
817.371	28451
817.512	28375
817.653	28276
817.793	28428
817.934	28280
818.075	28356
818.216	28386
818.356	28211
818.497	28268
818.638	28109
818.778	28192
818.919	28158
819.06	28219
819.2	28352
819.341	28344
819.481	28188
819.622	28344
819.762	28596
819.903	28694
820.043	28500
820.184	28405
820.324	28462
820.465	28459
820.605	28580
820.746	28443
820.886	28234
821.026	28371
821.167	28360
821.307	28440
821.447	28325
821.588	28249
821.728	28090
821.868	27949
822.008	27713
822.149	27675
822.289	27827
822.429	27523
822.569	27321
822.709	27389
822.849	27199
822.99	27104
823.13	27180
823.27	27127
823.41	27089
823.55	26895
823.69	27135
823.83	26975
823.97	26891
824.11	26823
824.25	26724
824.389	26807
824.529	26883
824.669	26754
824.809	26861
824.949	26883
825.089	26826
825.228	26792
825.368	26579
825.508	26731
825.648	26613
825.787	26613
825.927	26613
826.067	26549
826.206	26617
826.346	26613
826.485	26594
826.625	26682
826.765	26640
826.904	26594
827.044	26343
827.183	26233
827.323	26267
827.462	26317
827.601	26237
827.741	26214
827.88	26278
828.02	26020
828.159	26180
828.298	26149
828.437	26183
828.577	26237
828.716	26183
828.855	26195
828.994	25921
829.134	25936
829.273	25833
829.412	25757
829.551	25826
829.69	25833
829.829	25932
829.968	25826
830.107	25936
830.246	25906
830.385	25841
830.524	25677
830.663	25616
830.802	25719
830.941	25384
831.08	25388
831.219	25601
831.357	25537
831.496	25605
831.635	25381
831.774	25312
831.913	25129
832.051	25232
832.19	25088
832.329	25244
832.467	25042
832.606	25221
832.744	25027
832.883	25027
833.022	24939
833.16	24962
833.299	25137
833.437	24970
833.576	25107
833.714	25053
833.852	25057
833.991	25145
834.129	25027
834.267	25110
834.406	24916
834.544	25015
834.682	25084
834.821	24856
834.959	25225
835.097	24916
835.235	24920
835.373	24970
835.511	24962
835.65	24901
835.788	24779
835.926	24722
836.064	24661
836.202	24757
836.34	24760
836.478	24890
836.615	24932
836.753	24753
836.891	25057
837.029	25027
837.167	24688
837.305	24749
837.443	24684
837.58	24684
837.718	24776
837.856	24639
837.993	24559
838.131	24635
838.269	24475
838.406	24414
838.544	24456
838.681	24308
838.819	24270
838.956	24155
839.094	24072
839.231	24072
839.369	24224
839.506	24407
839.643	24273
839.781	24041
839.918	23840
840.055	24045
840.193	23965
840.33	23912
840.467	23935
840.604	23980
840.742	24228
840.879	23767
841.016	23790
841.153	23741
841.29	23885
841.427	23828
841.564	23912
841.701	23767
841.838	23847
841.975	23657
842.112	23882
842.249	23710
842.385	23581
842.522	23828
842.659	23657
842.796	23547
842.933	23619
843.069	23547
843.206	23452
843.343	23539
843.479	23520
843.616	23630
843.752	23436
843.889	23299
844.025	23421
844.162	23239
844.298	23440
844.435	23296
844.571	23109
844.708	23471
844.844	23383
844.98	23425
845.117	23410
845.253	23250
845.389	23132
845.525	23307
845.661	23166
845.798	23056
845.934	23044
846.07	22995
846.206	23060
846.342	23151
846.478	22915
846.614	22736
846.75	22687
846.886	22675
847.022	22866
847.158	22717
847.294	22752
847.429	22755
847.565	22771
847.701	22881
847.837	22462
847.972	22253
848.108	22554
848.244	22527
848.379	22325
848.515	22261
848.65	22276
848.786	22333
848.921	22333
849.057	22356
849.192	22310
849.328	22371
849.463	22329
849.598	22223
849.734	22150
849.869	22044
850.004	22070
850.14	22067
850.275	22097
850.41	21987
850.545	21895
850.68	22002
850.815	21991
850.95	21865
851.085	22070
851.22	22044
851.355	21941
851.49	21968
851.625	21983
851.76	21930
851.895	21918
852.03	21911
852.165	22040
852.299	22029
852.434	22101
852.569	21964
852.703	22063
852.838	22048
852.973	22025
853.107	22101
853.242	21945
853.376	21766
853.511	21720
853.645	21694
853.78	21884
853.914	21831
854.048	21793
854.183	21762
854.317	21739
854.451	21903
854.585	21899
854.72	21808
854.854	21884
854.988	21701
855.122	21652
855.256	21641
855.39	21797
855.524	21857
855.658	21850
855.792	21842
855.926	21793
856.06	21747
856.194	21759
856.327	21739
856.461	21663
856.595	21709
856.729	21724
856.862	21895
856.996	21751
857.13	21762
857.263	21766
857.397	21732
857.53	21713
857.664	21743
857.797	21857
857.931	21846
858.064	21785
858.197	21880
858.331	21629
858.464	21835
858.597	21614
858.731	21644
858.864	21838
858.997	21713
859.13	21629
859.263	21831
859.396	21793
859.529	21599
859.662	21682
859.795	21660
859.928	21606
860.061	21907
860.194	21846
860.327	21576
860.46	21629
860.592	21766
860.725	21850
860.858	21778
860.99	21694
861.123	21614
861.256	21679
861.388	21694
861.521	22219
861.653	21583
861.786	21549
861.918	21591
862.05	21698
862.183	21827
862.315	21770
862.447	21831
862.58	21671
862.712	21523
862.844	21424
862.976	21447
863.108	21447
863.24	21732
863.372	21412
863.504	21386
863.636	21549
863.768	21496
863.9	21485
864.032	21329
864.164	21344
864.296	21367
864.428	21504
864.559	21420
864.691	21389
864.823	21298
864.954	21336
865.086	21321
865.217	21416
865.349	21233
865.48	21256
865.612	21275
865.743	21412
865.875	21226
866.006	21275
866.137	21466
866.269	21233
866.4	21180
866.531	21199
866.662	21211
866.793	21207
866.924	21211
867.055	21222
867.186	21264
867.317	21116
867.448	21123
867.579	21157
867.71	21096
867.841	21070
867.972	21108
868.103	21100
868.233	21222
868.364	21146
868.495	21332
868.625	21481
868.756	21587
868.886	21370
869.017	21287
869.147	21583
869.278	21515
869.408	21469
869.539	21408
869.669	21439
869.799	21363
869.929	21572
870.06	21568
870.19	21854
870.32	21713
870.45	21838
870.58	21747
870.71	21998
870.84	21949
870.97	21911
871.1	21857
871.23	21907
871.36	21865
871.489	21911
871.619	21930
871.749	21899
871.879	22048
872.008	22158
872.138	22040
872.267	22017
872.397	21994
872.526	21812
872.656	21854
872.785	21713
872.915	21994
873.044	22150
873.173	21956
873.303	22059
873.432	22078
873.561	22219
873.69	21979
873.819	22044
873.948	22162
874.077	21949
874.206	22078
874.335	22032
874.464	22082
874.593	22299
874.722	22280
874.851	22367
874.979	22284
875.108	22341
875.237	22166
875.365	22242
875.494	22303
875.623	22356
875.751	22173
875.88	22348
876.008	22394
876.136	22546
876.265	22721
876.393	22774
876.521	22763
876.65	22790
876.778	22596
876.906	22531
877.034	22580
877.162	22694
877.29	22634
877.418	22622
877.546	22702
877.674	22584
877.802	22660
877.93	22672
878.058	22615
878.185	22352
878.313	22653
878.441	22588
878.568	22394
878.696	22493
878.824	22656
878.951	22675
879.079	22721
879.206	22858
879.333	22793
879.461	22717
879.588	22744
879.715	22866
879.842	22953
879.97	22653
880.097	22451
880.224	22329
880.351	22531
880.478	22451
880.605	22390
880.732	22508
880.859	22634
880.986	22497
881.112	22535
881.239	22310
881.366	22276
881.493	22131
881.619	22013
881.746	22040
881.872	21926
881.999	21960
882.125	21945
882.252	22067
882.378	22044
882.505	22181
882.631	21899
882.757	21918
882.883	21736
883.01	21755
883.136	21530
883.262	21660
883.388	21637
883.514	21766
883.64	21876
883.766	21743
883.892	21523
884.018	21591
884.143	21675
884.269	21842
884.395	21408
884.52	21462
884.646	21416
884.772	21412
884.897	21294
885.023	21428
885.148	21473
885.274	21500
885.399	21428
885.524	21447
885.65	21294
885.775	21306
885.9	21416
886.025	21462
886.15	21260
886.275	21332
886.4	21291
886.525	21397
886.65	21249
886.775	21321
886.9	21428
887.025	21367
887.149	21294
887.274	21036
887.399	21180
887.523	21199
887.648	21062
887.773	20929
887.897	21146
888.021	21214
888.146	20868
888.27	21203
888.395	21211
888.519	21112
888.643	21093
888.767	21108
888.891	20967
889.015	20944
889.139	20960
889.263	20834
889.387	20979
889.511	21112
889.635	20990
889.759	20845
889.883	20758
890.006	20952
890.13	20998
890.254	20826
890.377	20823
890.501	20663
890.624	20526
890.748	20769
890.871	20564
890.995	20473
891.118	20415
891.241	20484
891.364	20389
891.488	20457
891.611	20404
891.734	20381
891.857	20473
891.98	20381
892.103	20415
892.226	20419
892.349	20412
892.471	20191
892.594	20362
892.717	20366
892.839	20305
892.962	20400
893.085	20461
893.207	20377
893.33	20298
893.452	20275
893.575	20393
893.697	20221
893.819	20568
893.941	20640
894.064	20484
894.186	20347
894.308	20240
894.43	20377
894.552	20461
894.674	20313
894.796	20157
894.918	20301
895.04	20259
895.161	20476
895.283	20351
895.405	20301
895.526	20366
895.648	20237
895.769	20366
895.891	20434
896.012	20412
896.134	20347
896.255	20427
896.376	20465
896.498	20431
896.619	20533
896.74	20511
896.861	20552
896.982	20720
897.103	20830
897.224	20602
897.345	20659
897.466	20579
897.587	20484
897.708	20693
897.828	20503
897.949	20465
898.07	20465
898.19	20507
898.311	20629
898.431	20450
898.552	20522
898.672	20568
898.792	20609
898.913	20537
899.033	20438
899.153	20404
899.273	20199
899.393	20039
899.513	20199
899.633	20221
899.753	20267
899.873	20142
899.993	20427
900.113	20168
900.232	20145
900.352	20020
900.472	20008
900.591	19951
900.711	20008
900.83	19913
900.95	20126
901.069	20008
901.189	19909
901.308	19681
901.427	19620
901.546	19674
901.665	19651
901.784	19594
901.904	19339
902.023	19430
902.141	19148
902.26	19179
902.379	19164
902.498	19061
902.617	19069
902.735	19061
902.854	18977
902.973	18993
903.091	18787
903.21	18821
903.328	18779
903.446	18639
903.565	18593
903.683	18574
903.801	18445
903.919	18673
904.038	18544
904.156	18281
904.274	18414
904.392	18300
904.51	18304
904.627	18262
904.745	18414
904.863	18357
904.981	18068
905.098	18015
905.216	18053
905.334	18140
905.451	17942
905.569	17923
905.686	17965
905.803	17939
905.921	17779
906.038	17813
906.155	17722
906.272	17634
906.389	17783
906.506	17532
906.623	17554
906.74	17421
906.857	17311
906.974	17277
907.091	17573
907.208	17570
907.324	17467
907.441	17364
907.557	17292
907.674	17311
907.79	17189
907.907	17155
908.023	17151
908.139	17170
908.256	17079
908.372	17045
908.488	16995
908.604	16873
908.72	16801
908.836	16904
908.952	16809
909.068	16892
909.184	17041
909.3	16786
909.415	16797
909.531	16824
909.647	16622
909.762	16599
909.878	16542
909.993	16436
910.108	16546
910.224	16558
910.339	16497
910.454	16459
910.57	16527
910.685	16276
910.8	16538
910.915	16379
911.03	16428
911.145	16173
911.259	16181
911.374	16112
911.489	16097
911.604	16078
911.718	15846
911.833	15865
911.947	15720
912.062	15743
912.176	15865
912.291	15854
912.405	15903
912.519	16025
912.633	16055
912.748	15880
912.862	15831
912.976	15656
913.09	15545
913.204	15641
913.318	15713
913.431	15709
913.545	15766
913.659	15686
913.772	15675
913.886	15469
914	15435
914.113	15538
914.226	15633
914.34	15496
914.453	15386
914.566	15492
914.68	15241
914.793	15294
914.906	15184
915.019	15127
915.132	15001
915.245	15131
915.358	15085
915.47	15116
915.583	15116
915.696	15055
915.809	15192
915.921	15138
916.034	14998
916.146	15017
916.259	15001
916.371	15028
916.483	15032
916.595	14979
916.708	15009
916.82	14918
916.932	14960
917.044	14785
917.156	14899
917.268	14701
917.38	14765
917.491	14697
917.603	14845
917.715	14826
917.826	14804
917.938	14613
918.049	14579
918.161	14648
918.272	14762
918.384	14819
918.495	14648
918.606	14469
918.717	14469
918.828	14495
918.939	14457
919.05	14419
919.161	14465
919.272	14252
919.383	14336
919.494	14579
919.604	14705
919.715	14393
919.826	14256
919.936	14358
920.047	14545
920.157	14499
920.267	14552
920.378	14423
920.488	14282
920.598	14507
920.708	14705
920.818	14469
920.928	14507
921.038	14648
921.148	14617
921.258	14317
921.368	14259
921.477	14149
921.587	14088
921.697	14054
921.806	14115
921.916	13951
922.025	13803
922.134	13822
922.244	13784
922.353	13791
922.462	13628
922.571	13548
922.68	13324
922.789	13407
922.898	13400
923.007	13320
923.116	13411
923.224	13377
923.333	13343
923.442	13156
923.55	13251
923.659	13202
923.767	13282
923.876	13160
923.984	13244
924.092	13050
924.201	13187
924.309	13145
924.417	13129
924.525	13031
924.633	13061
924.741	13845
924.849	12913
924.956	12958
925.064	12829
925.172	12681
925.279	12722
925.387	12837
925.494	12764
925.602	12970
925.709	12970
925.816	12772
925.924	12795
926.031	12890
926.138	12741
926.245	12757
926.352	12779
926.459	12814
926.566	12798
926.673	12730
926.779	12574
926.886	12559
926.993	12376
927.099	12338
927.206	12254
927.312	12365
927.419	12441
927.525	12391
927.631	12338
927.737	12270
927.843	12186
927.95	12129
928.056	12254
928.162	12178
928.267	12296
928.373	12863
928.479	12197
928.585	12026
928.69	12171
928.796	12178
928.901	12072
929.007	11942
929.112	12057
929.218	11954
929.323	11923
929.428	11946
929.533	12038
929.638	11828
929.743	11908
929.848	11927
929.953	11813
930.058	11836
930.163	11611
930.267	11532
930.372	11764
930.477	11562
930.581	11840
930.685	11558
930.79	11471
930.894	11467
930.998	11448
931.103	11554
931.207	11250
931.311	11185
931.415	11067
931.519	10835
931.623	10885
