Data from test_V78500241_1604.txt Node
Date: Fri Mar 25 15:52:54 CST 2022
User: usil
Spectrometer: V785-0024
Trigger mode: 0
Integration Time (sec): 4.000000E-1
Scans to average: 1
Nonlinearity correction enabled: false
Boxcar width: 0
Storing dark spectrum: false
XAxis mode: Wavelengths
Number of Pixels in Spectrum: 1024
>>>>>Begin Spectral Data<<<<<
801.071	27854
801.214	27873
801.356	27660
801.499	27583
801.641	27325
801.783	27511
801.926	27519
802.068	27405
802.211	27359
802.353	27348
802.496	27089
802.638	27112
802.78	27058
802.923	26982
803.065	27104
803.208	27032
803.35	27104
803.492	27173
803.635	27214
803.777	27085
803.919	27351
804.061	27580
804.204	27329
804.346	27279
804.488	27241
804.63	27367
804.773	27169
804.915	27298
805.057	27542
805.199	27332
805.341	27420
805.483	27443
805.626	27443
805.768	27374
805.91	27389
806.052	27496
806.194	27431
806.336	27606
806.478	27462
806.62	27435
806.762	27591
806.904	27660
807.046	27759
807.188	27778
807.33	27888
807.472	27930
807.614	27739
807.756	27789
807.898	27873
808.04	27633
808.182	27606
808.324	27614
808.465	27747
808.607	27930
808.749	28143
808.891	28090
809.033	28204
809.174	27987
809.316	28067
809.458	27937
809.6	28051
809.741	28135
809.883	28299
810.025	28432
810.166	28348
810.308	28192
810.45	28246
810.591	28238
810.733	28063
810.875	27979
811.016	27926
811.158	27945
811.299	28181
811.441	28276
811.582	28226
811.724	28166
811.865	27956
812.007	27983
812.148	28025
812.29	28055
812.431	28318
812.573	28417
812.714	28500
812.855	28580
812.997	28497
813.138	28668
813.279	28740
813.421	28538
813.562	28386
813.703	28265
813.845	28242
813.986	27994
814.127	27812
814.268	27827
814.41	27698
814.551	27755
814.692	27812
814.833	27732
814.974	27629
815.115	27781
815.256	27770
815.397	27656
815.539	27648
815.68	27477
815.821	27625
815.962	27534
816.103	27549
816.244	27427
816.385	27275
816.526	27344
816.666	27100
816.807	27180
816.948	26963
817.089	27127
817.23	26975
817.371	27195
817.512	27077
817.653	27116
817.793	26929
817.934	27096
818.075	27051
818.216	27043
818.356	27074
818.497	26792
818.638	26845
818.778	26876
818.919	26788
819.06	26800
819.2	26872
819.341	26990
819.481	27047
819.622	27154
819.762	27245
819.903	27233
820.043	27096
820.184	27245
820.324	27233
820.465	27218
820.605	27165
820.746	27081
820.886	26918
821.026	27100
821.167	27100
821.307	27184
821.447	27119
821.588	26948
821.728	26925
821.868	26754
822.008	26552
822.149	26453
822.289	26556
822.429	26374
822.569	26214
822.709	26259
822.849	26065
822.99	26027
823.13	25951
823.27	25944
823.41	25780
823.55	25776
823.69	25822
823.83	25837
823.97	25655
824.11	25635
824.25	25681
824.389	25620
824.529	25708
824.669	25613
824.809	25738
824.949	25738
825.089	25807
825.228	25632
825.368	25495
825.508	25540
825.648	25460
825.787	25487
825.927	25514
826.067	25453
826.206	25563
826.346	25537
826.485	25601
826.625	25582
826.765	25674
826.904	25586
827.044	25285
827.183	25304
827.323	25263
827.462	25247
827.601	25137
827.741	25263
827.88	25221
828.02	24973
828.159	25118
828.298	25232
828.437	25343
828.577	25027
828.716	25289
828.855	25148
828.994	24989
829.134	24916
829.273	24833
829.412	24863
829.551	24924
829.69	24943
829.829	25000
829.968	24970
830.107	25069
830.246	24985
830.385	24890
830.524	24886
830.663	24798
830.802	24578
830.941	24513
831.08	24483
831.219	24635
831.357	24684
831.496	24749
831.635	24559
831.774	24589
831.913	24384
832.051	24365
832.19	24277
832.329	24258
832.467	24201
832.606	24235
832.744	24213
832.883	24285
833.022	24216
833.16	24216
833.299	24292
833.437	24209
833.576	24243
833.714	24292
833.852	24441
833.991	24308
834.129	24300
834.267	24258
834.406	24273
834.544	24296
834.682	24205
834.821	24251
834.959	24308
835.097	24258
835.235	24270
835.373	24239
835.511	24140
835.65	24110
835.788	24110
835.926	23946
836.064	23901
836.202	23866
836.34	24026
836.478	24110
836.615	24045
836.753	24174
836.891	24159
837.029	24190
837.167	24102
837.305	23988
837.443	23999
837.58	23916
837.718	24060
837.856	23950
837.993	23836
838.131	23863
838.269	23855
838.406	23954
838.544	23771
838.681	23665
838.819	23505
838.956	23440
839.094	23391
839.231	23284
839.369	23467
839.506	23745
839.643	23718
839.781	23452
839.918	23448
840.055	23330
840.193	23326
840.33	23326
840.467	23391
840.604	23455
840.742	23528
840.879	23269
841.016	23242
841.153	23303
841.29	23349
841.427	23197
841.564	23265
841.701	23429
841.838	23242
841.975	23204
842.112	23345
842.249	23025
842.385	22987
842.522	23288
842.659	23121
842.796	23014
842.933	23037
843.069	22942
843.206	22949
843.343	23071
843.479	23170
843.616	23056
843.752	22892
843.889	22786
844.025	22984
844.162	22816
844.298	22873
844.435	22831
844.571	22816
844.708	22862
844.844	23010
844.98	23022
845.117	23010
845.253	22706
845.389	22656
845.525	22607
845.661	22683
845.798	22485
845.934	22607
846.07	22596
846.206	22599
846.342	22683
846.478	22512
846.614	22348
846.75	22253
846.886	22272
847.022	22367
847.158	22287
847.294	22421
847.429	22363
847.565	22329
847.701	22500
847.837	22067
847.972	22078
848.108	22158
848.244	22185
848.379	21888
848.515	21960
848.65	21789
848.786	21899
848.921	21907
849.057	21956
849.192	21880
849.328	21983
849.463	21907
849.598	21930
849.734	21838
849.869	21857
850.004	21743
850.14	21701
850.275	21686
850.41	21599
850.545	21595
850.68	21603
850.815	21759
850.95	21557
851.085	21701
851.22	21793
851.355	21793
851.49	21698
851.625	21568
851.76	21698
851.895	21633
852.03	21500
852.165	21671
852.299	21507
852.434	21789
852.569	21747
852.703	21728
852.838	21679
852.973	21747
853.107	21774
853.242	21488
853.376	21412
853.511	21443
853.645	21549
853.78	21519
853.914	21530
854.048	21424
854.183	21420
854.317	21504
854.451	21663
854.585	21519
854.72	21481
854.854	21591
854.988	21412
855.122	21523
855.256	21431
855.39	21393
855.524	21515
855.658	21583
855.792	21511
855.926	21553
856.06	21622
856.194	21526
856.327	21401
856.461	21382
856.595	21507
856.729	21348
856.862	21679
856.996	21477
857.13	21511
857.263	21591
857.397	21580
857.53	21504
857.664	21561
857.797	21606
857.931	21587
858.064	21587
858.197	21469
858.331	21428
858.464	21447
858.597	21317
858.731	21435
858.864	21424
858.997	21367
859.13	21549
859.263	21504
859.396	21561
859.529	21557
859.662	21435
859.795	21393
859.928	21530
860.061	21644
860.194	21583
860.327	21561
860.46	21534
860.592	21599
860.725	21701
860.858	21538
860.99	21591
861.123	21291
861.256	21431
861.388	21443
861.521	22166
861.653	21363
861.786	21294
861.918	21256
862.05	21393
862.183	21416
862.315	21538
862.447	21473
862.58	21370
862.712	21332
862.844	21127
862.976	21226
863.108	21249
863.24	21606
863.372	21127
863.504	21169
863.636	21150
863.768	21211
863.9	21058
864.032	21039
864.164	21127
864.296	21051
864.428	21321
864.559	21325
864.691	21287
864.823	21260
864.954	21119
865.086	21230
865.217	21043
865.349	20982
865.48	21150
865.612	21017
865.743	21283
865.875	21180
866.006	21070
866.137	20960
866.269	21017
866.4	21013
866.531	20986
866.662	20960
866.793	20986
866.924	21051
867.055	21032
867.186	20990
867.317	21017
867.448	20956
867.579	21005
867.71	20937
867.841	20895
867.972	21096
868.103	21070
868.233	21081
868.364	21043
868.495	21039
868.625	21161
868.756	21344
868.886	21184
869.017	21302
869.147	21447
869.278	21393
869.408	21195
869.539	21351
869.669	21336
869.799	21363
869.929	21439
870.06	21420
870.19	21610
870.32	21496
870.45	21644
870.58	21629
870.71	21831
870.84	21755
870.97	21679
871.1	21660
871.23	21690
871.36	21956
871.489	21705
871.619	21770
871.749	21979
871.879	21972
872.008	21770
872.138	21854
872.267	21819
872.397	21838
872.526	21690
872.656	21641
872.785	21781
872.915	21835
873.044	22025
873.173	21972
873.303	22112
873.432	21968
873.561	22036
873.69	21911
873.819	21770
873.948	21915
874.077	21975
874.206	21850
874.335	21880
874.464	21994
874.593	22158
874.722	22086
874.851	22295
874.979	22181
875.108	22192
875.237	22048
875.365	21979
875.494	22029
875.623	22211
875.751	22078
875.88	22032
876.008	22246
876.136	22249
876.265	22546
876.393	22497
876.521	22584
876.65	22557
876.778	22485
876.906	22481
877.034	22432
877.162	22382
877.29	22360
877.418	22508
877.546	22489
877.674	22436
877.802	22538
877.93	22382
878.058	22402
878.185	22348
878.313	22344
878.441	22424
878.568	22284
878.696	22417
878.824	22417
878.951	22523
879.079	22523
879.206	22710
879.333	22656
879.461	22493
879.588	22508
879.715	22599
879.842	22805
879.97	22535
880.097	22318
880.224	22265
880.351	22333
880.478	22139
880.605	22276
880.732	22306
880.859	22531
880.986	22356
881.112	22272
881.239	22139
881.366	22006
881.493	21876
881.619	21759
881.746	21857
881.872	21835
881.999	21781
882.125	21861
882.252	21865
882.378	21888
882.505	22017
882.631	21766
882.757	21580
882.883	21599
883.01	21454
883.136	21515
883.262	21336
883.388	21428
883.514	21580
883.64	21595
883.766	21530
883.892	21405
884.018	21298
884.143	21511
884.269	21610
884.395	21237
884.52	21207
884.646	21135
884.772	21062
884.897	21112
885.023	21188
885.148	21272
885.274	21230
885.399	21260
885.524	21211
885.65	21325
885.775	21222
885.9	21252
886.025	21294
886.15	21252
886.275	21184
886.4	21081
886.525	21116
886.65	21093
886.775	21089
886.9	21203
887.025	21519
887.149	21180
887.274	20929
887.399	21005
887.523	20906
887.648	20921
887.773	20857
887.897	20979
888.021	20982
888.146	20971
888.27	21077
888.395	21100
888.519	20975
888.643	20960
888.767	20967
888.891	20979
889.015	20720
889.139	20800
889.263	20823
889.387	20758
889.511	20967
889.635	20967
889.759	20777
889.883	20640
890.006	20834
890.13	20762
890.254	20689
890.377	20598
890.501	20594
890.624	20465
890.748	20659
890.871	20317
890.995	20313
891.118	20206
891.241	20343
891.364	20301
891.488	20503
891.611	20309
891.734	20347
891.857	20374
891.98	20374
892.103	20332
892.226	20347
892.349	20271
892.471	20100
892.594	20229
892.717	20355
892.839	20115
892.962	20259
893.085	20275
893.207	20172
893.33	20168
893.452	20054
893.575	20290
893.697	20237
893.819	20454
893.941	20317
894.064	20434
894.186	20183
894.308	20103
894.43	20199
894.552	20336
894.674	20374
894.796	20183
894.918	20115
895.04	20320
895.161	20206
895.283	20278
895.405	20115
895.526	20168
895.648	20259
895.769	20191
895.891	20229
896.012	20263
896.134	20263
896.255	20206
896.376	20202
896.498	20161
896.619	20195
896.74	20187
896.861	20214
896.982	20590
897.103	20731
897.224	20556
897.345	20412
897.466	20286
897.587	20511
897.708	20434
897.828	20522
897.949	20400
898.07	20199
898.19	20385
898.311	20438
898.431	20434
898.552	20415
898.672	20530
898.792	20644
898.913	20400
899.033	20313
899.153	20275
899.273	20046
899.393	20130
899.513	20206
899.633	20161
899.753	20229
899.873	20149
899.993	20237
900.113	20191
900.232	20161
900.352	20103
900.472	19970
900.591	20001
900.711	20119
900.83	19909
900.95	19959
901.069	20077
901.189	19727
901.308	19708
901.427	19491
901.546	19529
901.665	19616
901.784	19502
901.904	19346
902.023	19236
902.141	19084
902.26	19107
902.379	19187
902.498	19148
902.617	18943
902.735	19160
902.854	19065
902.973	18875
903.091	18757
903.21	18798
903.328	18715
903.446	18700
903.565	18521
903.683	18456
903.801	18384
903.919	18395
904.038	18445
904.156	18308
904.274	18361
904.392	18197
904.51	18209
904.627	18232
904.745	18270
904.863	18365
904.981	18228
905.098	17999
905.216	18041
905.334	18034
905.451	17954
905.569	17916
905.686	17996
905.803	17874
905.921	17775
906.038	17897
906.155	17828
906.272	17668
906.389	17771
906.506	17532
906.623	17532
906.74	17448
906.857	17429
906.974	17337
907.091	17570
907.208	17528
907.324	17486
907.441	17299
907.557	17288
907.674	17178
907.79	17261
907.907	17178
908.023	17307
908.139	17227
908.256	17090
908.372	17162
908.488	17029
908.604	16934
908.72	16934
908.836	17056
908.952	16976
909.068	17041
909.184	16999
909.3	16896
909.415	16911
909.531	16866
909.647	16622
909.762	16630
909.878	16596
909.993	16634
910.108	16599
910.224	16618
910.339	16596
910.454	16561
910.57	16447
910.685	16394
910.8	16801
910.915	16618
911.03	16459
911.145	16299
911.259	16192
911.374	16242
911.489	16128
911.604	16135
911.718	15911
911.833	15994
911.947	15979
912.062	15785
912.176	15899
912.291	16029
912.405	16032
912.519	16166
912.633	16051
912.748	15987
912.862	16010
912.976	15762
913.09	15698
913.204	15857
913.318	15770
913.431	15747
913.545	15869
913.659	15899
913.772	15606
913.886	15732
914	15572
914.113	15606
914.226	15641
914.34	15576
914.453	15447
914.566	15717
914.68	15564
914.793	15466
914.906	15363
915.019	15226
915.132	15123
915.245	15119
915.358	15165
915.47	15192
915.583	15211
915.696	15252
915.809	15325
915.921	15393
916.034	15192
916.146	15157
916.259	15085
916.371	15184
916.483	15161
916.595	15013
916.708	15062
916.82	15135
916.932	14986
917.044	14941
917.156	14906
917.268	14769
917.38	14857
917.491	14724
917.603	14769
917.715	14906
917.826	14986
917.938	14746
918.049	14693
918.161	14765
918.272	15020
918.384	14967
918.495	14765
918.606	14648
918.717	14522
918.828	14636
918.939	14606
919.05	14579
919.161	14469
919.272	14370
919.383	14434
919.494	14708
919.604	14811
919.715	14492
919.826	14469
919.936	14488
920.047	14743
920.157	14632
920.267	14693
920.378	14530
920.488	14571
920.598	14727
920.708	14918
920.818	14659
920.928	14625
921.038	14887
921.148	14785
921.258	14545
921.368	14442
921.477	14434
921.587	14324
921.697	14145
921.806	14286
921.916	14180
922.025	13993
922.134	13967
922.244	13936
922.353	13997
922.462	13860
922.571	13746
922.68	13628
922.789	13597
922.898	13578
923.007	13514
923.116	13681
923.224	13605
923.333	13544
923.442	13407
923.55	13388
923.659	13460
923.767	13495
923.876	13400
923.984	13506
924.092	13426
924.201	13289
924.309	13324
924.417	13251
924.525	13324
924.633	13255
924.741	14263
924.849	13080
924.956	13225
925.064	13057
925.172	12901
925.279	12993
925.387	13038
925.494	12935
925.602	13084
925.709	13004
925.816	13004
925.924	12962
926.031	13042
926.138	12966
926.245	13088
926.352	12935
926.459	12966
926.566	12928
926.673	12905
926.779	12901
926.886	12749
926.993	12654
927.099	12604
927.206	12551
927.312	12593
927.419	12585
927.525	12555
927.631	12616
927.737	12475
927.843	12422
927.95	12292
928.056	12372
928.162	12460
928.267	12346
928.373	13069
928.479	12464
928.585	12273
928.69	12342
928.796	12365
928.901	12194
929.007	12136
929.112	12270
929.218	12110
929.323	12152
929.428	12148
929.533	12228
929.638	11999
929.743	12102
929.848	12114
929.953	12030
930.058	11946
930.163	11798
930.267	11760
930.372	11885
930.477	11802
930.581	12026
930.685	11866
930.79	11714
930.894	11752
930.998	11676
931.103	11802
931.207	11410
931.311	11448
931.415	11337
931.519	11105
931.623	11079
