Data from test_V78500241_1609.txt Node
Date: Fri Mar 25 15:52:56 CST 2022
User: usil
Spectrometer: V785-0024
Trigger mode: 0
Integration Time (sec): 4.000000E-1
Scans to average: 1
Nonlinearity correction enabled: false
Boxcar width: 0
Storing dark spectrum: false
XAxis mode: Wavelengths
Number of Pixels in Spectrum: 1024
>>>>>Begin Spectral Data<<<<<
801.071	28268
801.214	28109
801.356	27956
801.499	27857
801.641	27739
801.783	27682
801.926	27789
802.068	27793
802.211	27759
802.353	27667
802.496	27549
802.638	27416
802.78	27397
802.923	27363
803.065	27344
803.208	27359
803.35	27526
803.492	27625
803.635	27622
803.777	27469
803.919	27507
804.061	28002
804.204	27789
804.346	27675
804.488	27477
804.63	27694
804.773	27492
804.915	27641
805.057	27751
805.199	27542
805.341	27648
805.483	27732
805.626	27861
805.768	27595
805.91	27812
806.052	27793
806.194	27698
806.336	28002
806.478	27797
806.62	27873
806.762	27903
806.904	28109
807.046	28284
807.188	28185
807.33	28348
807.472	28428
807.614	28207
807.756	28249
807.898	28070
808.04	28070
808.182	28063
808.324	28147
808.465	28276
808.607	28280
808.749	28561
808.891	28470
809.033	28641
809.174	28504
809.316	28333
809.458	28314
809.6	28508
809.741	28546
809.883	28470
810.025	28637
810.166	28793
810.308	28683
810.45	28774
810.591	28672
810.733	28451
810.875	28375
811.016	28390
811.158	28322
811.299	28557
811.441	28508
811.582	28596
811.724	28561
811.865	28424
812.007	28261
812.148	28356
812.29	28546
812.431	28691
812.573	28713
812.714	28805
812.855	29025
812.997	29075
813.138	29018
813.279	29052
813.421	28976
813.562	28885
813.703	28869
813.845	28713
813.986	28497
814.127	28303
814.268	28192
814.41	28078
814.551	28154
814.692	28306
814.833	28128
814.974	28112
815.115	28131
815.256	28025
815.397	28112
815.539	27918
815.68	27975
815.821	27930
815.962	28013
816.103	27880
816.244	27789
816.385	27743
816.526	27724
816.666	27587
816.807	27500
816.948	27538
817.089	27587
817.23	27443
817.371	27443
817.512	27264
817.653	27397
817.793	27378
817.934	27519
818.075	27256
818.216	27439
818.356	27367
818.497	27344
818.638	27211
818.778	27180
818.919	27146
819.06	27176
819.2	27412
819.341	27386
819.481	27306
819.622	27500
819.762	27850
819.903	27732
820.043	27641
820.184	27576
820.324	27519
820.465	27629
820.605	27648
820.746	27393
820.886	27408
821.026	27557
821.167	27336
821.307	27477
821.447	27507
821.588	27348
821.728	27230
821.868	27188
822.008	26940
822.149	26906
822.289	26960
822.429	26716
822.569	26705
822.709	26663
822.849	26446
822.99	26495
823.13	26389
823.27	26259
823.41	26084
823.55	26103
823.69	26317
823.83	26164
823.97	26195
824.11	26168
824.25	26149
824.389	26027
824.529	26237
824.669	26062
824.809	26176
824.949	26218
825.089	26248
825.228	26126
825.368	25978
825.508	25868
825.648	26058
825.787	25974
825.927	25986
826.067	25921
826.206	25970
826.346	25997
826.485	25997
826.625	25978
826.765	25978
826.904	25913
827.044	25632
827.183	25746
827.323	25670
827.462	25594
827.601	25780
827.741	25746
827.88	25556
828.02	25582
828.159	25719
828.298	25666
828.437	25643
828.577	25567
828.716	25746
828.855	25567
828.994	25407
829.134	25335
829.273	25392
829.412	25251
829.551	25209
829.69	25312
829.829	25362
829.968	25373
830.107	25316
830.246	25362
830.385	25289
830.524	25259
830.663	25198
830.802	25091
830.941	24837
831.08	24970
831.219	24966
831.357	24905
831.496	25255
831.635	24886
831.774	24798
831.913	24856
832.051	24700
832.19	24741
832.329	24844
832.467	24753
832.606	24612
832.744	24578
832.883	24551
833.022	24566
833.16	24604
833.299	24639
833.437	24616
833.576	24749
833.714	24540
833.852	24665
833.991	24757
834.129	24875
834.267	24692
834.406	24711
834.544	24700
834.682	24703
834.821	24658
834.959	24749
835.097	24505
835.235	24646
835.373	24745
835.511	24642
835.65	24612
835.788	24544
835.926	24433
836.064	24266
836.202	24418
836.34	24452
836.478	24608
836.615	24513
836.753	24509
836.891	24494
837.029	24395
837.167	24475
837.305	24433
837.443	24414
837.58	24327
837.718	24414
837.856	24399
837.993	24262
838.131	24357
838.269	24224
838.406	24197
838.544	24216
838.681	23946
838.819	23950
838.956	23817
839.094	23813
839.231	23859
839.369	23965
839.506	24235
839.643	24030
839.781	23786
839.918	23756
840.055	23714
840.193	23779
840.33	23786
840.467	23665
840.604	23691
840.742	24038
840.879	23596
841.016	23691
841.153	23638
841.29	23748
841.427	23718
841.564	23726
841.701	23764
841.838	23729
841.975	23516
842.112	23771
842.249	23562
842.385	23410
842.522	23585
842.659	23474
842.796	23486
842.933	23444
843.069	23349
843.206	23459
843.343	23497
843.479	23531
843.616	23433
843.752	23220
843.889	23178
844.025	23383
844.162	23303
844.298	23292
844.435	23296
844.571	23197
844.708	23356
844.844	23497
844.98	23436
845.117	23349
845.253	23258
845.389	23052
845.525	23197
845.661	22965
845.798	22930
845.934	23147
846.07	22972
846.206	23056
846.342	23086
846.478	22965
846.614	22809
846.75	22557
846.886	22729
847.022	22736
847.158	22778
847.294	22729
847.429	22675
847.565	22706
847.701	22915
847.837	22485
847.972	22424
848.108	22512
848.244	22550
848.379	22284
848.515	22284
848.65	22322
848.786	22360
848.921	22287
849.057	22386
849.192	22413
849.328	22265
849.463	22242
849.598	22219
849.734	22238
849.869	22192
850.004	22044
850.14	22105
850.275	22147
850.41	21907
850.545	22032
850.68	22070
850.815	22082
850.95	22166
851.085	22135
851.22	22173
851.355	22139
851.49	22013
851.625	22017
851.76	21991
851.895	21998
852.03	22006
852.165	22044
852.299	22223
852.434	22196
852.569	22204
852.703	22135
852.838	22124
852.973	22234
853.107	22181
853.242	22032
853.376	21979
853.511	21831
853.645	21869
853.78	21922
853.914	21876
854.048	21907
854.183	21800
854.317	21819
854.451	22192
854.585	21907
854.72	21956
854.854	21922
854.988	21915
855.122	21899
855.256	21838
855.39	21774
855.524	21930
855.658	21968
855.792	21911
855.926	22006
856.06	21964
856.194	21998
856.327	21987
856.461	21827
856.595	21854
856.729	21865
856.862	21998
856.996	21869
857.13	21953
857.263	22010
857.397	22086
857.53	21812
857.664	22010
857.797	21937
857.931	22063
858.064	21892
858.197	21964
858.331	21793
858.464	21899
858.597	21934
858.731	21869
858.864	21876
858.997	21888
859.13	21911
859.263	21857
859.396	22044
859.529	21876
859.662	21895
859.795	21869
859.928	21983
860.061	22109
860.194	21979
860.327	21930
860.46	22025
860.592	22169
860.725	22029
860.858	22040
860.99	21979
861.123	21785
861.256	21850
861.388	21937
861.521	22554
861.653	21759
861.786	21690
861.918	21743
862.05	21720
862.183	21808
862.315	21915
862.447	21846
862.58	21778
862.712	21504
862.844	21568
862.976	21705
863.108	21793
863.24	21998
863.372	21435
863.504	21625
863.636	21698
863.768	21625
863.9	21606
864.032	21538
864.164	21462
864.296	21705
864.428	21705
864.559	21717
864.691	21641
864.823	21610
864.954	21580
865.086	21587
865.217	21530
865.349	21443
865.48	21492
865.612	21447
865.743	21679
865.875	21439
866.006	21389
866.137	21454
866.269	21599
866.4	21389
866.531	21450
866.662	21348
866.793	21523
866.924	21466
867.055	21447
867.186	21507
867.317	21344
867.448	21302
867.579	21397
867.71	21450
867.841	21374
867.972	21439
868.103	21488
868.233	21405
868.364	21378
868.495	21553
868.625	21656
868.756	21732
868.886	21663
869.017	21682
869.147	21831
869.278	21785
869.408	21762
869.539	21709
869.669	21690
869.799	21736
869.929	21941
870.06	21751
870.19	21941
870.32	21934
870.45	22021
870.58	22074
870.71	22124
870.84	22173
870.97	22044
871.1	22131
871.23	22238
871.36	22185
871.489	22143
871.619	22173
871.749	22280
871.879	22265
872.008	22348
872.138	22257
872.267	22299
872.397	22242
872.526	22070
872.656	22070
872.785	22093
872.915	22382
873.044	22265
873.173	22367
873.303	22303
873.432	22257
873.561	22291
873.69	22287
873.819	22253
873.948	22333
874.077	22299
874.206	22276
874.335	22303
874.464	22451
874.593	22580
874.722	22478
874.851	22542
874.979	22436
875.108	22577
875.237	22462
875.365	22405
875.494	22565
875.623	22679
875.751	22478
875.88	22615
876.008	22748
876.136	22767
876.265	22892
876.393	23117
876.521	22877
876.65	22953
876.778	22938
876.906	22885
877.034	22835
877.162	22972
877.29	22908
877.418	22786
877.546	22980
877.674	22850
877.802	22820
877.93	22801
878.058	22831
878.185	22793
878.313	22790
878.441	22881
878.568	22683
878.696	22759
878.824	22923
878.951	22965
879.079	23056
879.206	23117
879.333	22976
879.461	22786
879.588	22900
879.715	22968
879.842	23181
879.97	22900
880.097	22687
880.224	22694
880.351	22877
880.478	22622
880.605	22630
880.732	22683
880.859	23037
880.986	22618
881.112	22721
881.239	22580
881.366	22451
881.493	22428
881.619	22314
881.746	22360
881.872	22166
881.999	22207
882.125	22112
882.252	22348
882.378	22284
882.505	22280
882.631	22109
882.757	21998
882.883	21964
883.01	21918
883.136	21873
883.262	21800
883.388	21743
883.514	21960
883.64	22040
883.766	21819
883.892	21679
884.018	21724
884.143	21861
884.269	22086
884.395	21561
884.52	21572
884.646	21526
884.772	21561
884.897	21416
885.023	21580
885.148	21663
885.274	21698
885.399	21701
885.524	21545
885.65	21580
885.775	21622
885.9	21443
886.025	21667
886.15	21698
886.275	21629
886.4	21473
886.525	21580
886.65	21614
886.775	21428
886.9	21648
887.025	21789
887.149	21637
887.274	21291
887.399	21245
887.523	21469
887.648	21351
887.773	21272
887.897	21340
888.021	21325
888.146	21275
888.27	21443
888.395	21473
888.519	21260
888.643	21332
888.767	21382
888.891	21173
889.015	21146
889.139	21195
889.263	21051
889.387	21176
889.511	21329
889.635	21272
889.759	21119
889.883	21104
890.006	21085
890.13	21169
890.254	20944
890.377	21085
890.501	21043
890.624	20872
890.748	20921
890.871	20743
890.995	20632
891.118	20697
891.241	20708
891.364	20648
891.488	20872
891.611	20716
891.734	20663
891.857	20674
891.98	20701
892.103	20792
892.226	20689
892.349	20796
892.471	20465
892.594	20594
892.717	20667
892.839	20609
892.962	20594
893.085	20613
893.207	20609
893.33	20469
893.452	20488
893.575	20644
893.697	20613
893.819	20804
893.941	20689
894.064	20708
894.186	20499
894.308	20412
894.43	20762
894.552	20655
894.674	20564
894.796	20480
894.918	20568
895.04	20476
895.161	20602
895.283	20629
895.405	20533
895.526	20606
895.648	20590
895.769	20667
895.891	20644
896.012	20651
896.134	20571
896.255	20552
896.376	20571
896.498	20651
896.619	20629
896.74	20564
896.861	20606
896.982	20876
897.103	20971
897.224	20731
897.345	20804
897.466	20785
897.587	20629
897.708	20819
897.828	20773
897.949	20716
898.07	20644
898.19	20667
898.311	20800
898.431	20670
898.552	20765
898.672	20891
898.792	20788
898.913	20777
899.033	20659
899.153	20632
899.273	20511
899.393	20457
899.513	20564
899.633	20556
899.753	20438
899.873	20427
899.993	20568
900.113	20415
900.232	20465
900.352	20427
900.472	20412
900.591	20301
900.711	20328
900.83	20320
900.95	20404
901.069	20351
901.189	20138
901.308	20020
901.427	19894
901.546	19871
901.665	19868
901.784	19894
901.904	19670
902.023	19643
902.141	19468
902.26	19327
902.379	19350
902.498	19365
902.617	19396
902.735	19506
902.854	19373
902.973	19354
903.091	19031
903.21	19152
903.328	19023
903.446	18966
903.565	18833
903.683	18768
903.801	18844
903.919	18783
904.038	18806
904.156	18631
904.274	18684
904.392	18563
904.51	18544
904.627	18547
904.745	18661
904.863	18661
904.981	18403
905.098	18365
905.216	18296
905.334	18174
905.451	18334
905.569	18266
905.686	18399
905.803	18243
905.921	18155
906.038	18171
906.155	18091
906.272	17984
906.389	17984
906.506	17843
906.623	17942
906.74	17710
906.857	17726
906.974	17729
907.091	17866
907.208	17954
907.324	17737
907.441	17608
907.557	17478
907.674	17642
907.79	17372
907.907	17589
908.023	17596
908.139	17512
908.256	17421
908.372	17414
908.488	17433
908.604	17299
908.72	17246
908.836	17220
908.952	17223
909.068	17288
909.184	17455
909.3	17193
909.415	17280
909.531	17185
909.647	17041
909.762	16911
909.878	17045
909.993	16896
910.108	16961
910.224	16900
910.339	16869
910.454	16919
910.57	16771
910.685	16683
910.8	16946
910.915	16812
911.03	16721
911.145	16542
911.259	16493
911.374	16596
911.489	16478
911.604	16402
911.718	16310
911.833	16299
911.947	16025
912.062	16116
912.176	16276
912.291	16284
912.405	16287
912.519	16325
912.633	16451
912.748	16306
912.862	16223
912.976	16067
913.09	16006
913.204	16036
913.318	16120
913.431	16169
913.545	16143
913.659	16162
913.772	16071
913.886	15934
914	15835
914.113	15949
914.226	15994
914.34	15994
914.453	15774
914.566	15800
914.68	15781
914.793	15713
914.906	15519
915.019	15500
915.132	15454
915.245	15447
915.358	15504
915.47	15454
915.583	15424
915.696	15526
915.809	15542
915.921	15485
916.034	15431
916.146	15325
916.259	15283
916.371	15481
916.483	15424
916.595	15355
916.708	15313
916.82	15268
916.932	15268
917.044	15367
917.156	15154
917.268	15085
917.38	15195
917.491	15085
917.603	15127
917.715	15070
917.826	15211
917.938	15009
918.049	14960
918.161	15108
918.272	15188
918.384	15214
918.495	15066
918.606	14910
918.717	14807
918.828	14895
918.939	14857
919.05	14800
919.161	14750
919.272	14560
919.383	14762
919.494	14914
919.604	15058
919.715	14838
919.826	14727
919.936	14872
920.047	14845
920.157	14842
920.267	14952
920.378	14739
920.488	14773
920.598	15039
920.708	15135
920.818	14990
920.928	14960
921.038	15169
921.148	15074
921.258	14754
921.368	14678
921.477	14549
921.587	14552
921.697	14427
921.806	14606
921.916	14362
922.025	14286
922.134	14233
922.244	14145
922.353	14206
922.462	14157
922.571	13963
922.68	13894
922.789	13902
922.898	13856
923.007	13757
923.116	13894
923.224	13772
923.333	13811
923.442	13609
923.55	13643
923.659	13651
923.767	13636
923.876	13624
923.984	13651
924.092	13521
924.201	13578
924.309	13742
924.417	13559
924.525	13415
924.633	13438
924.741	14412
924.849	13415
924.956	13354
925.064	13221
925.172	13251
925.279	13263
925.387	13346
925.494	13156
925.602	13384
925.709	13312
925.816	13198
925.924	13255
926.031	13217
926.138	13209
926.245	13228
926.352	13072
926.459	13179
926.566	13244
926.673	13076
926.779	12916
926.886	12932
926.993	12859
927.099	12806
927.206	12684
927.312	12700
927.419	12802
927.525	12795
927.631	12806
927.737	12654
927.843	12566
927.95	12616
928.056	12616
928.162	12623
928.267	12604
928.373	13259
928.479	12692
928.585	12456
928.69	12555
928.796	12635
928.901	12414
929.007	12350
929.112	12525
929.218	12407
929.323	12334
929.428	12292
929.533	12456
929.638	12239
929.743	12285
929.848	12338
929.953	12224
930.058	12144
930.163	11988
930.267	11950
930.372	12095
930.477	11980
930.581	12194
930.685	11999
930.79	11954
930.894	11942
930.998	11809
931.103	11977
931.207	11543
931.311	11493
931.415	11551
931.519	11273
931.623	11246
