Data from test_V78500241_397.txt Node
Date: Fri Mar 25 15:44:33 CST 2022
User: usil
Spectrometer: V785-0024
Trigger mode: 0
Integration Time (sec): 4.000000E-1
Scans to average: 1
Nonlinearity correction enabled: false
Boxcar width: 0
Storing dark spectrum: false
XAxis mode: Wavelengths
Number of Pixels in Spectrum: 1024
>>>>>Begin Spectral Data<<<<<
801.071	29231
801.214	29136
801.356	28968
801.499	28862
801.641	28603
801.783	28630
801.926	28565
802.068	28656
802.211	28451
802.353	28447
802.496	28310
802.638	28440
802.78	28344
802.923	28215
803.065	28257
803.208	28322
803.35	28318
803.492	28386
803.635	28440
803.777	28409
803.919	28421
804.061	28843
804.204	28481
804.346	28527
804.488	28265
804.63	28512
804.773	28424
804.915	28428
805.057	28523
805.199	28550
805.341	28417
805.483	28516
805.626	28523
805.768	28466
805.91	28519
806.052	28527
806.194	28546
806.336	28679
806.478	28691
806.62	28713
806.762	28847
806.904	28961
807.046	29075
807.188	29102
807.33	28980
807.472	29170
807.614	29048
807.756	28942
807.898	28919
808.04	28782
808.182	28786
808.324	28885
808.465	28733
808.607	29113
808.749	29162
808.891	29459
809.033	29417
809.174	29395
809.316	29387
809.458	29258
809.6	29280
809.741	29364
809.883	29296
810.025	29512
810.166	29463
810.308	29482
810.45	29554
810.591	29615
810.733	29398
810.875	29128
811.016	29124
811.158	29140
811.299	29395
811.441	29391
811.582	29596
811.724	29315
811.865	29136
812.007	29162
812.148	29197
812.29	29349
812.431	29250
812.573	29630
812.714	29714
812.855	29703
812.997	29828
813.138	30011
813.279	29893
813.421	29851
813.562	29775
813.703	29596
813.845	29505
813.986	29151
814.127	29128
814.268	28801
814.41	28946
814.551	28923
814.692	28866
814.833	28892
814.974	28805
815.115	28820
815.256	28759
815.397	28748
815.539	28835
815.68	28630
815.821	28641
815.962	28641
816.103	28809
816.244	28542
816.385	28432
816.526	28440
816.666	28379
816.807	28090
816.948	28215
817.089	28417
817.23	28032
817.371	28177
817.512	28196
817.653	28044
817.793	28067
817.934	28143
818.075	28120
818.216	28219
818.356	28105
818.497	28021
818.638	28010
818.778	27831
818.919	27785
819.06	28086
819.2	28021
819.341	28078
819.481	28029
819.622	28287
819.762	28401
819.903	28287
820.043	28230
820.184	28284
820.324	28280
820.465	28306
820.605	28325
820.746	28268
820.886	28063
821.026	28120
821.167	28158
821.307	27994
821.447	28124
821.588	28090
821.728	27850
821.868	27652
822.008	27557
822.149	27507
822.289	27663
822.429	27310
822.569	27150
822.709	27207
822.849	27020
822.99	27058
823.13	26979
823.27	26975
823.41	26948
823.55	26716
823.69	26937
823.83	26842
823.97	26746
824.11	26708
824.25	26560
824.389	26655
824.529	26708
824.669	26552
824.809	26712
824.949	26804
825.089	26659
825.228	26689
825.368	26545
825.508	26583
825.648	26613
825.787	26507
825.927	26480
826.067	26370
826.206	26488
826.346	26530
826.485	26480
826.625	26495
826.765	26552
826.904	26511
827.044	26275
827.183	26286
827.323	26103
827.462	26210
827.601	26214
827.741	26008
827.88	26161
828.02	26092
828.159	26183
828.298	26138
828.437	26259
828.577	26031
828.716	26214
828.855	26081
828.994	25856
829.134	25932
829.273	26016
829.412	25708
829.551	25822
829.69	25811
829.829	25928
829.968	25841
830.107	25879
830.246	25723
830.385	25780
830.524	25605
830.663	25597
830.802	25575
830.941	25392
831.08	25339
831.219	25472
831.357	25594
831.496	25582
831.635	25373
831.774	25297
831.913	25316
832.051	25084
832.19	25171
832.329	25225
832.467	25080
832.606	25080
832.744	24916
832.883	25088
833.022	25091
833.16	24848
833.299	25114
833.437	25133
833.576	25194
833.714	25198
833.852	25137
833.991	25190
834.129	25346
834.267	25156
834.406	25080
834.544	25107
834.682	25190
834.821	24970
834.959	25183
835.097	25152
835.235	25103
835.373	25103
835.511	25008
835.65	24890
835.788	25076
835.926	24814
836.064	24867
836.202	24821
836.34	24859
836.478	24901
836.615	24954
836.753	24947
836.891	25023
837.029	24909
837.167	24730
837.305	24932
837.443	24719
837.58	24798
837.718	24825
837.856	24856
837.993	24642
838.131	24696
838.269	24540
838.406	24681
838.544	24483
838.681	24471
838.819	24361
838.956	24186
839.094	24140
839.231	24266
839.369	24342
839.506	24479
839.643	24391
839.781	24133
839.918	24049
840.055	24129
840.193	24095
840.33	24076
840.467	24034
840.604	24072
840.742	24410
840.879	23866
841.016	24064
841.153	24007
841.29	24171
841.427	24060
841.564	24018
841.701	24106
841.838	24034
841.975	23897
842.112	23973
842.249	23855
842.385	23874
842.522	23961
842.659	23939
842.796	23885
842.933	23703
843.069	23722
843.206	23634
843.343	23684
843.479	23809
843.616	23737
843.752	23463
843.889	23524
844.025	23642
844.162	23471
844.298	23604
844.435	23596
844.571	23581
844.708	23589
844.844	23501
844.98	23573
845.117	23611
845.253	23467
845.389	23410
845.525	23512
845.661	23315
845.798	23216
845.934	23311
846.07	23170
846.206	23242
846.342	23467
846.478	23315
846.614	22923
846.75	23006
846.886	22984
847.022	23037
847.158	23041
847.294	22919
847.429	23041
847.565	22965
847.701	23147
847.837	22713
847.972	22519
848.108	22660
848.244	22733
848.379	22672
848.515	22485
848.65	22565
848.786	22653
848.921	22630
849.057	22611
849.192	22672
849.328	22637
849.463	22421
849.598	22542
849.734	22500
849.869	22455
850.004	22314
850.14	22329
850.275	22375
850.41	22219
850.545	22177
850.68	22303
850.815	22276
850.95	22200
851.085	22363
851.22	22500
851.355	22234
851.49	22295
851.625	22234
851.76	22325
851.895	22192
852.03	22154
852.165	22261
852.299	22154
852.434	22371
852.569	22291
852.703	22219
852.838	22386
852.973	22363
853.107	22352
853.242	22109
853.376	22230
853.511	22021
853.645	21953
853.78	22177
853.914	22032
854.048	21949
854.183	21953
854.317	22238
854.451	22280
854.585	22021
854.72	22029
854.854	22017
854.988	21915
855.122	22055
855.256	21964
855.39	22040
855.524	22135
855.658	22067
855.792	22059
855.926	22029
856.06	22082
856.194	22143
856.327	22017
856.461	21956
856.595	22036
856.729	22017
856.862	22223
856.996	22032
857.13	22158
857.263	22116
857.397	22158
857.53	22002
857.664	22067
857.797	22063
857.931	22150
858.064	22025
858.197	22116
858.331	22070
858.464	21983
858.597	21972
858.731	21987
858.864	21991
858.997	21949
859.13	22162
859.263	22040
859.396	22070
859.529	22025
859.662	21918
859.795	22097
859.928	22002
860.061	22207
860.194	22226
860.327	21991
860.46	21934
860.592	22238
860.725	22158
860.858	22090
860.99	22048
861.123	22029
861.256	21949
861.388	22101
861.521	22767
861.653	21956
861.786	21793
861.918	21884
862.05	21991
862.183	21926
862.315	21983
862.447	22063
862.58	21934
862.712	21622
862.844	21656
862.976	21778
863.108	21808
863.24	22116
863.372	21595
863.504	21717
863.636	21709
863.768	21720
863.9	21774
864.032	21591
864.164	21698
864.296	21835
864.428	21876
864.559	21789
864.691	21789
864.823	21736
864.954	21656
865.086	21633
865.217	21599
865.349	21603
865.48	21564
865.612	21576
865.743	21762
865.875	21603
866.006	21553
866.137	21572
866.269	21675
866.4	21576
866.531	21580
866.662	21477
866.793	21496
866.924	21485
867.055	21435
867.186	21576
867.317	21504
867.448	21348
867.579	21454
867.71	21382
867.841	21469
867.972	21477
868.103	21431
868.233	21481
868.364	21454
868.495	21504
868.625	21732
868.756	21819
868.886	21793
869.017	21850
869.147	21854
869.278	21819
869.408	21766
869.539	21743
869.669	21808
869.799	21808
869.929	21850
870.06	21861
870.19	22143
870.32	22021
870.45	22063
870.58	22048
870.71	22318
870.84	22200
870.97	22188
871.1	22124
871.23	22249
871.36	22341
871.489	22268
871.619	22413
871.749	22390
871.879	22421
872.008	22599
872.138	22348
872.267	22348
872.397	22249
872.526	22276
872.656	22173
872.785	22261
872.915	22257
873.044	22478
873.173	22329
873.303	22394
873.432	22447
873.561	22428
873.69	22356
873.819	22398
873.948	22367
874.077	22451
874.206	22272
874.335	22409
874.464	22527
874.593	22512
874.722	22596
874.851	22702
874.979	22736
875.108	22565
875.237	22599
875.365	22478
875.494	22565
875.623	22691
875.751	22687
875.88	22569
876.008	22744
876.136	22793
876.265	22934
876.393	23124
876.521	23075
876.65	22976
876.778	23029
876.906	22953
877.034	23014
877.162	22919
877.29	22759
877.418	22987
877.546	22984
877.674	22942
877.802	22812
877.93	22991
878.058	23003
878.185	22942
878.313	22881
878.441	22942
878.568	22767
878.696	22866
878.824	22965
878.951	22957
879.079	23170
879.206	23277
879.333	22957
879.461	22972
879.588	23044
879.715	23117
879.842	23258
879.97	23128
880.097	22683
880.224	22816
880.351	22744
880.478	22812
880.605	22698
880.732	22656
880.859	22927
880.986	22782
881.112	22729
881.239	22710
881.366	22508
881.493	22367
881.619	22268
881.746	22352
881.872	22390
881.999	22268
882.125	22242
882.252	22375
882.378	22325
882.505	22402
882.631	22265
882.757	22032
882.883	22154
883.01	22032
883.136	22010
883.262	21979
883.388	21793
883.514	21991
883.64	22154
883.766	21987
883.892	21835
884.018	21816
884.143	21979
884.269	22025
884.395	21838
884.52	21561
884.646	21625
884.772	21648
884.897	21435
885.023	21762
885.148	21698
885.274	21778
885.399	21808
885.524	21675
885.65	21705
885.775	21671
885.9	21751
886.025	21835
886.15	21679
886.275	21591
886.4	21633
886.525	21599
886.65	21515
886.775	21591
886.9	21755
887.025	21934
887.149	21667
887.274	21557
887.399	21378
887.523	21462
887.648	21344
887.773	21302
887.897	21420
888.021	21504
888.146	21367
888.27	21469
888.395	21523
888.519	21580
888.643	21424
888.767	21454
888.891	21355
889.015	21249
889.139	21249
889.263	21249
889.387	21233
889.511	21348
889.635	21226
889.759	21116
889.883	21154
890.006	21150
890.13	21283
890.254	21176
890.377	21150
890.501	20849
890.624	20842
890.748	21020
890.871	20834
890.995	20682
891.118	20826
891.241	20712
891.364	20804
891.488	20887
891.611	20777
891.734	20777
891.857	20727
891.98	20849
892.103	20804
892.226	20849
892.349	20769
892.471	20590
892.594	20746
892.717	20777
892.839	20655
892.962	20765
893.085	20864
893.207	20648
893.33	20545
893.452	20571
893.575	20659
893.697	20636
893.819	20746
893.941	20910
894.064	20807
894.186	20518
894.308	20598
894.43	20804
894.552	20861
894.674	20792
894.796	20583
894.918	20568
895.04	20625
895.161	20731
895.283	20758
895.405	20708
895.526	20781
895.648	20636
895.769	20735
895.891	20686
896.012	20621
896.134	20796
896.255	20731
896.376	20659
896.498	20659
896.619	20762
896.74	20686
896.861	20743
896.982	21062
897.103	21062
897.224	21100
897.345	20895
897.466	20819
897.587	20979
897.708	21024
897.828	21066
897.949	20914
898.07	20731
898.19	20937
898.311	20979
898.431	20887
898.552	20792
898.672	20929
898.792	20914
898.913	20925
899.033	20746
899.153	20754
899.273	20663
899.393	20598
899.513	20552
899.633	20648
899.753	20587
899.873	20583
899.993	20514
900.113	20533
900.232	20526
900.352	20404
900.472	20457
900.591	20450
900.711	20415
900.83	20385
900.95	20488
901.069	20526
901.189	20336
901.308	20050
901.427	20001
901.546	20020
901.665	19997
901.784	19959
901.904	19803
902.023	19727
902.141	19597
902.26	19563
902.379	19556
902.498	19487
902.617	19514
902.735	19476
902.854	19441
902.973	19434
903.091	19168
903.21	19088
903.328	19160
903.446	19004
903.565	18856
903.683	18943
903.801	18859
903.919	18875
904.038	18764
904.156	18798
904.274	18749
904.392	18688
904.51	18760
904.627	18730
904.745	18722
904.863	18760
904.981	18506
905.098	18372
905.216	18338
905.334	18338
905.451	18490
905.569	18228
905.686	18365
905.803	18357
905.921	18182
906.038	18155
906.155	18197
906.272	17958
906.389	18057
906.506	17973
906.623	17920
906.74	17855
906.857	17703
906.974	17828
907.091	17931
907.208	18007
907.324	17912
907.441	17722
907.557	17585
907.674	17562
907.79	17623
907.907	17535
908.023	17512
908.139	17532
908.256	17490
908.372	17318
908.488	17417
908.604	17208
908.72	17292
908.836	17395
908.952	17254
909.068	17277
909.184	17288
909.3	17265
909.415	17288
909.531	17136
909.647	16987
909.762	17079
909.878	17033
909.993	16900
910.108	16961
910.224	16915
910.339	16923
910.454	16896
910.57	16763
910.685	16755
910.8	17003
910.915	16896
911.03	16656
911.145	16466
911.259	16516
911.374	16584
911.489	16523
911.604	16367
911.718	16246
911.833	16268
911.947	16238
912.062	16207
912.176	16344
912.291	16253
912.405	16261
912.519	16542
912.633	16421
912.748	16440
912.862	16181
912.976	16082
913.09	16032
913.204	16124
913.318	16067
913.431	16204
913.545	16154
913.659	16086
913.772	16086
913.886	15956
914	15880
914.113	16010
914.226	16055
914.34	15975
914.453	15724
914.566	15956
914.68	15671
914.793	15633
914.906	15549
915.019	15511
915.132	15549
915.245	15526
915.358	15519
915.47	15511
915.583	15424
915.696	15408
915.809	15599
915.921	15663
916.034	15428
916.146	15340
916.259	15184
916.371	15526
916.483	15405
916.595	15249
916.708	15264
916.82	15291
916.932	15264
917.044	15218
917.156	15310
917.268	15184
917.38	15157
917.491	15127
917.603	15138
917.715	15211
917.826	15176
917.938	15005
918.049	14811
918.161	15089
918.272	15192
918.384	15184
918.495	15013
918.606	14868
918.717	14800
918.828	14819
918.939	14899
919.05	14811
919.161	14864
919.272	14617
919.383	14773
919.494	14826
919.604	14929
919.715	14891
919.826	14659
919.936	14735
920.047	14845
920.157	14712
920.267	14937
920.378	14769
920.488	14720
920.598	14979
920.708	15020
920.818	14880
920.928	14899
921.038	15043
921.148	14990
921.258	14807
921.368	14625
921.477	14533
921.587	14454
921.697	14408
921.806	14492
921.916	14434
922.025	14134
922.134	14126
922.244	14161
922.353	14161
922.462	14062
922.571	13978
922.68	13871
922.789	13788
922.898	13784
923.007	13795
923.116	13727
923.224	13791
923.333	13769
923.442	13620
923.55	13651
923.659	13742
923.767	13693
923.876	13578
923.984	13605
924.092	13521
924.201	13499
924.309	13575
924.417	13533
924.525	13392
924.633	13441
924.741	14103
924.849	13301
924.956	13327
925.064	13244
925.172	13156
925.279	13149
925.387	13141
925.494	13221
925.602	13263
925.709	13225
925.816	13160
925.924	13160
926.031	13343
926.138	13126
926.245	13198
926.352	12996
926.459	13171
926.566	13228
926.673	13012
926.779	12867
926.886	12947
926.993	12776
927.099	12776
927.206	12707
927.312	12688
927.419	12753
927.525	12821
927.631	12700
927.737	12635
927.843	12570
927.95	12536
928.056	12620
928.162	12601
928.267	12578
928.373	13289
928.479	12696
928.585	12342
928.69	12627
928.796	12559
928.901	12517
929.007	12292
929.112	12441
929.218	12327
929.323	12418
929.428	12289
929.533	12391
929.638	12270
929.743	12292
929.848	12296
929.953	12247
930.058	12068
930.163	11965
930.267	11973
930.372	12083
930.477	11889
930.581	12163
930.685	11954
930.79	11802
930.894	11889
930.998	11840
931.103	11999
931.207	11528
931.311	11486
931.415	11436
931.519	11121
931.623	11155
