Data from test_V78500241_1050.txt Node
Date: Fri Mar 25 15:49:04 CST 2022
User: usil
Spectrometer: V785-0024
Trigger mode: 0
Integration Time (sec): 4.000000E-1
Scans to average: 1
Nonlinearity correction enabled: false
Boxcar width: 0
Storing dark spectrum: false
XAxis mode: Wavelengths
Number of Pixels in Spectrum: 1024
>>>>>Begin Spectral Data<<<<<
801.071	28535
801.214	28607
801.356	28067
801.499	28204
801.641	28177
801.783	28048
801.926	28158
802.068	27994
802.211	27854
802.353	27869
802.496	27743
802.638	27728
802.78	27690
802.923	27720
803.065	27705
803.208	27641
803.35	27675
803.492	27857
803.635	27934
803.777	27911
803.919	27937
804.061	28299
804.204	28135
804.346	27884
804.488	27895
804.63	28029
804.773	27934
804.915	28059
805.057	28070
805.199	27880
805.341	28021
805.483	28086
805.626	27994
805.768	28070
805.91	28093
806.052	28139
806.194	28093
806.336	28451
806.478	28253
806.62	28139
806.762	28306
806.904	28512
807.046	28622
807.188	28713
807.33	28470
807.472	28763
807.614	28557
807.756	28500
807.898	28481
808.04	28299
808.182	28367
808.324	28603
808.465	28580
808.607	28721
808.749	28786
808.891	28934
809.033	28972
809.174	28835
809.316	28995
809.458	28816
809.6	28896
809.741	28995
809.883	28953
810.025	29185
810.166	29041
810.308	29239
810.45	29079
810.591	29044
810.733	28896
810.875	28816
811.016	28862
811.158	28793
811.299	29083
811.441	29140
811.582	29090
811.724	29052
811.865	28919
812.007	28915
812.148	28831
812.29	28949
812.431	29193
812.573	29060
812.714	29254
812.855	29429
812.997	29554
813.138	29562
813.279	29554
813.421	29280
813.562	29398
813.703	29216
813.845	29079
813.986	28927
814.127	28622
814.268	28592
814.41	28481
814.551	28584
814.692	28603
814.833	28596
814.974	28508
815.115	28489
815.256	28596
815.397	28523
815.539	28421
815.68	28401
815.821	28276
815.962	28413
816.103	28367
816.244	28200
816.385	28169
816.526	28150
816.666	27987
816.807	27804
816.948	28017
817.089	28017
817.23	27865
817.371	28063
817.512	27979
817.653	27819
817.793	27914
817.934	27850
818.075	28002
818.216	27865
818.356	27751
818.497	27774
818.638	27644
818.778	27800
818.919	27557
819.06	27732
819.2	27831
819.341	27793
819.481	27831
819.622	28143
819.762	28207
819.903	28185
820.043	28101
820.184	28067
820.324	27956
820.465	28150
820.605	28105
820.746	28013
820.886	27838
821.026	28044
821.167	27994
821.307	28090
821.447	27922
821.588	27861
821.728	27728
821.868	27519
822.008	27363
822.149	27393
822.289	27424
822.429	27135
822.569	27062
822.709	27138
822.849	26933
822.99	26975
823.13	26925
823.27	26796
823.41	26785
823.55	26735
823.69	26720
823.83	26739
823.97	26541
824.11	26507
824.25	26575
824.389	26419
824.529	26552
824.669	26511
824.809	26727
824.949	26708
825.089	26571
825.228	26655
825.368	26347
825.508	26419
825.648	26442
825.787	26377
825.927	26396
826.067	26473
826.206	26396
826.346	26473
826.485	26579
826.625	26473
826.765	26537
826.904	26484
827.044	26183
827.183	26229
827.323	26149
827.462	26168
827.601	26290
827.741	26149
827.88	26164
828.02	25932
828.159	26111
828.298	26214
828.437	26267
828.577	26096
828.716	26221
828.855	25982
828.994	25818
829.134	25974
829.273	25830
829.412	25826
829.551	25685
829.69	25894
829.829	25753
829.968	26062
830.107	25887
830.246	25715
830.385	25757
830.524	25841
830.663	25639
830.802	25521
830.941	25426
831.08	25373
831.219	25605
831.357	25525
831.496	25514
831.635	25438
831.774	25415
831.913	25403
832.051	25240
832.19	25270
832.329	25255
832.467	25118
832.606	25091
832.744	25072
832.883	25148
833.022	25038
833.16	25053
833.299	25187
833.437	25145
833.576	25304
833.714	25114
833.852	25225
833.991	25187
834.129	25255
834.267	25289
834.406	25377
834.544	25221
834.682	25190
834.821	25228
834.959	25240
835.097	25031
835.235	25213
835.373	25023
835.511	25129
835.65	25061
835.788	24973
835.926	24806
836.064	24779
836.202	24783
836.34	24981
836.478	25103
836.615	25019
836.753	25061
836.891	24966
837.029	24886
837.167	24867
837.305	24821
837.443	24867
837.58	24749
837.718	24878
837.856	24795
837.993	24696
838.131	24829
838.269	24604
838.406	24814
838.544	24749
838.681	24475
838.819	24452
838.956	24239
839.094	24311
839.231	24292
839.369	24418
839.506	24798
839.643	24661
839.781	24289
839.918	24197
840.055	24273
840.193	24247
840.33	24247
840.467	24216
840.604	24209
840.742	24388
840.879	24102
841.016	24102
841.153	24079
841.29	24194
841.427	24243
841.564	24182
841.701	24053
841.838	24243
841.975	24057
842.112	24083
842.249	24060
842.385	23855
842.522	24197
842.659	24148
842.796	24003
842.933	23874
843.069	24034
843.206	23885
843.343	23988
843.479	24003
843.616	23851
843.752	23726
843.889	23775
844.025	23813
844.162	23608
844.298	23729
844.435	23722
844.571	23703
844.708	23775
844.844	23923
844.98	23843
845.117	23786
845.253	23528
845.389	23604
845.525	23554
845.661	23577
845.798	23452
845.934	23604
846.07	23501
846.206	23463
846.342	23520
846.478	23478
846.614	23292
846.75	23102
846.886	23170
847.022	23250
847.158	23155
847.294	23303
847.429	23220
847.565	23189
847.701	23345
847.837	22987
847.972	22896
848.108	23086
848.244	23003
848.379	22793
848.515	22812
848.65	22793
848.786	22816
848.921	22873
849.057	22885
849.192	22919
849.328	22881
849.463	22713
849.598	22710
849.734	22683
849.869	22615
850.004	22462
850.14	22519
850.275	22489
850.41	22356
850.545	22550
850.68	22405
850.815	22523
850.95	22500
851.085	22854
851.22	22527
851.355	22527
851.49	22573
851.625	22455
851.76	22386
851.895	22447
852.03	22398
852.165	22436
852.299	22565
852.434	22500
852.569	22565
852.703	22577
852.838	22630
852.973	22565
853.107	22637
853.242	22645
853.376	22474
853.511	22257
853.645	22322
853.78	22500
853.914	22440
854.048	22333
854.183	22390
854.317	22325
854.451	22512
854.585	22284
854.72	22348
854.854	22432
854.988	22333
855.122	22512
855.256	22101
855.39	22322
855.524	22371
855.658	22405
855.792	22352
855.926	22382
856.06	22493
856.194	22455
856.327	22314
856.461	22299
856.595	22367
856.729	22303
856.862	22481
856.996	22363
857.13	22386
857.263	22417
857.397	22455
857.53	22310
857.664	22421
857.797	22447
857.931	22542
858.064	22337
858.197	22402
858.331	22500
858.464	22230
858.597	22169
858.731	22314
858.864	22379
858.997	22352
859.13	22299
859.263	22417
859.396	22466
859.529	22249
859.662	22261
859.795	22299
859.928	22337
860.061	22474
860.194	22577
860.327	22424
860.46	22310
860.592	22481
860.725	22550
860.858	22451
860.99	22257
861.123	22409
861.256	22246
861.388	22223
861.521	22949
861.653	22291
861.786	22128
861.918	22200
862.05	22211
862.183	22150
862.315	22337
862.447	22249
862.58	22261
862.712	22013
862.844	21956
862.976	22067
863.108	22116
863.24	22584
863.372	21972
863.504	22082
863.636	21880
863.768	22002
863.9	22051
864.032	22044
864.164	22044
864.296	22166
864.428	22131
864.559	22070
864.691	21987
864.823	22017
864.954	22025
865.086	22032
865.217	21873
865.349	21812
865.48	21907
865.612	21869
865.743	21918
865.875	21983
866.006	21857
866.137	21945
866.269	21949
866.4	21945
866.531	21831
866.662	21838
866.793	21884
866.924	21937
867.055	21892
867.186	21823
867.317	21770
867.448	21759
867.579	21770
867.71	21682
867.841	21781
867.972	21857
868.103	21736
868.233	21903
868.364	21884
868.495	21816
868.625	22101
868.756	22257
868.886	22025
869.017	22097
869.147	22242
869.278	22204
869.408	22116
869.539	22112
869.669	22246
869.799	22090
869.929	22181
870.06	22268
870.19	22291
870.32	22398
870.45	22337
870.58	22432
870.71	22523
870.84	22675
870.97	22535
871.1	22565
871.23	22653
871.36	22725
871.489	22653
871.619	22664
871.749	22679
871.879	22694
872.008	22748
872.138	22740
872.267	22668
872.397	22630
872.526	22664
872.656	22554
872.785	22607
872.915	22733
873.044	22717
873.173	22778
873.303	22691
873.432	22847
873.561	22778
873.69	22721
873.819	22660
873.948	22706
874.077	22679
874.206	22668
874.335	22820
874.464	22892
874.593	22965
874.722	22927
874.851	22923
874.979	22885
875.108	23022
875.237	22847
875.365	22843
875.494	22820
875.623	23022
875.751	22934
875.88	22885
876.008	22995
876.136	23094
876.265	23326
876.393	23459
876.521	23471
876.65	23417
876.778	23345
876.906	23242
877.034	23326
877.162	23307
877.29	23113
877.418	23258
877.546	23353
877.674	23261
877.802	23227
877.93	23258
878.058	23227
878.185	23162
878.313	23193
878.441	23261
878.568	23124
878.696	23136
878.824	23261
878.951	23337
879.079	23524
879.206	23611
879.333	23387
879.461	23356
879.588	23330
879.715	23482
879.842	23520
879.97	23387
880.097	23151
880.224	23132
880.351	23128
880.478	23166
880.605	22995
880.732	23067
880.859	23265
880.986	23071
881.112	23044
881.239	22873
881.366	22862
881.493	22694
881.619	22645
881.746	22641
881.872	22615
881.999	22550
882.125	22622
882.252	22622
882.378	22565
882.505	22729
882.631	22421
882.757	22341
882.883	22500
883.01	22325
883.136	22299
883.262	22234
883.388	22143
883.514	22451
883.64	22318
883.766	22173
883.892	22082
884.018	22082
884.143	22261
884.269	22413
884.395	21975
884.52	21903
884.646	21945
884.772	21854
884.897	22010
885.023	21983
885.148	22032
885.274	22204
885.399	22090
885.524	22006
885.65	21895
885.775	21937
885.9	21854
886.025	22059
886.15	22032
886.275	21941
886.4	21804
886.525	21854
886.65	21899
886.775	21812
886.9	21968
887.025	22109
887.149	21964
887.274	21656
887.399	21736
887.523	21762
887.648	21660
887.773	21625
887.897	21793
888.021	21762
888.146	21599
888.27	21850
888.395	21812
888.519	21831
888.643	21751
888.767	21774
888.891	21743
889.015	21424
889.139	21599
889.263	21511
889.387	21618
889.511	21781
889.635	21675
889.759	21504
889.883	21447
890.006	21435
890.13	21701
890.254	21458
890.377	21496
890.501	21237
890.624	21325
890.748	21268
890.871	21184
890.995	21093
891.118	21081
891.241	21184
891.364	21017
891.488	21287
891.611	21100
891.734	21192
891.857	21077
891.98	21127
892.103	21055
892.226	21043
892.349	20994
892.471	20899
892.594	20842
892.717	21036
892.839	20952
892.962	20921
893.085	20933
893.207	20941
893.33	20868
893.452	20819
893.575	20948
893.697	20895
893.819	21146
893.941	21157
894.064	21127
894.186	20967
894.308	20880
894.43	20902
894.552	20910
894.674	21089
894.796	20754
894.918	20921
895.04	20861
895.161	21051
895.283	20994
895.405	20891
895.526	21055
895.648	20937
895.769	20925
895.891	20876
896.012	21070
896.134	20864
896.255	20826
896.376	20872
896.498	21009
896.619	20815
896.74	20986
896.861	21062
896.982	21275
897.103	21351
897.224	21154
897.345	21222
897.466	21032
897.587	21146
897.708	21298
897.828	21085
897.949	21112
898.07	21001
898.19	21093
898.311	21211
898.431	21077
898.552	21230
898.672	21127
898.792	21317
898.913	21180
899.033	20960
899.153	21070
899.273	20800
899.393	20883
899.513	20979
899.633	20918
899.753	20876
899.873	20960
899.993	20971
900.113	20842
900.232	20777
900.352	20929
900.472	20838
900.591	20583
900.711	20686
900.83	20587
900.95	20670
901.069	20689
901.189	20587
901.308	20225
901.427	20313
901.546	20244
901.665	20161
901.784	20259
901.904	20088
902.023	19997
902.141	19795
902.26	19719
902.379	19803
902.498	19708
902.617	19609
902.735	19635
902.854	19674
902.973	19632
903.091	19327
903.21	19373
903.328	19316
903.446	19289
903.565	19312
903.683	19171
903.801	19057
903.919	19148
904.038	19084
904.156	18981
904.274	19065
904.392	18970
904.51	18871
904.627	18993
904.745	18962
904.863	18909
904.981	18745
905.098	18525
905.216	18658
905.334	18658
905.451	18635
905.569	18551
905.686	18536
905.803	18566
905.921	18441
906.038	18395
906.155	18350
906.272	18296
906.389	18262
906.506	18197
906.623	18106
906.74	18083
906.857	18007
906.974	18064
907.091	18079
907.208	18194
907.324	18038
907.441	18110
907.557	17961
907.674	17916
907.79	17726
907.907	17779
908.023	17866
908.139	17832
908.256	17714
908.372	17821
908.488	17718
908.604	17642
908.72	17528
908.836	17543
908.952	17532
909.068	17535
909.184	17657
909.3	17490
909.415	17493
909.531	17535
909.647	17307
909.762	17311
909.878	17250
909.993	17166
910.108	17277
910.224	17231
910.339	17181
910.454	17121
910.57	17086
910.685	17025
910.8	17284
910.915	17140
911.03	17105
911.145	16839
911.259	16885
911.374	16805
911.489	16752
911.604	16748
911.718	16558
911.833	16493
911.947	16481
912.062	16535
912.176	16577
912.291	16584
912.405	16687
912.519	16843
912.633	16767
912.748	16611
912.862	16607
912.976	16421
913.09	16333
913.204	16291
913.318	16489
913.431	16382
913.545	16489
913.659	16504
913.772	16257
913.886	16105
914	16166
914.113	16284
914.226	16200
914.34	16150
914.453	16078
914.566	16166
914.68	16078
914.793	15968
914.906	15804
915.019	15827
915.132	15720
915.245	15755
915.358	15808
915.47	15717
915.583	15762
915.696	15781
915.809	15804
915.921	15918
916.034	15778
916.146	15644
916.259	15625
916.371	15698
916.483	15709
916.595	15625
916.708	15618
916.82	15595
916.932	15507
917.044	15576
917.156	15511
917.268	15355
917.38	15408
917.491	15408
917.603	15386
917.715	15386
917.826	15462
917.938	15355
918.049	15245
918.161	15466
918.272	15477
918.384	15439
918.495	15325
918.606	15180
918.717	15089
918.828	15150
918.939	15100
919.05	15020
919.161	15066
919.272	14960
919.383	14952
919.494	15093
919.604	15313
919.715	15097
919.826	15097
919.936	15039
920.047	15233
920.157	15100
920.267	15249
920.378	15192
920.488	15039
920.598	15222
920.708	15275
920.818	15154
920.928	15116
921.038	15306
921.148	15279
921.258	15024
921.368	14925
921.477	14743
921.587	14826
921.697	14686
921.806	14823
921.916	14644
922.025	14583
922.134	14434
922.244	14351
922.353	14442
922.462	14244
922.571	14275
922.68	14187
922.789	14126
922.898	14172
923.007	13932
923.116	14100
923.224	13986
923.333	14054
923.442	13879
923.55	13864
923.659	13890
923.767	13951
923.876	13864
923.984	13955
924.092	13784
924.201	13822
924.309	13746
924.417	13845
924.525	13715
924.633	13704
924.741	14518
924.849	13495
924.956	13670
925.064	13495
925.172	13441
925.279	13415
925.387	13499
925.494	13362
925.602	13651
925.709	13476
925.816	13419
925.924	13346
926.031	13430
926.138	13468
926.245	13422
926.352	13289
926.459	13506
926.566	13449
926.673	13263
926.779	13149
926.886	13194
926.993	13046
927.099	13027
927.206	13042
927.312	13012
927.419	13004
927.525	13027
927.631	13008
927.737	12825
927.843	12871
927.95	12753
928.056	12848
928.162	12779
928.267	12856
928.373	13457
928.479	12867
928.585	12700
928.69	12749
928.796	12848
928.901	12673
929.007	12566
929.112	12711
929.218	12654
929.323	12612
929.428	12544
929.533	12677
929.638	12441
929.743	12570
929.848	12525
929.953	12467
930.058	12460
930.163	12209
930.267	12243
930.372	12338
930.477	12171
930.581	12414
930.685	12262
930.79	12125
930.894	12155
930.998	12095
931.103	12304
931.207	11809
931.311	11718
931.415	11649
931.519	11414
931.623	11532
