Data from test_V78500241_1949.txt Node
Date: Fri Mar 25 15:55:18 CST 2022
User: usil
Spectrometer: V785-0024
Trigger mode: 0
Integration Time (sec): 4.000000E-1
Scans to average: 1
Nonlinearity correction enabled: false
Boxcar width: 0
Storing dark spectrum: false
XAxis mode: Wavelengths
Number of Pixels in Spectrum: 1024
>>>>>Begin Spectral Data<<<<<
801.071	28820
801.214	28812
801.356	28721
801.499	28630
801.641	28485
801.783	28440
801.926	28626
802.068	28497
802.211	28447
802.353	28329
802.496	28036
802.638	28162
802.78	28116
802.923	28074
803.065	27994
803.208	27953
803.35	28082
803.492	28261
803.635	28341
803.777	28166
803.919	28295
804.061	28725
804.204	28489
804.346	28215
804.488	28234
804.63	28390
804.773	28280
804.915	28405
805.057	28546
805.199	28348
805.341	28440
805.483	28493
805.626	28569
805.768	28417
805.91	28569
806.052	28470
806.194	28516
806.336	28664
806.478	28672
806.62	28497
806.762	28793
806.904	28793
807.046	29029
807.188	29014
807.33	28999
807.472	28938
807.614	29071
807.756	28934
807.898	28961
808.04	28866
808.182	28843
808.324	28710
808.465	28877
808.607	29083
808.749	29231
808.891	29277
809.033	29398
809.174	29375
809.316	29204
809.458	29318
809.6	29231
809.741	29299
809.883	29421
810.025	29543
810.166	29608
810.308	29471
810.45	29493
810.591	29341
810.733	29185
810.875	29311
811.016	29197
811.158	29147
811.299	29334
811.441	29497
811.582	29520
811.724	29303
811.865	29204
812.007	29360
812.148	29277
812.29	29296
812.431	29326
812.573	29596
812.714	29486
812.855	29680
812.997	29908
813.138	29923
813.279	29870
813.421	29840
813.562	29710
813.703	29623
813.845	29356
813.986	29239
814.127	29083
814.268	28968
814.41	29029
814.551	28862
814.692	28923
814.833	29025
814.974	28904
815.115	29071
815.256	28938
815.397	28805
815.539	28839
815.68	28733
815.821	28736
815.962	28809
816.103	28736
816.244	28706
816.385	28466
816.526	28489
816.666	28371
816.807	28204
816.948	28257
817.089	28417
817.23	28386
817.371	28322
817.512	28337
817.653	28105
817.793	28234
817.934	28299
818.075	28455
818.216	28303
818.356	28215
818.497	28101
818.638	27922
818.778	28010
818.919	28173
819.06	27941
819.2	28211
819.341	28242
819.481	28086
819.622	28649
819.762	28668
819.903	28577
820.043	28424
820.184	28398
820.324	28291
820.465	28519
820.605	28379
820.746	28417
820.886	28356
821.026	28478
821.167	28356
821.307	28470
821.447	28356
821.588	28261
821.728	28036
821.868	28032
822.008	27823
822.149	27705
822.289	27797
822.429	27561
822.569	27492
822.709	27496
822.849	27310
822.99	27275
823.13	27298
823.27	27268
823.41	26975
823.55	27085
823.69	27043
823.83	27070
823.97	26952
824.11	26918
824.25	26792
824.389	26960
824.529	26880
824.669	26899
824.809	27081
824.949	27020
825.089	27058
825.228	26910
825.368	26811
825.508	26746
825.648	26967
825.787	26819
825.927	26853
826.067	26899
826.206	26720
826.346	26830
826.485	26762
826.625	26788
826.765	26883
826.904	26910
827.044	26526
827.183	26670
827.323	26412
827.462	26396
827.601	26689
827.741	26533
827.88	26507
828.02	26438
828.159	26621
828.298	26461
828.437	26514
828.577	26400
828.716	26545
828.855	26450
828.994	26145
829.134	26103
829.273	26259
829.412	26195
829.551	26199
829.69	26252
829.829	26161
829.968	26206
830.107	26412
830.246	26187
830.385	26138
830.524	26035
830.663	25970
830.802	25947
830.941	25807
831.08	25860
831.219	25795
831.357	25845
831.496	25966
831.635	25833
831.774	25708
831.913	25651
832.051	25613
832.19	25575
832.329	25468
832.467	25533
832.606	25476
832.744	25426
832.883	25331
833.022	25377
833.16	25556
833.299	25563
833.437	25438
833.576	25643
833.714	25457
833.852	25483
833.991	25582
834.129	25586
834.267	25464
834.406	25590
834.544	25655
834.682	25582
834.821	25533
834.959	25731
835.097	25449
835.235	25677
835.373	25578
835.511	25487
835.65	25266
835.788	25377
835.926	25221
836.064	25168
836.202	25114
836.34	25411
836.478	25415
836.615	25263
836.753	25251
836.891	25358
837.029	25297
837.167	25297
837.305	25251
837.443	25175
837.58	25179
837.718	25213
837.856	25244
837.993	25095
838.131	25133
838.269	25065
838.406	25221
838.544	25099
838.681	24741
838.819	24890
838.956	24673
839.094	24665
839.231	24722
839.369	24806
839.506	24939
839.643	24878
839.781	24692
839.918	24616
840.055	24730
840.193	24677
840.33	24517
840.467	24646
840.604	24570
840.742	24601
840.879	24418
841.016	24452
841.153	24490
841.29	24654
841.427	24433
841.564	24635
841.701	24471
841.838	24525
841.975	24395
842.112	24418
842.249	24296
842.385	24270
842.522	24509
842.659	24380
842.796	24197
842.933	24220
843.069	24243
843.206	24243
843.343	24289
843.479	24228
843.616	24319
843.752	23973
843.889	24216
844.025	24319
844.162	24114
844.298	24125
844.435	24076
844.571	24125
844.708	24011
844.844	24209
844.98	24178
845.117	24205
845.253	24076
845.389	23973
845.525	23980
845.661	23912
845.798	23813
845.934	23889
846.07	23817
846.206	23882
846.342	24011
846.478	23752
846.614	23649
846.75	23406
846.886	23547
847.022	23608
847.158	23509
847.294	23531
847.429	23448
847.565	23581
847.701	23756
847.837	23155
847.972	23223
848.108	23436
848.244	23349
848.379	23132
848.515	23098
848.65	23041
848.786	23208
848.921	23105
849.057	23216
849.192	23151
849.328	23181
849.463	23044
849.598	23048
849.734	23105
849.869	22949
850.004	22976
850.14	22976
850.275	22942
850.41	22854
850.545	22755
850.68	22782
850.815	22866
850.95	22816
851.085	22984
851.22	22953
851.355	22896
851.49	22763
851.625	22736
851.76	22991
851.895	22782
852.03	22698
852.165	22900
852.299	22915
852.434	22968
852.569	22881
852.703	22843
852.838	22961
852.973	22934
853.107	22923
853.242	22771
853.376	22717
853.511	22607
853.645	22599
853.78	22790
853.914	22820
854.048	22736
854.183	22691
854.317	22637
854.451	22885
854.585	22843
854.72	22675
854.854	22835
854.988	22713
855.122	22694
855.256	22592
855.39	22634
855.524	22744
855.658	22736
855.792	22656
855.926	22744
856.06	22812
856.194	22755
856.327	22634
856.461	22588
856.595	22672
856.729	22721
856.862	22885
856.996	22717
857.13	22759
857.263	22820
857.397	22656
857.53	22679
857.664	22622
857.797	22911
857.931	22820
858.064	22736
858.197	22771
858.331	22759
858.464	22752
858.597	22485
858.731	22637
858.864	22519
858.997	22721
859.13	22694
859.263	22763
859.396	22729
859.529	22561
859.662	22668
859.795	22687
859.928	22656
860.061	22938
860.194	22889
860.327	22744
860.46	22828
860.592	22843
860.725	22767
860.858	22839
860.99	22782
861.123	22656
861.256	22660
861.388	22713
861.521	23486
861.653	22455
861.786	22489
861.918	22649
862.05	22611
862.183	22759
862.315	22702
862.447	22710
862.58	22733
862.712	22394
862.844	22246
862.976	22577
863.108	22565
863.24	22892
863.372	22409
863.504	22489
863.636	22394
863.768	22440
863.9	22447
864.032	22272
864.164	22390
864.296	22462
864.428	22451
864.559	22447
864.691	22421
864.823	22382
864.954	22436
865.086	22238
865.217	22284
865.349	22147
865.48	22428
865.612	22386
865.743	22341
865.875	22360
866.006	22223
866.137	22215
866.269	22360
866.4	22284
866.531	22242
866.662	22131
866.793	22226
866.924	22226
867.055	22207
867.186	22268
867.317	22105
867.448	22143
867.579	22215
867.71	22109
867.841	22017
867.972	22200
868.103	22120
868.233	22219
868.364	22246
868.495	22318
868.625	22474
868.756	22577
868.886	22386
869.017	22493
869.147	22538
869.278	22538
869.408	22348
869.539	22382
869.669	22546
869.799	22440
869.929	22542
870.06	22474
870.19	22805
870.32	22675
870.45	22877
870.58	22900
870.71	22953
870.84	22987
870.97	22911
871.1	22930
871.23	23056
871.36	23003
871.489	22999
871.619	23075
871.749	23033
871.879	23064
872.008	23132
872.138	23048
872.267	23014
872.397	22915
872.526	22896
872.656	22869
872.785	22767
872.915	22980
873.044	23200
873.173	23079
873.303	23162
873.432	23121
873.561	23140
873.69	23162
873.819	23056
873.948	23132
874.077	23155
874.206	22930
874.335	23037
874.464	23147
874.593	23307
874.722	23330
874.851	23341
874.979	23376
875.108	23353
875.237	23178
875.365	23098
875.494	23296
875.623	23315
875.751	23220
875.88	23265
876.008	23414
876.136	23528
876.265	23714
876.393	23703
876.521	23680
876.65	23760
876.778	23756
876.906	23600
877.034	23638
877.162	23505
877.29	23630
877.418	23581
877.546	23562
877.674	23608
877.802	23467
877.93	23585
878.058	23554
878.185	23558
878.313	23516
878.441	23520
878.568	23497
878.696	23585
878.824	23558
878.951	23630
879.079	23767
879.206	23927
879.333	23798
879.461	23710
879.588	23687
879.715	23817
879.842	23828
879.97	23627
880.097	23490
880.224	23402
880.351	23410
880.478	23474
880.605	23452
880.732	23417
880.859	23558
880.986	23501
881.112	23383
881.239	23284
881.366	23113
881.493	23048
881.619	22991
881.746	23090
881.872	22995
881.999	22999
882.125	22869
882.252	23090
882.378	22896
882.505	23140
882.631	22858
882.757	22653
882.883	22744
883.01	22710
883.136	22618
883.262	22569
883.388	22470
883.514	22687
883.64	22592
883.766	22531
883.892	22531
884.018	22360
884.143	22592
884.269	22588
884.395	22360
884.52	22207
884.646	22215
884.772	22192
884.897	22200
885.023	22265
885.148	22527
885.274	22363
885.399	22382
885.524	22352
885.65	22390
885.775	22291
885.9	22306
886.025	22405
886.15	22329
886.275	22257
886.4	22204
886.525	22291
886.65	22261
886.775	22181
886.9	22440
887.025	22550
887.149	22196
887.274	22120
887.399	22070
887.523	22067
887.648	21998
887.773	21850
887.897	22112
888.021	21941
888.146	21945
888.27	22070
888.395	22036
888.519	22021
888.643	22101
888.767	22078
888.891	22044
889.015	21854
889.139	21842
889.263	21812
889.387	21934
889.511	22055
889.635	21983
889.759	21857
889.883	21876
890.006	21835
890.13	21835
890.254	21808
890.377	21797
890.501	21622
890.624	21610
890.748	21660
890.871	21447
890.995	21310
891.118	21157
891.241	21355
891.364	21397
891.488	21435
891.611	21408
891.734	21382
891.857	21431
891.98	21329
892.103	21386
892.226	21412
892.349	21389
892.471	21100
892.594	21291
892.717	21222
892.839	21173
892.962	21275
893.085	21264
893.207	21233
893.33	21077
893.452	21119
893.575	21298
893.697	21233
893.819	21386
893.941	21466
894.064	21447
894.186	21116
894.308	21291
894.43	21272
894.552	21378
894.674	21473
894.796	21169
894.918	21291
895.04	21222
895.161	21340
895.283	21233
895.405	21211
895.526	21252
895.648	21173
895.769	21291
895.891	21222
896.012	21351
896.134	21325
896.255	21283
896.376	21195
896.498	21230
896.619	21317
896.74	21275
896.861	21336
896.982	21618
897.103	21637
897.224	21485
897.345	21469
897.466	21458
897.587	21431
897.708	21504
897.828	21420
897.949	21359
898.07	21389
898.19	21370
898.311	21561
898.431	21332
898.552	21416
898.672	21466
898.792	21397
898.913	21443
899.033	21241
899.153	21279
899.273	21096
899.393	21100
899.513	21161
899.633	21237
899.753	21074
899.873	21039
899.993	21176
900.113	21116
900.232	21051
900.352	21116
900.472	21013
900.591	20986
900.711	20937
900.83	20823
900.95	20967
901.069	20925
901.189	20891
901.308	20602
901.427	20423
901.546	20511
901.665	20507
901.784	20495
901.904	20332
902.023	20237
902.141	20073
902.26	20008
902.379	20081
902.498	20054
902.617	20016
902.735	19913
902.854	19963
902.973	19932
903.091	19666
903.21	19723
903.328	19681
903.446	19559
903.565	19438
903.683	19289
903.801	19335
903.919	19362
904.038	19266
904.156	19213
904.274	19335
904.392	19187
904.51	19179
904.627	19232
904.745	19213
904.863	19179
904.981	18981
905.098	18833
905.216	18726
905.334	18768
905.451	18802
905.569	18848
905.686	18875
905.803	18798
905.921	18658
906.038	18734
906.155	18593
906.272	18521
906.389	18684
906.506	18437
906.623	18365
906.74	18467
906.857	18216
906.974	18342
907.091	18498
907.208	18467
907.324	18410
907.441	18266
907.557	18049
907.674	18079
907.79	18030
907.907	18110
908.023	18087
908.139	18106
908.256	18019
908.372	18091
908.488	17920
908.604	17931
908.72	17802
908.836	17802
908.952	17748
909.068	17904
909.184	17931
909.3	17767
909.415	17961
909.531	17832
909.647	17482
909.762	17478
909.878	17532
909.993	17493
910.108	17554
910.224	17387
910.339	17452
910.454	17349
910.57	17292
910.685	17246
910.8	17581
910.915	17387
911.03	17322
911.145	17147
911.259	17155
911.374	17121
911.489	16999
911.604	17033
911.718	16782
911.833	16869
911.947	16755
912.062	16626
912.176	16881
912.291	16858
912.405	16854
912.519	17045
912.633	17018
912.748	16854
912.862	16763
912.976	16626
913.09	16516
913.204	16603
913.318	16577
913.431	16759
913.545	16755
913.659	16733
913.772	16561
913.886	16497
914	16466
914.113	16493
914.226	16523
914.34	16443
914.453	16333
914.566	16531
914.68	16265
914.793	16226
914.906	16025
915.019	16017
915.132	15956
915.245	15945
915.358	16090
915.47	15991
915.583	16029
915.696	16029
915.809	16059
915.921	16044
916.034	15945
916.146	15953
916.259	15918
916.371	15949
916.483	15907
916.595	15819
916.708	15823
916.82	15842
916.932	15751
917.044	15724
917.156	15720
917.268	15591
917.38	15690
917.491	15606
917.603	15603
917.715	15686
917.826	15568
917.938	15549
918.049	15408
918.161	15481
918.272	15587
918.384	15663
918.495	15507
918.606	15511
918.717	15351
918.828	15389
918.939	15397
919.05	15157
919.161	15279
919.272	15226
919.383	15230
919.494	15370
919.604	15603
919.715	15359
919.826	15260
919.936	15329
920.047	15424
920.157	15329
920.267	15485
920.378	15256
920.488	15207
920.598	15466
920.708	15587
920.818	15462
920.928	15481
921.038	15584
921.148	15568
921.258	15264
921.368	15169
921.477	15055
921.587	14941
921.697	14769
921.806	15093
921.916	14819
922.025	14640
922.134	14629
922.244	14655
922.353	14705
922.462	14476
922.571	14423
922.68	14358
922.789	14465
922.898	14339
923.007	14206
923.116	14263
923.224	14294
923.333	14164
923.442	14176
923.55	14111
923.659	14096
923.767	14138
923.876	14058
923.984	14065
924.092	14020
924.201	14073
924.309	13974
924.417	13940
924.525	13894
924.633	13989
924.741	14849
924.849	13765
924.956	13814
925.064	13670
925.172	13674
925.279	13651
925.387	13658
925.494	13681
925.602	13807
925.709	13761
925.816	13647
925.924	13559
926.031	13632
926.138	13597
926.245	13601
926.352	13518
926.459	13594
926.566	13704
926.673	13597
926.779	13430
926.886	13434
926.993	13324
927.099	13259
927.206	13088
927.312	13149
927.419	13282
927.525	13198
927.631	13213
927.737	13080
927.843	12935
927.95	12958
928.056	13031
928.162	12970
928.267	13038
928.373	13643
928.479	13057
928.585	12863
928.69	12962
928.796	13008
928.901	12939
929.007	12753
929.112	12871
929.218	12810
929.323	12806
929.428	12722
929.533	12867
929.638	12654
929.743	12677
929.848	12711
929.953	12681
930.058	12563
930.163	12388
930.267	12418
930.372	12506
930.477	12376
930.581	12540
930.685	12418
930.79	12273
930.894	12334
930.998	12175
931.103	12490
931.207	12007
931.311	11813
931.415	11847
931.519	11703
931.623	11589
