Data from test_V78500241_616.txt Node
Date: Fri Mar 25 15:46:04 CST 2022
User: usil
Spectrometer: V785-0024
Trigger mode: 0
Integration Time (sec): 4.000000E-1
Scans to average: 1
Nonlinearity correction enabled: false
Boxcar width: 0
Storing dark spectrum: false
XAxis mode: Wavelengths
Number of Pixels in Spectrum: 1024
>>>>>Begin Spectral Data<<<<<
801.071	27854
801.214	27785
801.356	27530
801.499	27500
801.641	27287
801.783	27268
801.926	27443
802.068	27169
802.211	27298
802.353	27230
802.496	27036
802.638	27112
802.78	26937
802.923	26998
803.065	26861
803.208	26891
803.35	27024
803.492	27070
803.635	27108
803.777	27070
803.919	27089
804.061	27386
804.204	27142
804.346	27165
804.488	27009
804.63	27241
804.773	26944
804.915	27108
805.057	27249
805.199	26971
805.341	27203
805.483	27439
805.626	27287
805.768	27127
805.91	27325
806.052	27252
806.194	27287
806.336	27450
806.478	27256
806.62	27317
806.762	27439
806.904	27507
807.046	27964
807.188	27720
807.33	27675
807.472	27816
807.614	27625
807.756	27629
807.898	27424
808.04	27431
808.182	27469
808.324	27625
808.465	27580
808.607	27671
808.749	27914
808.891	28036
809.033	28147
809.174	28116
809.316	27892
809.458	27994
809.6	28013
809.741	28150
809.883	28124
810.025	28200
810.166	28295
810.308	28223
810.45	28230
810.591	28078
810.733	27968
810.875	27785
811.016	27953
811.158	27759
811.299	27987
811.441	28177
811.582	28090
811.724	27861
811.865	27884
812.007	27884
812.148	27941
812.29	27991
812.431	28116
812.573	28246
812.714	28272
812.855	28493
812.997	28462
813.138	28710
813.279	28656
813.421	28523
813.562	28428
813.703	28314
813.845	28265
813.986	27808
814.127	27694
814.268	27614
814.41	27622
814.551	27660
814.692	27557
814.833	27622
814.974	27538
815.115	27587
815.256	27511
815.397	27454
815.539	27473
815.68	27397
815.821	27233
815.962	27492
816.103	27401
816.244	27306
816.385	27165
816.526	27138
816.666	26937
816.807	26895
816.948	26956
817.089	27233
817.23	26872
817.371	26819
817.512	26906
817.653	26826
817.793	26788
817.934	26864
818.075	26864
818.216	26960
818.356	26758
818.497	26891
818.638	26625
818.778	26590
818.919	26720
819.06	26731
819.2	26902
819.341	26845
819.481	26887
819.622	27138
819.762	27157
819.903	27081
820.043	27127
820.184	26895
820.324	27032
820.465	27081
820.605	27032
820.746	27009
820.886	26826
821.026	26948
821.167	26933
821.307	27024
821.447	26963
821.588	26705
821.728	26716
821.868	26613
822.008	26453
822.149	26336
822.289	26332
822.429	26077
822.569	25966
822.709	26122
822.849	25966
822.99	25921
823.13	25769
823.27	25856
823.41	25677
823.55	25643
823.69	25750
823.83	25582
823.97	25571
824.11	25381
824.25	25373
824.389	25400
824.529	25529
824.669	25495
824.809	25674
824.949	25529
825.089	25578
825.228	25468
825.368	25320
825.508	25354
825.648	25472
825.787	25441
825.927	25476
826.067	25373
826.206	25278
826.346	25377
826.485	25491
826.625	25434
826.765	25632
826.904	25384
827.044	25095
827.183	25171
827.323	24962
827.462	25012
827.601	25053
827.741	25076
827.88	25129
828.02	25061
828.159	25095
828.298	25225
828.437	25228
828.577	24973
828.716	25160
828.855	24966
828.994	24878
829.134	24760
829.273	24817
829.412	24779
829.551	24696
829.69	24875
829.829	24806
829.968	24943
830.107	24719
830.246	24688
830.385	24711
830.524	24711
830.663	24620
830.802	24544
830.941	24388
831.08	24372
831.219	24403
831.357	24445
831.496	24646
831.635	24350
831.774	24216
831.913	24403
832.051	24228
832.19	24285
832.329	24281
832.467	24045
832.606	24110
832.744	23965
832.883	24083
833.022	24057
833.16	24091
833.299	24079
833.437	24277
833.576	24140
833.714	24114
833.852	24232
833.991	24114
834.129	24266
834.267	24213
834.406	24095
834.544	24201
834.682	24117
834.821	24076
834.959	24277
835.097	24064
835.235	24098
835.373	24041
835.511	24095
835.65	23969
835.788	23958
835.926	23798
836.064	23760
836.202	23802
836.34	23847
836.478	23931
836.615	23961
836.753	23950
836.891	24136
837.029	24007
837.167	23790
837.305	23984
837.443	23897
837.58	23817
837.718	23855
837.856	23752
837.993	23779
838.131	23859
838.269	23562
838.406	23767
838.544	23611
838.681	23467
838.819	23292
838.956	23216
839.094	23261
839.231	23315
839.369	23467
839.506	23661
839.643	23414
839.781	23208
839.918	23155
840.055	23280
840.193	23227
840.33	23060
840.467	23269
840.604	23189
840.742	23455
840.879	23052
841.016	23220
841.153	22972
841.29	23220
841.427	23136
841.564	23227
841.701	23117
841.838	23174
841.975	23159
842.112	23064
842.249	23052
842.385	22908
842.522	23166
842.659	23044
842.796	22923
842.933	22889
843.069	22965
843.206	22812
843.343	23010
843.479	22904
843.616	23022
843.752	22691
843.889	22710
844.025	22858
844.162	22694
844.298	22797
844.435	22645
844.571	22493
844.708	22869
844.844	22896
844.98	22797
845.117	22679
845.253	22702
845.389	22599
845.525	22546
845.661	22535
845.798	22478
845.934	22519
846.07	22356
846.206	22432
846.342	22409
846.478	22455
846.614	22272
846.75	22067
846.886	22249
847.022	22219
847.158	22196
847.294	22268
847.429	22177
847.565	22188
847.701	22413
847.837	21941
847.972	21819
848.108	21972
848.244	22013
848.379	21888
848.515	21762
848.65	21770
848.786	21789
848.921	21743
849.057	21804
849.192	21930
849.328	21747
849.463	21808
849.598	21717
849.734	21724
849.869	21580
850.004	21606
850.14	21610
850.275	21526
850.41	21420
850.545	21553
850.68	21496
850.815	21466
850.95	21538
851.085	21732
851.22	21625
851.355	21667
851.49	21549
851.625	21401
851.76	21504
851.895	21416
852.03	21363
852.165	21450
852.299	21686
852.434	21595
852.569	21572
852.703	21473
852.838	21610
852.973	21603
853.107	21667
853.242	21485
853.376	21348
853.511	21313
853.645	21367
853.78	21454
853.914	21439
854.048	21306
854.183	21313
854.317	21287
854.451	21595
854.585	21317
854.72	21405
854.854	21416
854.988	21256
855.122	21374
855.256	21226
855.39	21431
855.524	21382
855.658	21370
855.792	21359
855.926	21443
856.06	21420
856.194	21378
856.327	21351
856.461	21317
856.595	21298
856.729	21222
856.862	21443
856.996	21519
857.13	21378
857.263	21469
857.397	21340
857.53	21348
857.664	21393
857.797	21538
857.931	21466
858.064	21332
858.197	21488
858.331	21405
858.464	21298
858.597	21226
858.731	21336
858.864	21351
858.997	21325
859.13	21367
859.263	21291
859.396	21447
859.529	21245
859.662	21294
859.795	21306
859.928	21431
860.061	21431
860.194	21603
860.327	21462
860.46	21458
860.592	21431
860.725	21534
860.858	21443
860.99	21428
861.123	21279
861.256	21275
861.388	21298
861.521	21991
861.653	21233
861.786	21093
861.918	21173
862.05	21169
862.183	21222
862.315	21325
862.447	21367
862.58	21176
862.712	20937
862.844	20952
862.976	21062
863.108	21161
863.24	21469
863.372	21032
863.504	20880
863.636	21173
863.768	21005
863.9	21020
864.032	20960
864.164	20921
864.296	21127
864.428	21119
864.559	21146
864.691	21108
864.823	20952
864.954	21028
865.086	21028
865.217	20986
865.349	20925
865.48	20895
865.612	20902
865.743	21089
865.875	20906
866.006	20929
866.137	20982
866.269	21017
866.4	20948
866.531	20944
866.662	20853
866.793	20887
866.924	20921
867.055	20842
867.186	20918
867.317	20944
867.448	20750
867.579	20864
867.71	20853
867.841	20758
867.972	20929
868.103	20868
868.233	20933
868.364	20823
868.495	20990
868.625	21017
868.756	21154
868.886	21051
869.017	21138
869.147	21211
869.278	21085
869.408	21161
869.539	21169
869.669	21165
869.799	21230
869.929	21108
870.06	21283
870.19	21431
870.32	21420
870.45	21450
870.58	21526
870.71	21698
870.84	21652
870.97	21519
871.1	21542
871.23	21629
871.36	21705
871.489	21660
871.619	21671
871.749	21854
871.879	21705
872.008	21823
872.138	21819
872.267	21637
872.397	21603
872.526	21523
872.656	21603
872.785	21557
872.915	21709
873.044	21884
873.173	21739
873.303	21819
873.432	21785
873.561	21968
873.69	21739
873.819	21793
873.948	21797
874.077	21766
874.206	21606
874.335	21701
874.464	21831
874.593	21968
874.722	21930
874.851	22036
874.979	21972
875.108	21937
875.237	21903
875.365	21972
875.494	21937
875.623	22074
875.751	21964
875.88	21895
876.008	22048
876.136	22124
876.265	22310
876.393	22550
876.521	22462
876.65	22626
876.778	22432
876.906	22325
877.034	22314
877.162	22325
877.29	22322
877.418	22375
877.546	22249
877.674	22363
877.802	22367
877.93	22356
878.058	22246
878.185	22196
878.313	22322
878.441	22196
878.568	22112
878.696	22253
878.824	22329
878.951	22424
879.079	22535
879.206	22675
879.333	22485
879.461	22337
879.588	22417
879.715	22447
879.842	22500
879.97	22493
880.097	22200
880.224	22090
880.351	22242
880.478	22120
880.605	22192
880.732	22162
880.859	22303
880.986	22162
881.112	22246
881.239	22040
881.366	21812
881.493	21778
881.619	21701
881.746	21686
881.872	21694
881.999	21603
882.125	21633
882.252	21842
882.378	21606
882.505	21705
882.631	21564
882.757	21492
882.883	21561
883.01	21447
883.136	21408
883.262	21173
883.388	21332
883.514	21294
883.64	21435
883.766	21310
883.892	21161
884.018	21188
884.143	21393
884.269	21439
884.395	21127
884.52	21096
884.646	21032
884.772	21005
884.897	20956
885.023	21020
885.148	21146
885.274	21211
885.399	21135
885.524	20998
885.65	21085
885.775	21058
885.9	21020
886.025	21230
886.15	21165
886.275	21001
886.4	21005
886.525	20952
886.65	21043
886.775	21009
886.9	21256
887.025	21302
887.149	21001
887.274	20823
887.399	20762
887.523	20762
887.648	20693
887.773	20693
887.897	20876
888.021	20872
888.146	20754
888.27	20914
888.395	20994
888.519	20887
888.643	20944
888.767	20853
888.891	20743
889.015	20670
889.139	20746
889.263	20636
889.387	20682
889.511	20830
889.635	20720
889.759	20533
889.883	20564
890.006	20640
890.13	20758
890.254	20587
890.377	20533
890.501	20393
890.624	20396
890.748	20320
890.871	20229
890.995	20115
891.118	20050
891.241	20153
891.364	20229
891.488	20339
891.611	20187
891.734	20195
891.857	20149
891.98	20103
892.103	20317
892.226	20199
892.349	20134
892.471	20058
892.594	20218
892.717	20278
892.839	20149
892.962	20100
893.085	20119
893.207	20062
893.33	19986
893.452	19932
893.575	20107
893.697	20092
893.819	20221
893.941	20271
894.064	20263
894.186	20115
894.308	20046
894.43	20233
894.552	20180
894.674	20161
894.796	20005
894.918	20054
895.04	20119
895.161	20138
895.283	20119
895.405	20016
895.526	20081
895.648	20001
895.769	20119
895.891	20221
896.012	20214
896.134	20187
896.255	20176
896.376	20107
896.498	20206
896.619	20164
896.74	20031
896.861	20305
896.982	20450
897.103	20621
897.224	20271
897.345	20339
897.466	20305
897.587	20396
897.708	20507
897.828	20351
897.949	20210
898.07	20244
898.19	20263
898.311	20442
898.431	20282
898.552	20237
898.672	20343
898.792	20366
898.913	20336
899.033	20187
899.153	20191
899.273	20065
899.393	20100
899.513	20202
899.633	20134
899.753	20077
899.873	20043
899.993	20107
900.113	20111
900.232	20084
900.352	19906
900.472	19906
900.591	19761
900.711	19898
900.83	19757
900.95	19936
901.069	19925
901.189	19814
901.308	19449
901.427	19358
901.546	19381
901.665	19548
901.784	19506
901.904	19304
902.023	19183
902.141	18962
902.26	18977
902.379	19133
902.498	18878
902.617	18905
902.735	19031
902.854	18947
902.973	18802
903.091	18654
903.21	18658
903.328	18688
903.446	18426
903.565	18433
903.683	18452
903.801	18357
903.919	18376
904.038	18509
904.156	18281
904.274	18357
904.392	18190
904.51	18072
904.627	18254
904.745	18311
904.863	18209
904.981	18106
905.098	18030
905.216	17904
905.334	17958
905.451	17904
905.569	17836
905.686	17840
905.803	17885
905.921	17676
906.038	17771
906.155	17729
906.272	17570
906.389	17600
906.506	17414
906.623	17440
906.74	17364
906.857	17299
906.974	17345
907.091	17474
907.208	17501
907.324	17433
907.441	17353
907.557	17151
907.674	16995
907.79	17121
907.907	17037
908.023	17052
908.139	17109
908.256	16965
908.372	17048
908.488	17052
908.604	16835
908.72	16755
908.836	16889
908.952	16843
909.068	16854
909.184	16987
909.3	16809
909.415	16953
909.531	16873
909.647	16554
909.762	16481
909.878	16611
909.993	16622
910.108	16580
910.224	16413
910.339	16493
910.454	16409
910.57	16352
910.685	16291
910.8	16550
910.915	16417
911.03	16284
911.145	16257
911.259	16150
911.374	16135
911.489	16101
911.604	15941
911.718	15899
911.833	15949
911.947	15831
912.062	15709
912.176	15865
912.291	15941
912.405	15842
912.519	16013
912.633	16051
912.748	15915
912.862	15854
912.976	15629
913.09	15587
913.204	15701
913.318	15637
913.431	15720
913.545	15774
913.659	15766
913.772	15705
913.886	15473
914	15473
914.113	15606
914.226	15618
914.34	15462
914.453	15405
914.566	15526
914.68	15401
914.793	15329
914.906	15252
915.019	15123
915.132	15108
915.245	15024
915.358	15100
915.47	15100
915.583	15142
915.696	14994
915.809	15150
915.921	15165
916.034	15051
916.146	14982
916.259	15062
916.371	15093
916.483	15093
916.595	14948
916.708	15017
916.82	14914
916.932	14982
917.044	14902
917.156	14883
917.268	14735
917.38	14948
917.491	14720
917.603	14811
917.715	14815
917.826	14819
917.938	14693
918.049	14583
918.161	14765
918.272	14826
918.384	14781
918.495	14674
918.606	14648
918.717	14427
918.828	14518
918.939	14556
919.05	14537
919.161	14511
919.272	14381
919.383	14320
919.494	14568
919.604	14758
919.715	14541
919.826	14408
919.936	14568
920.047	14590
920.157	14461
920.267	14762
920.378	14511
920.488	14473
920.598	14678
920.708	14872
920.818	14705
920.928	14617
921.038	14864
921.148	14773
921.258	14461
921.368	14408
921.477	14267
921.587	14229
921.697	14077
921.806	14210
921.916	14100
922.025	13944
922.134	13982
922.244	13852
922.353	14016
922.462	13814
922.571	13696
922.68	13620
922.789	13559
922.898	13605
923.007	13460
923.116	13636
923.224	13521
923.333	13499
923.442	13411
923.55	13327
923.659	13434
923.767	13441
923.876	13293
923.984	13324
924.092	13217
924.201	13407
924.309	13285
924.417	13244
924.525	13247
924.633	13171
924.741	14142
924.849	13000
924.956	13156
925.064	13099
925.172	13008
925.279	12985
925.387	13004
925.494	12985
925.602	13069
925.709	13061
925.816	12878
925.924	13012
926.031	13103
926.138	12909
926.245	12924
926.352	12894
926.459	12993
926.566	12958
926.673	12875
926.779	12703
926.886	12726
926.993	12604
927.099	12525
927.206	12525
927.312	12460
927.419	12616
927.525	12513
927.631	12555
927.737	12369
927.843	12369
927.95	12270
928.056	12418
928.162	12251
928.267	12403
928.373	12970
928.479	12399
928.585	12178
928.69	12239
928.796	12403
928.901	12308
929.007	12068
929.112	12152
929.218	12232
929.323	12129
929.428	12083
929.533	12232
929.638	12064
929.743	11954
929.848	12041
929.953	12102
930.058	11923
930.163	11726
930.267	11828
930.372	11863
930.477	11764
930.581	11920
930.685	11863
930.79	11668
930.894	11665
930.998	11657
931.103	11779
931.207	11417
931.311	11284
931.415	11250
931.519	11079
931.623	11010
