Data from test_V78500241_662.txt Node
Date: Fri Mar 25 15:46:23 CST 2022
User: usil
Spectrometer: V785-0024
Trigger mode: 0
Integration Time (sec): 4.000000E-1
Scans to average: 1
Nonlinearity correction enabled: false
Boxcar width: 0
Storing dark spectrum: false
XAxis mode: Wavelengths
Number of Pixels in Spectrum: 1024
>>>>>Begin Spectral Data<<<<<
801.071	26910
801.214	26777
801.356	26492
801.499	26415
801.641	26358
801.783	26381
801.926	26450
802.068	26438
802.211	26298
802.353	26195
802.496	26024
802.638	26035
802.78	25917
802.923	25951
803.065	25925
803.208	25936
803.35	26138
803.492	26065
803.635	26138
803.777	25993
803.919	26134
804.061	26381
804.204	26103
804.346	25982
804.488	25955
804.63	26115
804.773	26062
804.915	26043
805.057	26180
805.199	26073
805.341	26244
805.483	26309
805.626	26229
805.768	26183
805.91	26275
806.052	26229
806.194	26107
806.336	26537
806.478	26237
806.62	26248
806.762	26393
806.904	26514
807.046	26701
807.188	26663
807.33	26686
807.472	26735
807.614	26537
807.756	26549
807.898	26571
808.04	26362
808.182	26412
808.324	26412
808.465	26431
808.607	26701
808.749	26739
808.891	26910
809.033	26986
809.174	26864
809.316	26826
809.458	26952
809.6	26792
809.741	26902
809.883	27100
810.025	27127
810.166	27081
810.308	27157
810.45	26948
810.591	27123
810.733	26861
810.875	26629
811.016	26644
811.158	26678
811.299	26937
811.441	26967
811.582	27032
811.724	26830
811.865	26678
812.007	26758
812.148	26811
812.29	26682
812.431	27055
812.573	27070
812.714	27138
812.855	27291
812.997	27287
813.138	27644
813.279	27332
813.421	27207
813.562	27348
813.703	27085
813.845	26952
813.986	26674
814.127	26541
814.268	26518
814.41	26453
814.551	26415
814.692	26427
814.833	26530
814.974	26461
815.115	26655
815.256	26358
815.397	26172
815.539	26210
815.68	26286
815.821	26077
815.962	26210
816.103	26115
816.244	26103
816.385	26005
816.526	26077
816.666	25947
816.807	25643
816.948	25639
817.089	25696
817.23	25666
817.371	25769
817.512	25662
817.653	25712
817.793	25670
817.934	25719
818.075	25856
818.216	25791
818.356	25586
818.497	25582
818.638	25304
818.778	25354
818.919	25468
819.06	25472
819.2	25624
819.341	25647
819.481	25708
819.622	25871
819.762	26020
819.903	25883
820.043	25826
820.184	25765
820.324	25677
820.465	25959
820.605	25906
820.746	25727
820.886	25639
821.026	25715
821.167	25601
821.307	25807
821.447	25807
821.588	25575
821.728	25479
821.868	25247
822.008	25194
822.149	25354
822.289	25179
822.429	24913
822.569	24859
822.709	24825
822.849	24661
822.99	24631
823.13	24597
823.27	24620
823.41	24410
823.55	24395
823.69	24665
823.83	24521
823.97	24498
824.11	24372
824.25	24334
824.389	24327
824.529	24391
824.669	24216
824.809	24464
824.949	24429
825.089	24323
825.228	24277
825.368	24239
825.508	24133
825.648	24262
825.787	24292
825.927	24057
826.067	24129
826.206	24167
826.346	24205
826.485	24140
826.625	24136
826.765	24254
826.904	24136
827.044	23802
827.183	23999
827.323	23802
827.462	23927
827.601	23813
827.741	23813
827.88	23965
828.02	23687
828.159	23809
828.298	23908
828.437	23931
828.577	23783
828.716	23958
828.855	23813
828.994	23691
829.134	23642
829.273	23558
829.412	23608
829.551	23402
829.69	23566
829.829	23570
829.968	23661
830.107	23630
830.246	23676
830.385	23524
830.524	23493
830.663	23421
830.802	23258
830.941	23273
831.08	23109
831.219	23280
831.357	23200
831.496	23471
831.635	23166
831.774	23235
831.913	23193
832.051	23048
832.19	23041
832.329	22980
832.467	22854
832.606	22866
832.744	22774
832.883	22812
833.022	22782
833.16	22733
833.299	22965
833.437	22843
833.576	22892
833.714	23003
833.852	22949
833.991	23010
834.129	23098
834.267	22881
834.406	22858
834.544	23071
834.682	22953
834.821	22805
834.959	23105
835.097	22812
835.235	23025
835.373	23033
835.511	22953
835.65	22721
835.788	22866
835.926	22691
836.064	22546
836.202	22630
836.34	22744
836.478	22847
836.615	22721
836.753	22790
836.891	22774
837.029	22850
837.167	22736
837.305	22687
837.443	22668
837.58	22428
837.718	22694
837.856	22557
837.993	22630
838.131	22626
838.269	22462
838.406	22497
838.544	22386
838.681	22207
838.819	22295
838.956	22120
839.094	22124
839.231	22120
839.369	22169
839.506	22489
839.643	22249
839.781	22048
839.918	22086
840.055	22086
840.193	22097
840.33	22063
840.467	22036
840.604	21991
840.742	22405
840.879	21838
841.016	22143
841.153	21865
841.29	22143
841.427	22040
841.564	22036
841.701	22010
841.838	22021
841.975	21846
842.112	21983
842.249	21850
842.385	21911
842.522	21945
842.659	21846
842.796	21690
842.933	21732
843.069	21819
843.206	21751
843.343	21766
843.479	21682
843.616	21778
843.752	21507
843.889	21583
844.025	21694
844.162	21443
844.298	21519
844.435	21462
844.571	21454
844.708	21580
844.844	21656
844.98	21739
845.117	21629
845.253	21447
845.389	21348
845.525	21393
845.661	21378
845.798	21230
845.934	21256
846.07	21237
846.206	21435
846.342	21496
846.478	21260
846.614	21173
846.75	21032
846.886	20982
847.022	21291
847.158	21119
847.294	21001
847.429	21070
847.565	20929
847.701	21355
847.837	20781
847.972	20708
848.108	20918
848.244	20849
848.379	20632
848.515	20568
848.65	20663
848.786	20442
848.921	20651
849.057	20678
849.192	20743
849.328	20632
849.463	20602
849.598	20571
849.734	20442
849.869	20461
850.004	20355
850.14	20484
850.275	20465
850.41	20210
850.545	20282
850.68	20309
850.815	20495
850.95	20389
851.085	20583
851.22	20454
851.355	20495
851.49	20347
851.625	20343
851.76	20210
851.895	20320
852.03	20183
852.165	20393
852.299	20446
852.434	20370
852.569	20476
852.703	20427
852.838	20415
852.973	20594
853.107	20465
853.242	20343
853.376	20305
853.511	20062
853.645	20214
853.78	20347
853.914	20275
854.048	20142
854.183	20122
854.317	20225
854.451	20328
854.585	20286
854.72	20187
854.854	20180
854.988	20206
855.122	20248
855.256	20024
855.39	20126
855.524	20248
855.658	20248
855.792	20229
855.926	20237
856.06	20366
856.194	20317
856.327	20172
856.461	20180
856.595	20138
856.729	20195
856.862	20233
856.996	20206
857.13	20271
857.263	20324
857.397	20290
857.53	20183
857.664	20248
857.797	20332
857.931	20343
858.064	20191
858.197	20244
858.331	20229
858.464	20115
858.597	20050
858.731	20313
858.864	20183
858.997	20107
859.13	20180
859.263	20153
859.396	20336
859.529	20187
859.662	20187
859.795	20199
859.928	20286
860.061	20385
860.194	20396
860.327	20275
860.46	20172
860.592	20309
860.725	20434
860.858	20492
860.99	20320
861.123	20142
861.256	20313
861.388	20229
861.521	20830
861.653	20142
861.786	19906
861.918	19902
862.05	20134
862.183	20115
862.315	20126
862.447	20202
862.58	20115
862.712	19947
862.844	19826
862.976	20027
863.108	20027
863.24	20343
863.372	19890
863.504	19925
863.636	19993
863.768	20138
863.9	19940
864.032	19925
864.164	19890
864.296	19967
864.428	20062
864.559	20138
864.691	19921
864.823	19978
864.954	19936
865.086	19883
865.217	19875
865.349	19830
865.48	19769
865.612	19791
865.743	20069
865.875	19852
866.006	19799
866.137	19860
866.269	19868
866.4	19864
866.531	19712
866.662	19837
866.793	19712
866.924	19780
867.055	19860
867.186	19765
867.317	19674
867.448	19761
867.579	19811
867.71	19639
867.841	19742
867.972	19746
868.103	19822
868.233	19856
868.364	19719
868.495	19871
868.625	19997
868.756	20142
868.886	19849
869.017	20005
869.147	20039
869.278	20119
869.408	20005
869.539	20035
869.669	20161
869.799	20043
869.929	20096
870.06	20271
870.19	20431
870.32	20336
870.45	20377
870.58	20571
870.71	20511
870.84	20575
870.97	20374
871.1	20309
871.23	20621
871.36	20613
871.489	20613
871.619	20571
871.749	20617
871.879	20712
872.008	20682
872.138	20716
872.267	20609
872.397	20457
872.526	20518
872.656	20404
872.785	20522
872.915	20689
873.044	20621
873.173	20636
873.303	20606
873.432	20773
873.561	20785
873.69	20705
873.819	20655
873.948	20712
874.077	20583
874.206	20537
874.335	20674
874.464	20773
874.593	20975
874.722	20857
874.851	21001
874.979	20960
875.108	20872
875.237	20864
875.365	20746
875.494	20880
875.623	20895
875.751	20872
875.88	20982
876.008	21169
876.136	21062
876.265	21306
876.393	21454
876.521	21351
876.65	21336
876.778	21321
876.906	21249
877.034	21165
877.162	21230
877.29	21184
877.418	21260
877.546	21279
877.674	21211
877.802	21188
877.93	21344
878.058	21237
878.185	21123
878.313	21176
878.441	21119
878.568	21024
878.696	21116
878.824	21218
878.951	21268
879.079	21393
879.206	21595
879.333	21492
879.461	21317
879.588	21344
879.715	21332
879.842	21557
879.97	21332
880.097	21104
880.224	21024
880.351	21157
880.478	21085
880.605	20971
880.732	21047
880.859	21397
880.986	21032
881.112	21176
881.239	20864
881.366	20800
881.493	20804
881.619	20686
881.746	20705
881.872	20625
881.999	20579
882.125	20461
882.252	20571
882.378	20651
882.505	20811
882.631	20434
882.757	20442
882.883	20568
883.01	20518
883.136	20339
883.262	20221
883.388	20199
883.514	20476
883.64	20377
883.766	20309
883.892	20183
884.018	20172
884.143	20271
884.269	20328
884.395	20103
884.52	20130
884.646	20069
884.772	20027
884.897	19978
885.023	19982
885.148	20210
885.274	20088
885.399	20138
885.524	20065
885.65	20126
885.775	20073
885.9	19940
886.025	20096
886.15	20161
886.275	19940
886.4	20001
886.525	20001
886.65	19894
886.775	19944
886.9	20081
887.025	20183
887.149	20016
887.274	19913
887.399	19784
887.523	19860
887.648	19795
887.773	19693
887.897	19959
888.021	19879
888.146	19677
888.27	19894
888.395	19868
888.519	19921
888.643	19807
888.767	19871
888.891	19727
889.015	19670
889.139	19643
889.263	19609
889.387	19666
889.511	19864
889.635	19712
889.759	19537
889.883	19552
890.006	19746
890.13	19651
890.254	19556
890.377	19525
890.501	19373
890.624	19285
890.748	19499
890.871	19263
890.995	19156
891.118	19187
891.241	19278
891.364	19160
891.488	19487
891.611	19183
891.734	19278
891.857	19274
891.98	19225
892.103	19285
892.226	19088
892.349	19095
892.471	19004
892.594	19053
892.717	19213
892.839	19160
892.962	19194
893.085	19160
893.207	19171
893.33	19057
893.452	19076
893.575	19160
893.697	19046
893.819	19297
893.941	19407
894.064	19228
894.186	19019
894.308	18989
894.43	19141
894.552	19335
894.674	19164
894.796	19126
894.918	19179
895.04	19091
895.161	19240
895.283	19183
895.405	19034
895.526	19110
895.648	19053
895.769	19107
895.891	19129
896.012	19168
896.134	19278
896.255	19209
896.376	19148
896.498	19168
896.619	19282
896.74	19198
896.861	19175
896.982	19590
897.103	19677
897.224	19381
897.345	19339
897.466	19343
897.587	19403
897.708	19502
897.828	19468
897.949	19324
898.07	19225
898.19	19384
898.311	19556
898.431	19327
898.552	19369
898.672	19468
898.792	19575
898.913	19548
899.033	19400
899.153	19266
899.273	19202
899.393	19209
899.513	19251
899.633	19259
899.753	19289
899.873	19088
899.993	19179
900.113	19061
900.232	19133
900.352	19122
900.472	19065
900.591	18871
900.711	18939
900.83	18886
900.95	19110
901.069	19122
901.189	18894
901.308	18631
901.427	18528
901.546	18585
901.665	18612
901.784	18498
901.904	18418
902.023	18414
902.141	18205
902.26	18190
902.379	18232
902.498	18049
902.617	18095
902.735	18106
902.854	18117
902.973	17996
903.091	17798
903.21	17718
903.328	17813
903.446	17680
903.565	17562
903.683	17665
903.801	17455
903.919	17558
904.038	17391
904.156	17376
904.274	17383
904.392	17372
904.51	17330
904.627	17376
904.745	17433
904.863	17459
904.981	17151
905.098	16987
905.216	17094
905.334	17029
905.451	16987
905.569	17048
905.686	17098
905.803	17010
905.921	16862
906.038	16862
906.155	16843
906.272	16717
906.389	16706
906.506	16565
906.623	16573
906.74	16542
906.857	16440
906.974	16421
907.091	16577
907.208	16713
907.324	16649
907.441	16367
907.557	16318
907.674	16306
907.79	16215
907.907	16192
908.023	16333
908.139	16306
908.256	16242
908.372	16211
908.488	16105
908.604	16097
908.72	16029
908.836	15911
908.952	15972
909.068	16029
909.184	16105
909.3	16006
909.415	16093
909.531	15945
909.647	15770
909.762	15770
909.878	15686
909.993	15770
910.108	15671
910.224	15759
910.339	15724
910.454	15568
910.57	15538
910.685	15428
910.8	15789
910.915	15625
911.03	15603
911.145	15344
911.259	15340
911.374	15374
911.489	15252
911.604	15252
911.718	15119
911.833	15157
911.947	15074
912.062	14960
912.176	15116
912.291	15104
912.405	15157
912.519	15203
912.633	15260
912.748	15070
912.862	15093
912.976	14902
913.09	14796
913.204	14819
913.318	14845
913.431	14963
913.545	14887
913.659	15024
913.772	14807
913.886	14758
914	14686
914.113	14773
914.226	14815
914.34	14815
914.453	14705
914.566	14804
914.68	14590
914.793	14583
914.906	14454
915.019	14434
915.132	14393
915.245	14355
915.358	14358
915.47	14362
915.583	14305
915.696	14366
915.809	14495
915.921	14514
916.034	14434
916.146	14282
916.259	14248
916.371	14450
916.483	14305
916.595	14149
916.708	14221
916.82	14138
916.932	14225
917.044	14153
917.156	14134
917.268	14020
917.38	14050
917.491	13978
917.603	13963
917.715	14149
917.826	14130
917.938	14134
918.049	13936
918.161	14008
918.272	14123
918.384	14145
918.495	14012
918.606	13841
918.717	13761
918.828	13875
918.939	13868
919.05	13700
919.161	13776
919.272	13575
919.383	13693
919.494	13788
919.604	13986
919.715	13826
919.826	13791
919.936	13791
920.047	13909
920.157	13731
920.267	14016
920.378	13852
920.488	13738
920.598	13989
920.708	14081
920.818	14039
920.928	13887
921.038	14119
921.148	14054
921.258	13791
921.368	13594
921.477	13407
921.587	13457
921.697	13464
921.806	13510
921.916	13480
922.025	13270
922.134	13217
922.244	13240
922.353	13259
922.462	13069
922.571	13149
922.68	12852
922.789	12871
922.898	12840
923.007	12703
923.116	12779
923.224	12875
923.333	12848
923.442	12741
923.55	12798
923.659	12711
923.767	12681
923.876	12662
923.984	12719
924.092	12593
924.201	12566
924.309	12681
924.417	12589
924.525	12547
924.633	12623
924.741	13289
924.849	12414
924.956	12509
925.064	12289
925.172	12308
925.279	12311
925.387	12353
925.494	12353
925.602	12452
925.709	12296
925.816	12155
925.924	12292
926.031	12479
926.138	12292
926.245	12353
926.352	12178
926.459	12289
926.566	12357
926.673	12155
926.779	12068
926.886	12095
926.993	11927
927.099	11969
927.206	11931
927.312	11954
927.419	11954
927.525	11893
927.631	11893
927.737	11828
927.843	11726
927.95	11623
928.056	11745
928.162	11718
928.267	11798
928.373	12395
928.479	11775
928.585	11619
928.69	11710
928.796	11722
928.901	11608
929.007	11433
929.112	11619
929.218	11539
929.323	11490
929.428	11516
929.533	11630
929.638	11459
929.743	11372
929.848	11532
929.953	11474
930.058	11292
930.163	11109
930.267	11204
930.372	11372
930.477	11143
930.581	11406
930.685	11250
930.79	11060
930.894	11136
930.998	11045
931.103	11242
931.207	10771
931.311	10721
931.415	10706
931.519	10440
931.623	10470
