Data from test_V78500241_1852.txt Node
Date: Fri Mar 25 15:54:37 CST 2022
User: usil
Spectrometer: V785-0024
Trigger mode: 0
Integration Time (sec): 4.000000E-1
Scans to average: 1
Nonlinearity correction enabled: false
Boxcar width: 0
Storing dark spectrum: false
XAxis mode: Wavelengths
Number of Pixels in Spectrum: 1024
>>>>>Begin Spectral Data<<<<<
801.071	28310
801.214	28299
801.356	28154
801.499	28139
801.641	27991
801.783	28067
801.926	28135
802.068	28063
802.211	27892
802.353	27991
802.496	27774
802.638	27671
802.78	27603
802.923	27603
803.065	27583
803.208	27599
803.35	27652
803.492	27732
803.635	27762
803.777	27770
803.919	27926
804.061	28226
804.204	27926
804.346	27694
804.488	27778
804.63	27941
804.773	27869
804.915	27998
805.057	28036
805.199	27953
805.341	27907
805.483	28204
805.626	28131
805.768	27918
805.91	28086
806.052	28040
806.194	28067
806.336	28147
806.478	28021
806.62	28116
806.762	28150
806.904	28432
807.046	28466
807.188	28462
807.33	28455
807.472	28481
807.614	28413
807.756	28455
807.898	28398
808.04	28226
808.182	28329
808.324	28436
808.465	28459
808.607	28634
808.749	28778
808.891	28672
809.033	28877
809.174	28679
809.316	28744
809.458	28763
809.6	28538
809.741	28755
809.883	28835
810.025	28961
810.166	29014
810.308	29136
810.45	28930
810.591	28831
810.733	28767
810.875	28793
811.016	28767
811.158	28542
811.299	28767
811.441	28919
811.582	28885
811.724	28831
811.865	28622
812.007	28717
812.148	28702
812.29	28683
812.431	28965
812.573	28961
812.714	29109
812.855	29375
812.997	29303
813.138	29372
813.279	29360
813.421	29162
813.562	29147
813.703	29018
813.845	28984
813.986	28542
814.127	28634
814.268	28413
814.41	28481
814.551	28428
814.692	28485
814.833	28462
814.974	28390
815.115	28371
815.256	28246
815.397	28268
815.539	28223
815.68	28124
815.821	28131
815.962	28124
816.103	28329
816.244	28139
816.385	28063
816.526	27983
816.666	27743
816.807	27648
816.948	27819
817.089	27816
817.23	27778
817.371	27682
817.512	27751
817.653	27557
817.793	27564
817.934	27675
818.075	27656
818.216	27648
818.356	27618
818.497	27477
818.638	27363
818.778	27427
818.919	27492
819.06	27515
819.2	27553
819.341	27850
819.481	27739
819.622	27827
819.762	28017
819.903	28017
820.043	27945
820.184	27838
820.324	27800
820.465	27964
820.605	27960
820.746	27945
820.886	27606
821.026	27800
821.167	27804
821.307	27838
821.447	27762
821.588	27477
821.728	27667
821.868	27252
822.008	27138
822.149	27161
822.289	27138
822.429	26948
822.569	26781
822.709	26880
822.849	26720
822.99	26590
823.13	26682
823.27	26571
823.41	26530
823.55	26339
823.69	26556
823.83	26514
823.97	26438
824.11	26362
824.25	26328
824.389	26309
824.529	26218
824.669	26256
824.809	26412
824.949	26374
825.089	26370
825.228	26370
825.368	26122
825.508	26191
825.648	26290
825.787	26271
825.927	26305
826.067	26130
826.206	26199
826.346	26301
826.485	26176
826.625	26233
826.765	26309
826.904	26187
827.044	25955
827.183	25887
827.323	25963
827.462	26077
827.601	25947
827.741	25803
827.88	25833
828.02	25864
828.159	25879
828.298	25928
828.437	26058
828.577	25879
828.716	25978
828.855	25788
828.994	25563
829.134	25639
829.273	25651
829.412	25613
829.551	25578
829.69	25628
829.829	25616
829.968	25757
830.107	25761
830.246	25495
830.385	25571
830.524	25537
830.663	25358
830.802	25388
830.941	25175
831.08	25187
831.219	25236
831.357	25304
831.496	25384
831.635	25202
831.774	25088
831.913	25065
832.051	25076
832.19	24897
832.329	25069
832.467	24890
832.606	24916
832.744	24837
832.883	24890
833.022	24859
833.16	24806
833.299	24977
833.437	24962
833.576	25042
833.714	24954
833.852	24977
833.991	24882
834.129	24916
834.267	25168
834.406	24844
834.544	25050
834.682	24951
834.821	24863
834.959	25225
835.097	24779
835.235	24962
835.373	24916
835.511	24935
835.65	24715
835.788	24806
835.926	24730
836.064	24544
836.202	24525
836.34	24863
836.478	24875
836.615	24669
836.753	24806
836.891	24814
837.029	24814
837.167	24863
837.305	24715
837.443	24661
837.58	24570
837.718	24730
837.856	24677
837.993	24380
838.131	24601
838.269	24490
838.406	24464
838.544	24388
838.681	24258
838.819	24129
838.956	24049
839.094	24011
839.231	24167
839.369	24220
839.506	24308
839.643	24410
839.781	24102
839.918	24041
840.055	24022
840.193	24087
840.33	24022
840.467	24041
840.604	23999
840.742	24273
840.879	23866
841.016	23889
841.153	23851
841.29	23988
841.427	23935
841.564	23840
841.701	24030
841.838	23988
841.975	23901
842.112	23874
842.249	23802
842.385	23684
842.522	23901
842.659	23779
842.796	23737
842.933	23665
843.069	23551
843.206	23703
843.343	23745
843.479	23657
843.616	23832
843.752	23471
843.889	23535
844.025	23710
844.162	23501
844.298	23493
844.435	23402
844.571	23410
844.708	23619
844.844	23756
844.98	23615
845.117	23566
845.253	23398
845.389	23376
845.525	23417
845.661	23337
845.798	23349
845.934	23166
846.07	23246
846.206	23212
846.342	23372
846.478	23178
846.614	23128
846.75	22968
846.886	22927
847.022	22980
847.158	23083
847.294	23006
847.429	22987
847.565	22980
847.701	23159
847.837	22687
847.972	22649
848.108	22698
848.244	22706
848.379	22622
848.515	22538
848.65	22679
848.786	22546
848.921	22649
849.057	22622
849.192	22615
849.328	22508
849.463	22573
849.598	22561
849.734	22367
849.869	22375
850.004	22356
850.14	22341
850.275	22242
850.41	22196
850.545	22299
850.68	22242
850.815	22272
850.95	22268
851.085	22500
851.22	22512
851.355	22363
851.49	22276
851.625	22166
851.76	22295
851.895	22204
852.03	22325
852.165	22284
852.299	22295
852.434	22390
852.569	22322
852.703	22325
852.838	22291
852.973	22325
853.107	22462
853.242	22287
853.376	22185
853.511	22006
853.645	22128
853.78	22310
853.914	22086
854.048	22120
854.183	22124
854.317	22116
854.451	22390
854.585	22314
854.72	22188
854.854	22246
854.988	22036
855.122	22135
855.256	22086
855.39	22093
855.524	22215
855.658	22253
855.792	22120
855.926	22200
856.06	22207
856.194	22204
856.327	22090
856.461	22188
856.595	21987
856.729	22154
856.862	22192
856.996	22131
857.13	22211
857.263	22204
857.397	22147
857.53	22253
857.664	22154
857.797	22169
857.931	22337
858.064	22090
858.197	22196
858.331	22051
858.464	22105
858.597	22082
858.731	22097
858.864	22158
858.997	22101
859.13	22059
859.263	22265
859.396	22268
859.529	22207
859.662	22120
859.795	22074
859.928	22211
860.061	22371
860.194	22318
860.327	22169
860.46	22044
860.592	22272
860.725	22322
860.858	22223
860.99	22116
861.123	22010
861.256	22116
861.388	22082
861.521	22820
861.653	21983
861.786	21922
861.918	22017
862.05	21941
862.183	22128
862.315	22147
862.447	22120
862.58	22036
862.712	21918
862.844	21854
862.976	22006
863.108	22013
863.24	22371
863.372	21789
863.504	21762
863.636	21808
863.768	21831
863.9	21838
864.032	21728
864.164	21838
864.296	21846
864.428	21907
864.559	21899
864.691	21850
864.823	21816
864.954	21842
865.086	21857
865.217	21629
865.349	21667
865.48	21724
865.612	21724
865.743	21728
865.875	21770
866.006	21652
866.137	21713
866.269	21701
866.4	21682
866.531	21625
866.662	21481
866.793	21523
866.924	21606
867.055	21736
867.186	21622
867.317	21603
867.448	21553
867.579	21633
867.71	21610
867.841	21633
867.972	21698
868.103	21637
868.233	21606
868.364	21663
868.495	21747
868.625	21861
868.756	22029
868.886	21819
869.017	21937
869.147	22059
869.278	22124
869.408	21873
869.539	21983
869.669	21972
869.799	21991
869.929	22055
870.06	21926
870.19	22276
870.32	22226
870.45	22318
870.58	22276
870.71	22417
870.84	22306
870.97	22306
871.1	22070
871.23	22481
871.36	22508
871.489	22325
871.619	22508
871.749	22523
871.879	22504
872.008	22531
872.138	22596
872.267	22580
872.397	22196
872.526	22268
872.656	22249
872.785	22295
872.915	22573
873.044	22538
873.173	22577
873.303	22542
873.432	22645
873.561	22611
873.69	22561
873.819	22504
873.948	22569
874.077	22577
874.206	22436
874.335	22615
874.464	22683
874.593	22683
874.722	22649
874.851	22740
874.979	22664
875.108	22740
875.237	22630
875.365	22622
875.494	22557
875.623	22835
875.751	22672
875.88	22824
876.008	22862
876.136	22889
876.265	23010
876.393	23200
876.521	23105
876.65	23220
876.778	23155
876.906	23136
877.034	23159
877.162	23037
877.29	23048
877.418	23094
877.546	23025
877.674	23067
877.802	23064
877.93	22987
878.058	22984
878.185	22965
878.313	23044
878.441	23128
878.568	22976
878.696	22923
878.824	23113
878.951	23204
879.079	23200
879.206	23318
879.333	23231
879.461	23147
879.588	23181
879.715	23143
879.842	23341
879.97	23208
880.097	22946
880.224	22904
880.351	22843
880.478	22965
880.605	22866
880.732	22968
880.859	23060
880.986	22946
881.112	22972
881.239	22942
881.366	22683
881.493	22729
881.619	22459
881.746	22523
881.872	22417
881.999	22512
882.125	22382
882.252	22523
882.378	22295
882.505	22535
882.631	22344
882.757	22261
882.883	22135
883.01	22150
883.136	22025
883.262	22025
883.388	22086
883.514	22048
883.64	22207
883.766	22010
883.892	21911
884.018	21911
884.143	22177
884.269	22048
884.395	21907
884.52	21789
884.646	21823
884.772	21739
884.897	21694
885.023	21793
885.148	21895
885.274	21930
885.399	21873
885.524	21778
885.65	21701
885.775	21899
885.9	21778
886.025	21945
886.15	21755
886.275	21743
886.4	21747
886.525	21690
886.65	21709
886.775	21720
886.9	21903
887.025	21975
887.149	21694
887.274	21599
887.399	21660
887.523	21481
887.648	21526
887.773	21431
887.897	21648
888.021	21576
888.146	21591
888.27	21679
888.395	21660
888.519	21568
888.643	21450
888.767	21595
888.891	21447
889.015	21317
889.139	21397
889.263	21294
889.387	21302
889.511	21587
889.635	21332
889.759	21317
889.883	21279
890.006	21237
890.13	21416
890.254	21275
890.377	21275
890.501	21077
890.624	20944
890.748	21051
890.871	20994
890.995	20914
891.118	20883
891.241	20777
891.364	20857
891.488	20975
891.611	20918
891.734	20796
891.857	20914
891.98	20819
892.103	20891
892.226	20868
892.349	20746
892.471	20648
892.594	20864
892.717	20773
892.839	20735
892.962	20769
893.085	20834
893.207	20804
893.33	20636
893.452	20663
893.575	20743
893.697	20667
893.819	20914
893.941	20929
894.064	20914
894.186	20731
894.308	20762
894.43	20792
894.552	20826
894.674	20678
894.796	20571
894.918	20689
895.04	20727
895.161	20807
895.283	20899
895.405	20712
895.526	20792
895.648	20815
895.769	20800
895.891	20849
896.012	20845
896.134	20830
896.255	20746
896.376	20743
896.498	20765
896.619	20834
896.74	20754
896.861	20849
896.982	21036
897.103	21233
897.224	20998
897.345	20990
897.466	20891
897.587	20948
897.708	21161
897.828	20998
897.949	20895
898.07	20800
898.19	20967
898.311	21009
898.431	20899
898.552	21051
898.672	21176
898.792	20982
898.913	21039
899.033	20815
899.153	20739
899.273	20640
899.393	20636
899.513	20746
899.633	20701
899.753	20796
899.873	20670
899.993	20815
900.113	20674
900.232	20716
900.352	20587
900.472	20503
900.591	20454
900.711	20606
900.83	20423
900.95	20533
901.069	20636
901.189	20218
901.308	20103
901.427	20054
901.546	20046
901.665	20111
901.784	20039
901.904	19837
902.023	19776
902.141	19586
902.26	19742
902.379	19632
902.498	19567
902.617	19605
902.735	19643
902.854	19514
902.973	19426
903.091	19247
903.21	19198
903.328	19168
903.446	19076
903.565	19046
903.683	19038
903.801	18909
903.919	18966
904.038	18943
904.156	18798
904.274	18947
904.392	18871
904.51	18722
904.627	18825
904.745	18837
904.863	18844
904.981	18578
905.098	18346
905.216	18407
905.334	18532
905.451	18418
905.569	18361
905.686	18479
905.803	18475
905.921	18232
906.038	18365
906.155	18239
906.272	18114
906.389	18182
906.506	17973
906.623	17942
906.74	17950
906.857	17859
906.974	17866
907.091	18003
907.208	18060
907.324	17916
907.441	17863
907.557	17699
907.674	17684
907.79	17562
907.907	17554
908.023	17672
908.139	17680
908.256	17623
908.372	17520
908.488	17535
908.604	17455
908.72	17379
908.836	17452
908.952	17402
909.068	17368
909.184	17391
909.3	17364
909.415	17436
909.531	17356
909.647	17178
909.762	17075
909.878	16957
909.993	17041
910.108	17041
910.224	17052
910.339	17056
910.454	16953
910.57	16927
910.685	16835
910.8	17109
910.915	16980
911.03	16797
911.145	16755
911.259	16611
911.374	16668
911.489	16622
911.604	16630
911.718	16436
911.833	16424
911.947	16341
912.062	16177
912.176	16413
912.291	16413
912.405	16519
912.519	16466
912.633	16542
912.748	16432
912.862	16409
912.976	16200
913.09	16078
913.204	16226
913.318	16261
913.431	16375
913.545	16291
913.659	16363
913.772	16169
913.886	16128
914	15983
914.113	16154
914.226	16078
914.34	16105
914.453	15907
914.566	16120
914.68	15884
914.793	15816
914.906	15747
915.019	15591
915.132	15629
915.245	15610
915.358	15595
915.47	15530
915.583	15648
915.696	15595
915.809	15717
915.921	15728
916.034	15610
916.146	15462
916.259	15500
916.371	15663
916.483	15447
916.595	15511
916.708	15416
916.82	15439
916.932	15370
917.044	15382
917.156	15405
917.268	15275
917.38	15256
917.491	15264
917.603	15252
917.715	15336
917.826	15351
917.938	15188
918.049	15070
918.161	15218
918.272	15313
918.384	15279
918.495	15165
918.606	15032
918.717	15032
918.828	15089
918.939	14998
919.05	14899
919.161	15009
919.272	14819
919.383	14887
919.494	14990
919.604	15176
919.715	15005
919.826	14887
919.936	14982
920.047	15077
920.157	14956
920.267	15169
920.378	14963
920.488	14906
920.598	15169
920.708	15237
920.818	15306
920.928	15032
921.038	15287
921.148	15192
921.258	14883
921.368	14785
921.477	14689
921.587	14727
921.697	14495
921.806	14754
921.916	14495
922.025	14450
922.134	14252
922.244	14229
922.353	14404
922.462	14191
922.571	14172
922.68	14043
922.789	13921
922.898	13890
923.007	14001
923.116	14016
923.224	13951
923.333	13921
923.442	13780
923.55	13803
923.659	13757
923.767	13765
923.876	13742
923.984	13753
924.092	13681
924.201	13700
924.309	13727
924.417	13727
924.525	13533
924.633	13582
924.741	14480
924.849	13411
924.956	13578
925.064	13495
925.172	13263
925.279	13373
925.387	13419
925.494	13335
925.602	13480
925.709	13430
925.816	13187
925.924	13312
926.031	13358
926.138	13301
926.245	13346
926.352	13126
926.459	13270
926.566	13339
926.673	13190
926.779	13008
926.886	13072
926.993	12977
927.099	12954
927.206	12852
927.312	12916
927.419	12901
927.525	12928
927.631	12897
927.737	12817
927.843	12814
927.95	12635
928.056	12730
928.162	12684
928.267	12726
928.373	13362
928.479	12825
928.585	12559
928.69	12650
928.796	12650
928.901	12555
929.007	12395
929.112	12563
929.218	12532
929.323	12445
929.428	12441
929.533	12494
929.638	12414
929.743	12369
929.848	12338
929.953	12342
930.058	12319
930.163	12110
930.267	12171
930.372	12270
930.477	12053
930.581	12213
930.685	12235
930.79	11942
930.894	12007
930.998	11942
931.103	12007
931.207	11805
931.311	11668
931.415	11482
931.519	11337
931.623	11406
