Data from test_V78500241_3629.txt Node
Date: Fri Mar 25 16:06:56 CST 2022
User: usil
Spectrometer: V785-0024
Trigger mode: 0
Integration Time (sec): 4.000000E-1
Scans to average: 1
Nonlinearity correction enabled: false
Boxcar width: 0
Storing dark spectrum: false
XAxis mode: Wavelengths
Number of Pixels in Spectrum: 1024
>>>>>Begin Spectral Data<<<<<
801.071	28557
801.214	28424
801.356	28280
801.499	28185
801.641	28128
801.783	28021
801.926	28287
802.068	28230
802.211	27956
802.353	27972
802.496	27766
802.638	27709
802.78	27652
802.923	27751
803.065	27641
803.208	27629
803.35	27797
803.492	27861
803.635	27869
803.777	27949
803.919	28021
804.061	28154
804.204	28044
804.346	27911
804.488	27930
804.63	27998
804.773	27899
804.915	28059
805.057	28116
805.199	27914
805.341	28131
805.483	28143
805.626	28131
805.768	28044
805.91	28139
806.052	28139
806.194	28120
806.336	28337
806.478	28181
806.62	28207
806.762	28329
806.904	28417
807.046	28740
807.188	28588
807.33	28603
807.472	28725
807.614	28577
807.756	28634
807.898	28512
808.04	28417
808.182	28337
808.324	28455
808.465	28409
808.607	28634
808.749	28839
808.891	29025
809.033	28824
809.174	28900
809.316	28847
809.458	28763
809.6	28809
809.741	28938
809.883	28930
810.025	29132
810.166	29117
810.308	29102
810.45	29079
810.591	28991
810.733	28896
810.875	28862
811.016	28721
811.158	28888
811.299	29003
811.441	28946
811.582	29170
811.724	28911
811.865	28816
812.007	28729
812.148	28908
812.29	28835
812.431	28942
812.573	29170
812.714	29410
812.855	29239
812.997	29436
813.138	29562
813.279	29524
813.421	29406
813.562	29315
813.703	29204
813.845	29136
813.986	28911
814.127	28596
814.268	28660
814.41	28561
814.551	28489
814.692	28653
814.833	28546
814.974	28470
815.115	28615
815.256	28440
815.397	28405
815.539	28470
815.68	28253
815.821	28341
815.962	28443
816.103	28379
816.244	28177
816.385	28147
816.526	28116
816.666	28010
816.807	27854
816.948	27918
817.089	27911
817.23	27835
817.371	27914
817.512	27835
817.653	27850
817.793	27766
817.934	27823
818.075	27850
818.216	27934
818.356	27926
818.497	27717
818.638	27648
818.778	27679
818.919	27831
819.06	27660
819.2	27838
819.341	27835
819.481	27922
819.622	28002
819.762	28185
819.903	28135
820.043	27998
820.184	27934
820.324	27865
820.465	28150
820.605	28006
820.746	28093
820.886	27979
821.026	27934
821.167	28017
821.307	28196
821.447	27876
821.588	27838
821.728	27667
821.868	27534
822.008	27454
822.149	27447
822.289	27340
822.429	27074
822.569	26937
822.709	27131
822.849	26804
822.99	26861
823.13	26826
823.27	26800
823.41	26708
823.55	26442
823.69	26708
823.83	26781
823.97	26648
824.11	26412
824.25	26473
824.389	26419
824.529	26507
824.669	26507
824.809	26682
824.949	26617
825.089	26602
825.228	26579
825.368	26328
825.508	26336
825.648	26442
825.787	26465
825.927	26560
826.067	26412
826.206	26347
826.346	26343
826.485	26381
826.625	26457
826.765	26473
826.904	26492
827.044	26248
827.183	26210
827.323	26005
827.462	26069
827.601	26153
827.741	26161
827.88	26050
828.02	26050
828.159	26088
828.298	26115
828.437	26157
828.577	26031
828.716	26324
828.855	25906
828.994	25807
829.134	25776
829.273	25746
829.412	25776
829.551	25731
829.69	25590
829.829	25811
829.968	25856
830.107	25966
830.246	25940
830.385	25651
830.524	25757
830.663	25552
830.802	25563
830.941	25430
831.08	25369
831.219	25556
831.357	25487
831.496	25635
831.635	25438
831.774	25324
831.913	25339
832.051	25187
832.19	25023
832.329	25171
832.467	25072
832.606	24973
832.744	24989
832.883	25065
833.022	24943
833.16	24962
833.299	25126
833.437	25122
833.576	25168
833.714	25069
833.852	25232
833.991	25304
834.129	25209
834.267	25171
834.406	25141
834.544	25285
834.682	25091
834.821	25118
834.959	25274
835.097	25183
835.235	25164
835.373	25126
835.511	25038
835.65	25000
835.788	25023
835.926	24890
836.064	24783
836.202	24837
836.34	25126
836.478	24954
836.615	24833
836.753	25057
836.891	25042
837.029	24977
837.167	24905
837.305	24795
837.443	24856
837.58	24856
837.718	24920
837.856	24856
837.993	24741
838.131	24935
838.269	24734
838.406	24616
838.544	24631
838.681	24517
838.819	24369
838.956	24292
839.094	24194
839.231	24403
839.369	24467
839.506	24563
839.643	24441
839.781	24197
839.918	24213
840.055	24171
840.193	24167
840.33	24106
840.467	24155
840.604	24117
840.742	24456
840.879	24064
841.016	24091
841.153	24076
841.29	24140
841.427	24018
841.564	24251
841.701	24262
841.838	24114
841.975	24125
842.112	23908
842.249	24174
842.385	24038
842.522	24136
842.659	23893
842.796	23904
842.933	23984
843.069	23950
843.206	23851
843.343	24049
843.479	23904
843.616	23920
843.752	23931
843.889	23794
844.025	23840
844.162	23642
844.298	23764
844.435	23646
844.571	23729
844.708	23908
844.844	23969
844.98	23798
845.117	23836
845.253	23627
845.389	23551
845.525	23596
845.661	23429
845.798	23455
845.934	23493
846.07	23516
846.206	23391
846.342	23585
846.478	23501
846.614	23239
846.75	23178
846.886	23200
847.022	23284
847.158	23178
847.294	23227
847.429	23136
847.565	23185
847.701	23440
847.837	22850
847.972	22873
848.108	23041
848.244	22987
848.379	22782
848.515	22771
848.65	22767
848.786	22862
848.921	22736
849.057	22946
849.192	22828
849.328	22672
849.463	22809
849.598	22592
849.734	22584
849.869	22531
850.004	22424
850.14	22554
850.275	22668
850.41	22363
850.545	22367
850.68	22462
850.815	22618
850.95	22512
851.085	22733
851.22	22577
851.355	22569
851.49	22637
851.625	22500
851.76	22599
851.895	22409
852.03	22432
852.165	22497
852.299	22550
852.434	22649
852.569	22538
852.703	22470
852.838	22603
852.973	22717
853.107	22679
853.242	22523
853.376	22447
853.511	22215
853.645	22333
853.78	22538
853.914	22295
854.048	22379
854.183	22325
854.317	22424
854.451	22554
854.585	22390
854.72	22295
854.854	22398
854.988	22356
855.122	22181
855.256	22265
855.39	22325
855.524	22417
855.658	22436
855.792	22341
855.926	22371
856.06	22398
856.194	22447
856.327	22219
856.461	22421
856.595	22257
856.729	22382
856.862	22466
856.996	22386
857.13	22424
857.263	22462
857.397	22379
857.53	22284
857.664	22371
857.797	22519
857.931	22474
858.064	22451
858.197	22398
858.331	22329
858.464	22261
858.597	22242
858.731	22356
858.864	22363
858.997	22303
859.13	22398
859.263	22394
859.396	22341
859.529	22265
859.662	22417
859.795	22470
859.928	22337
860.061	22459
860.194	22546
860.327	22379
860.46	22322
860.592	22379
860.725	22565
860.858	22443
860.99	22306
861.123	22257
861.256	22219
861.388	22333
861.521	23151
861.653	22253
861.786	22074
861.918	22204
862.05	22185
862.183	22211
862.315	22261
862.447	22363
862.58	22257
862.712	22055
862.844	22207
862.976	22185
863.108	22162
863.24	22577
863.372	21953
863.504	22082
863.636	22078
863.768	22166
863.9	22067
864.032	22059
864.164	22124
864.296	22154
864.428	22116
864.559	22063
864.691	22154
864.823	22010
864.954	22029
865.086	21983
865.217	21949
865.349	21941
865.48	21987
865.612	21953
865.743	22044
865.875	21987
866.006	21899
866.137	21911
866.269	21975
866.4	21960
866.531	21922
866.662	21876
866.793	21869
866.924	21812
867.055	21823
867.186	21934
867.317	21808
867.448	21694
867.579	22002
867.71	21724
867.841	21770
867.972	21895
868.103	21899
868.233	21797
868.364	21895
868.495	21892
868.625	22150
868.756	22173
868.886	22048
869.017	22048
869.147	22173
869.278	22192
869.408	22124
869.539	22109
869.669	22253
869.799	22226
869.929	22325
870.06	22181
870.19	22493
870.32	22443
870.45	22493
870.58	22588
870.71	22535
870.84	22508
870.97	22440
871.1	22504
871.23	22660
871.36	22763
871.489	22664
871.619	22603
871.749	22660
871.879	22778
872.008	22782
872.138	22828
872.267	22706
872.397	22580
872.526	22512
872.656	22504
872.785	22519
872.915	22752
873.044	22866
873.173	22774
873.303	22850
873.432	22793
873.561	22820
873.69	22698
873.819	22687
873.948	22801
874.077	22885
874.206	22805
874.335	22618
874.464	22896
874.593	22953
874.722	22858
874.851	22915
874.979	22892
875.108	23052
875.237	22976
875.365	22877
875.494	22930
875.623	23079
875.751	22915
875.88	23025
876.008	23086
876.136	23060
876.265	23425
876.393	23585
876.521	23395
876.65	23539
876.778	23467
876.906	23239
877.034	23486
877.162	23273
877.29	23318
877.418	23299
877.546	23246
877.674	23307
877.802	23258
877.93	23349
878.058	23208
878.185	23208
878.313	23147
878.441	23345
878.568	23105
878.696	23166
878.824	23307
878.951	23391
879.079	23452
879.206	23596
879.333	23414
879.461	23337
879.588	23341
879.715	23512
879.842	23501
879.97	23303
880.097	23098
880.224	23022
880.351	23136
880.478	23200
880.605	23071
880.732	23075
880.859	23337
880.986	23197
881.112	23029
881.239	23052
881.366	22763
881.493	22805
881.619	22710
881.746	22790
881.872	22637
881.999	22596
882.125	22577
882.252	22835
882.378	22725
882.505	22717
882.631	22596
882.757	22470
882.883	22352
883.01	22329
883.136	22333
883.262	22207
883.388	22295
883.514	22508
883.64	22379
883.766	22196
883.892	22112
884.018	22040
884.143	22363
884.269	22352
884.395	22040
884.52	21972
884.646	22063
884.772	21964
884.897	21869
885.023	21922
885.148	21979
885.274	22010
885.399	22116
885.524	21949
885.65	21991
885.775	21873
885.9	22017
886.025	22112
886.15	21975
886.275	21926
886.4	21808
886.525	21934
886.65	21880
886.775	21854
886.9	22112
887.025	22109
887.149	21911
887.274	21865
887.399	21778
887.523	21698
887.648	21743
887.773	21686
887.897	21838
888.021	21876
888.146	21606
888.27	21732
888.395	21956
888.519	21797
888.643	21759
888.767	21747
888.891	21682
889.015	21572
889.139	21667
889.263	21614
889.387	21557
889.511	21827
889.635	21724
889.759	21435
889.883	21462
890.006	21557
890.13	21610
890.254	21507
890.377	21488
890.501	21325
890.624	21214
890.748	21317
890.871	21188
890.995	21195
891.118	21013
891.241	21093
891.364	21104
891.488	21249
891.611	21081
891.734	21051
891.857	21077
891.98	21070
892.103	21226
892.226	21051
892.349	21089
892.471	20902
892.594	21032
892.717	21112
892.839	20880
892.962	20986
893.085	21058
893.207	20986
893.33	20929
893.452	20925
893.575	20944
893.697	20937
893.819	21089
893.941	21142
894.064	21123
894.186	20994
894.308	20914
894.43	21062
894.552	21199
894.674	21116
894.796	20823
894.918	20819
895.04	20921
895.161	20971
895.283	21032
895.405	20807
895.526	21032
895.648	20906
895.769	21020
895.891	21024
896.012	21051
896.134	20883
896.255	20899
896.376	20948
896.498	20952
896.619	21036
896.74	20929
896.861	21013
896.982	21291
897.103	21401
897.224	21195
897.345	21214
897.466	21127
897.587	21203
897.708	21237
897.828	21157
897.949	21135
898.07	20975
898.19	21077
898.311	21252
898.431	21154
898.552	21138
898.672	21161
898.792	21089
898.913	21135
899.033	21001
899.153	20842
899.273	20819
899.393	20830
899.513	20849
899.633	20952
899.753	20963
899.873	20804
899.993	20921
900.113	20743
900.232	20838
900.352	20800
900.472	20807
900.591	20655
900.711	20735
900.83	20556
900.95	20731
901.069	20781
901.189	20579
901.308	20301
901.427	20145
901.546	20153
901.665	20221
901.784	20294
901.904	20164
902.023	20065
902.141	19769
902.26	19693
902.379	19845
902.498	19723
902.617	19563
902.735	19822
902.854	19635
902.973	19609
903.091	19422
903.21	19339
903.328	19438
903.446	19335
903.565	19278
903.683	19236
903.801	19095
903.919	19156
904.038	19168
904.156	19000
904.274	19065
904.392	18905
904.51	18920
904.627	18905
904.745	19050
904.863	19099
904.981	18635
905.098	18623
905.216	18650
905.334	18616
905.451	18616
905.569	18532
905.686	18582
905.803	18616
905.921	18464
906.038	18544
906.155	18479
906.272	18334
906.389	18338
906.506	18079
906.623	18300
906.74	18038
906.857	17931
906.974	18026
907.091	18167
907.208	18174
907.324	18228
907.441	18102
907.557	17866
907.674	18011
907.79	17832
907.907	17809
908.023	17859
908.139	17824
908.256	17946
908.372	17699
908.488	17817
908.604	17630
908.72	17581
908.836	17627
908.952	17486
909.068	17573
909.184	17687
909.3	17516
909.415	17703
909.531	17589
909.647	17307
909.762	17246
909.878	17292
909.993	17208
910.108	17136
910.224	17212
910.339	17265
910.454	17090
910.57	17121
910.685	16984
910.8	17402
910.915	17242
911.03	17113
911.145	16908
911.259	16816
911.374	16816
911.489	16786
911.604	16774
911.718	16554
911.833	16569
911.947	16573
912.062	16413
912.176	16607
912.291	16645
912.405	16561
912.519	16816
912.633	16740
912.748	16672
912.862	16569
912.976	16379
913.09	16287
913.204	16348
913.318	16478
913.431	16565
913.545	16500
913.659	16497
913.772	16432
913.886	16192
914	16204
914.113	16360
914.226	16299
914.34	16276
914.453	16105
914.566	16230
914.68	16006
914.793	16074
914.906	15907
915.019	15800
915.132	15766
915.245	15873
915.358	15842
915.47	15713
915.583	15865
915.696	15804
915.809	15835
915.921	15945
916.034	15739
916.146	15606
916.259	15656
916.371	15732
916.483	15724
916.595	15637
916.708	15637
916.82	15599
916.932	15564
917.044	15519
917.156	15504
917.268	15386
917.38	15515
917.491	15382
917.603	15401
917.715	15447
917.826	15488
917.938	15408
918.049	15283
918.161	15313
918.272	15534
918.384	15458
918.495	15439
918.606	15256
918.717	15146
918.828	15287
918.939	15173
919.05	15135
919.161	15146
919.272	14990
919.383	15020
919.494	15203
919.604	15325
919.715	15116
919.826	15055
919.936	15055
920.047	15226
920.157	15112
920.267	15313
920.378	15180
920.488	15138
920.598	15283
920.708	15481
920.818	15230
920.928	15211
921.038	15443
921.148	15367
921.258	15062
921.368	14929
921.477	14891
921.587	14910
921.697	14667
921.806	14857
921.916	14716
922.025	14568
922.134	14602
922.244	14526
922.353	14488
922.462	14328
922.571	14168
922.68	14157
922.789	14168
922.898	14130
923.007	14145
923.116	14206
923.224	14043
923.333	14100
923.442	13936
923.55	13906
923.659	14035
923.767	14088
923.876	13864
923.984	13997
924.092	13871
924.201	13860
924.309	13898
924.417	13959
924.525	13723
924.633	13845
924.741	14686
924.849	13559
924.956	13708
925.064	13552
925.172	13521
925.279	13464
925.387	13559
925.494	13521
925.602	13616
925.709	13544
925.816	13373
925.924	13495
926.031	13613
926.138	13464
926.245	13521
926.352	13358
926.459	13575
926.566	13491
926.673	13354
926.779	13149
926.886	13278
926.993	13091
927.099	13015
927.206	13015
927.312	13088
927.419	13069
927.525	13031
927.631	13129
927.737	12989
927.843	12886
927.95	12802
928.056	12848
928.162	12943
928.267	12916
928.373	13525
928.479	12973
928.585	12711
928.69	12882
928.796	12882
928.901	12711
929.007	12521
929.112	12768
929.218	12734
929.323	12578
929.428	12578
929.533	12730
929.638	12563
929.743	12612
929.848	12570
929.953	12566
930.058	12460
930.163	12232
930.267	12209
930.372	12452
930.477	12186
930.581	12532
930.685	12300
930.79	12197
930.894	12102
930.998	12072
931.103	12247
931.207	11897
931.311	11821
931.415	11756
931.519	11520
931.623	11482
