Data from test_V78500241_2816.txt Node
Date: Fri Mar 25 16:01:18 CST 2022
User: usil
Spectrometer: V785-0024
Trigger mode: 0
Integration Time (sec): 4.000000E-1
Scans to average: 1
Nonlinearity correction enabled: false
Boxcar width: 0
Storing dark spectrum: false
XAxis mode: Wavelengths
Number of Pixels in Spectrum: 1024
>>>>>Begin Spectral Data<<<<<
801.071	29022
801.214	29018
801.356	28748
801.499	28748
801.641	28664
801.783	28615
801.926	28622
802.068	28664
802.211	28500
802.353	28474
802.496	28394
802.638	28363
802.78	28246
802.923	28303
803.065	28162
803.208	28249
803.35	28386
803.492	28569
803.635	28607
803.777	28405
803.919	28512
804.061	28946
804.204	28554
804.346	28497
804.488	28436
804.63	28535
804.773	28577
804.915	28622
805.057	28706
805.199	28592
805.341	28645
805.483	28858
805.626	28809
805.768	28596
805.91	28717
806.052	28793
806.194	28470
806.336	28888
806.478	28816
806.62	28850
806.762	28866
806.904	29098
807.046	29322
807.188	29273
807.33	29113
807.472	29220
807.614	29223
807.756	29155
807.898	28949
808.04	29033
808.182	29022
808.324	29079
808.465	29113
808.607	29372
808.749	29429
808.891	29573
809.033	29684
809.174	29429
809.316	29547
809.458	29436
809.6	29379
809.741	29478
809.883	29551
810.025	29684
810.166	29623
810.308	29714
810.45	29680
810.591	29653
810.733	29368
810.875	29459
811.016	29547
811.158	29372
811.299	29531
811.441	29668
811.582	29611
811.724	29505
811.865	29551
812.007	29398
812.148	29482
812.29	29421
812.431	29619
812.573	29885
812.714	29813
812.855	30018
812.997	30186
813.138	30247
813.279	30197
813.421	30060
813.562	29950
813.703	29859
813.845	29676
813.986	29471
814.127	29254
814.268	29143
814.41	29277
814.551	29208
814.692	29090
814.833	29094
814.974	29216
815.115	29204
815.256	29147
815.397	29064
815.539	28984
815.68	29052
815.821	28877
815.962	29048
816.103	29044
816.244	28915
816.385	28702
816.526	28675
816.666	28618
816.807	28455
816.948	28557
817.089	28550
817.23	28481
817.371	28390
817.512	28375
817.653	28497
817.793	28504
817.934	28485
818.075	28413
818.216	28599
818.356	28466
818.497	28508
818.638	28265
818.778	28333
818.919	28230
819.06	28276
819.2	28394
819.341	28592
819.481	28577
819.622	28637
819.762	28835
819.903	28713
820.043	28679
820.184	28748
820.324	28596
820.465	28637
820.605	28729
820.746	28580
820.886	28466
821.026	28653
821.167	28683
821.307	28843
821.447	28580
821.588	28485
821.728	28261
821.868	28040
822.008	28048
822.149	28044
822.289	27956
822.429	27880
822.569	27682
822.709	27583
822.849	27458
822.99	27572
823.13	27405
823.27	27420
823.41	27424
823.55	27344
823.69	27348
823.83	27298
823.97	27389
824.11	27252
824.25	27173
824.389	27104
824.529	27161
824.669	27241
824.809	27370
824.949	27370
825.089	27348
825.228	27298
825.368	27138
825.508	27036
825.648	27043
825.787	27127
825.927	27176
826.067	27024
826.206	26986
826.346	27112
826.485	27070
826.625	26971
826.765	27085
826.904	27176
827.044	26735
827.183	26830
827.323	26731
827.462	26868
827.601	26769
827.741	26731
827.88	26804
828.02	26777
828.159	26811
828.298	26705
828.437	26800
828.577	26731
828.716	26750
828.855	26636
828.994	26419
829.134	26404
829.273	26453
829.412	26457
829.551	26465
829.69	26400
829.829	26385
829.968	26461
830.107	26465
830.246	26442
830.385	26442
830.524	26351
830.663	26332
830.802	26210
830.941	26065
831.08	25989
831.219	26062
831.357	26046
831.496	26248
831.635	26088
831.774	26046
831.913	25974
832.051	25932
832.19	25700
832.329	25795
832.467	25791
832.606	25693
832.744	25662
832.883	25635
833.022	25723
833.16	25784
833.299	25871
833.437	25826
833.576	25849
833.714	25883
833.852	25670
833.991	25761
834.129	25837
834.267	25814
834.406	25761
834.544	25852
834.682	25890
834.821	25849
834.959	26008
835.097	25845
835.235	25776
835.373	25871
835.511	25727
835.65	25567
835.788	25635
835.926	25411
836.064	25373
836.202	25388
836.34	25571
836.478	25708
836.615	25666
836.753	25567
836.891	25662
837.029	25571
837.167	25685
837.305	25544
837.443	25533
837.58	25487
837.718	25499
837.856	25552
837.993	25369
838.131	25320
838.269	25365
838.406	25373
838.544	25148
838.681	25008
838.819	25107
838.956	24791
839.094	24871
839.231	24947
839.369	25004
839.506	25346
839.643	25152
839.781	24947
839.918	24863
840.055	24772
840.193	24738
840.33	24783
840.467	24894
840.604	24890
840.742	25091
840.879	24658
841.016	24760
841.153	24635
841.29	24966
841.427	24776
841.564	24795
841.701	24859
841.838	24601
841.975	24681
842.112	24631
842.249	24536
842.385	24570
842.522	24844
842.659	24585
842.796	24479
842.933	24502
843.069	24365
843.206	24483
843.343	24612
843.479	24418
843.616	24399
843.752	24338
843.889	24296
844.025	24566
844.162	24323
844.298	24456
844.435	24327
844.571	24174
844.708	24350
844.844	24338
844.98	24483
845.117	24369
845.253	24239
845.389	24174
845.525	24155
845.661	24174
845.798	24167
845.934	24110
846.07	23961
846.206	24110
846.342	24209
846.478	23882
846.614	23767
846.75	23646
846.886	23836
847.022	23863
847.158	23843
847.294	23687
847.429	23817
847.565	23665
847.701	24102
847.837	23478
847.972	23376
848.108	23589
848.244	23600
848.379	23433
848.515	23299
848.65	23330
848.786	23474
848.921	23414
849.057	23482
849.192	23436
849.328	23376
849.463	23474
849.598	23330
849.734	23299
849.869	23261
850.004	23083
850.14	23151
850.275	23071
850.41	23018
850.545	23140
850.68	23052
850.815	23124
850.95	23105
851.085	23296
851.22	23128
851.355	23151
851.49	23052
851.625	23064
851.76	22972
851.895	22987
852.03	23060
852.165	23022
852.299	23189
852.434	23193
852.569	23155
852.703	23098
852.838	23368
852.973	23246
853.107	23178
853.242	23155
853.376	22968
853.511	22850
853.645	22904
853.78	23060
853.914	22919
854.048	22919
854.183	22763
854.317	23113
854.451	23079
854.585	22930
854.72	22835
854.854	23124
854.988	22797
855.122	22858
855.256	22805
855.39	22961
855.524	23094
855.658	22949
855.792	22847
855.926	22866
856.06	22965
856.194	22968
856.327	22980
856.461	22854
856.595	22858
856.729	22930
856.862	22984
856.996	22957
857.13	22991
857.263	23128
857.397	23041
857.53	22980
857.664	22930
857.797	23022
857.931	23044
858.064	22991
858.197	22938
858.331	22854
858.464	22984
858.597	22763
858.731	22938
858.864	22904
858.997	22839
859.13	22927
859.263	22892
859.396	23029
859.529	22862
859.662	22949
859.795	23014
859.928	22881
860.061	23067
860.194	23151
860.327	23075
860.46	22923
860.592	23003
860.725	23193
860.858	23090
860.99	23006
861.123	22805
861.256	22809
861.388	23014
861.521	23592
861.653	22885
861.786	22713
861.918	22793
862.05	22862
862.183	22885
862.315	22869
862.447	22904
862.58	22858
862.712	22626
862.844	22664
862.976	22634
863.108	22611
863.24	23067
863.372	22554
863.504	22706
863.636	22535
863.768	22702
863.9	22569
864.032	22622
864.164	22523
864.296	22641
864.428	22752
864.559	22607
864.691	22664
864.823	22656
864.954	22649
865.086	22596
865.217	22607
865.349	22459
865.48	22443
865.612	22497
865.743	22569
865.875	22588
866.006	22451
866.137	22516
866.269	22459
866.4	22455
866.531	22500
866.662	22417
866.793	22451
866.924	22333
867.055	22348
867.186	22398
867.317	22443
867.448	22333
867.579	22306
867.71	22497
867.841	22344
867.972	22432
868.103	22284
868.233	22413
868.364	22443
868.495	22527
868.625	22611
868.756	22763
868.886	22554
869.017	22767
869.147	22740
869.278	22755
869.408	22649
869.539	22713
869.669	22927
869.799	22679
869.929	22729
870.06	22786
870.19	22984
870.32	22786
870.45	22953
870.58	23098
870.71	23075
870.84	23136
870.97	23060
871.1	23052
871.23	23113
871.36	23250
871.489	23105
871.619	23178
871.749	23223
871.879	23231
872.008	23299
872.138	23212
872.267	23318
872.397	23220
872.526	23071
872.656	23258
872.785	23212
872.915	23265
873.044	23402
873.173	23356
873.303	23284
873.432	23277
873.561	23353
873.69	23227
873.819	23341
873.948	23337
874.077	23181
874.206	23265
874.335	23326
874.464	23421
874.593	23349
874.722	23448
874.851	23471
874.979	23592
875.108	23600
875.237	23471
875.365	23398
875.494	23543
875.623	23539
875.751	23486
875.88	23436
876.008	23638
876.136	23680
876.265	23885
876.393	23988
876.521	24068
876.65	23939
876.778	23958
876.906	23851
877.034	23946
877.162	23802
877.29	23817
877.418	23889
877.546	23863
877.674	23794
877.802	23714
877.93	23767
878.058	23634
878.185	23710
878.313	23722
878.441	23821
878.568	23520
878.696	23802
878.824	23923
878.951	23908
879.079	23904
879.206	24091
879.333	23783
879.461	23920
879.588	24011
879.715	23794
879.842	24007
879.97	23988
880.097	23843
880.224	23608
880.351	23745
880.478	23657
880.605	23516
880.732	23665
880.859	23863
880.986	23665
881.112	23585
881.239	23490
881.366	23391
881.493	23356
881.619	23265
881.746	23258
881.872	23235
881.999	23121
882.125	23071
882.252	23227
882.378	23147
882.505	23246
882.631	22953
882.757	22968
882.883	22961
883.01	22885
883.136	22847
883.262	22782
883.388	22710
883.514	22892
883.64	23003
883.766	22809
883.892	22687
884.018	22622
884.143	22858
884.269	22889
884.395	22645
884.52	22485
884.646	22557
884.772	22561
884.897	22451
885.023	22561
885.148	22607
885.274	22679
885.399	22542
885.524	22462
885.65	22497
885.775	22557
885.9	22569
886.025	22554
886.15	22611
886.275	22523
886.4	22413
886.525	22413
886.65	22318
886.775	22398
886.9	22542
887.025	22702
887.149	22596
887.274	22402
887.399	22188
887.523	22268
887.648	22185
887.773	22196
887.897	22306
888.021	22352
888.146	22139
888.27	22280
888.395	22341
888.519	22333
888.643	22124
888.767	22280
888.891	22044
889.015	22040
889.139	22074
889.263	21964
889.387	22185
889.511	22325
889.635	22226
889.759	21994
889.883	22055
890.006	22006
890.13	22105
890.254	22010
890.377	22006
890.501	21884
890.624	21728
890.748	21838
890.871	21861
890.995	21504
891.118	21591
891.241	21599
891.364	21488
891.488	21743
891.611	21648
891.734	21572
891.857	21629
891.98	21530
892.103	21542
892.226	21534
892.349	21481
892.471	21397
892.594	21428
892.717	21473
892.839	21511
892.962	21428
893.085	21454
893.207	21443
893.33	21351
893.452	21325
893.575	21435
893.697	21473
893.819	21603
893.941	21694
894.064	21637
894.186	21416
894.308	21336
894.43	21481
894.552	21663
894.674	21450
894.796	21310
894.918	21382
895.04	21431
895.161	21481
895.283	21447
895.405	21306
895.526	21420
895.648	21454
895.769	21389
895.891	21424
896.012	21515
896.134	21519
896.255	21439
896.376	21428
896.498	21416
896.619	21447
896.74	21332
896.861	21485
896.982	21720
897.103	21899
897.224	21732
897.345	21663
897.466	21625
897.587	21614
897.708	21781
897.828	21660
897.949	21564
898.07	21374
898.19	21553
898.311	21625
898.431	21428
898.552	21648
898.672	21663
898.792	21648
898.913	21641
899.033	21401
899.153	21447
899.273	21313
899.393	21306
899.513	21485
899.633	21412
899.753	21462
899.873	21306
899.993	21351
900.113	21207
900.232	21241
900.352	21344
900.472	21135
900.591	21074
900.711	21066
900.83	20979
900.95	21161
901.069	21150
901.189	21036
901.308	20697
901.427	20651
901.546	20705
901.665	20743
901.784	20705
901.904	20514
902.023	20484
902.141	20301
902.26	20328
902.379	20210
902.498	20199
902.617	20206
902.735	20126
902.854	20187
902.973	20180
903.091	19879
903.21	19826
903.328	19765
903.446	19719
903.565	19601
903.683	19594
903.801	19483
903.919	19605
904.038	19544
904.156	19419
904.274	19419
904.392	19468
904.51	19324
904.627	19415
904.745	19457
904.863	19518
904.981	19179
905.098	19004
905.216	19129
905.334	19103
905.451	19034
905.569	19046
905.686	19076
905.803	19110
905.921	18852
906.038	18985
906.155	18848
906.272	18757
906.389	18719
906.506	18578
906.623	18551
906.74	18475
906.857	18429
906.974	18353
907.091	18616
907.208	18631
907.324	18585
907.441	18559
907.557	18353
907.674	18296
907.79	18235
907.907	18277
908.023	18353
908.139	18296
908.256	18220
908.372	18072
908.488	18110
908.604	18053
908.72	17935
908.836	17984
908.952	17931
909.068	18038
909.184	18064
909.3	17996
909.415	18003
909.531	17863
909.647	17802
909.762	17680
909.878	17680
909.993	17668
910.108	17604
910.224	17604
910.339	17707
910.454	17520
910.57	17376
910.685	17421
910.8	17676
910.915	17676
911.03	17395
911.145	17261
911.259	17296
911.374	17258
911.489	17166
911.604	17124
911.718	16946
911.833	16934
911.947	16972
912.062	16831
912.176	17010
912.291	17147
912.405	17045
912.519	17174
912.633	17239
912.748	16980
912.862	16927
912.976	16831
913.09	16706
913.204	16755
913.318	16824
913.431	16896
913.545	16946
913.659	16927
913.772	16729
913.886	16561
914	16527
914.113	16717
914.226	16736
914.34	16573
914.453	16535
914.566	16588
914.68	16394
914.793	16508
914.906	16223
915.019	16147
915.132	16048
915.245	16097
915.358	16120
915.47	16116
915.583	16150
915.696	16150
915.809	16211
915.921	16226
916.034	16059
916.146	16116
916.259	16029
916.371	16124
916.483	16044
916.595	16006
916.708	16032
916.82	15960
916.932	15953
917.044	15941
917.156	15869
917.268	15720
917.38	15766
917.491	15717
917.603	15816
917.715	15865
917.826	15873
917.938	15800
918.049	15614
918.161	15766
918.272	15804
918.384	15922
918.495	15660
918.606	15564
918.717	15523
918.828	15439
918.939	15443
919.05	15374
919.161	15397
919.272	15329
919.383	15294
919.494	15466
919.604	15667
919.715	15610
919.826	15386
919.936	15435
920.047	15466
920.157	15450
920.267	15690
920.378	15401
920.488	15351
920.598	15656
920.708	15694
920.818	15629
920.928	15507
921.038	15789
921.148	15652
921.258	15329
921.368	15211
921.477	15214
921.587	15184
921.697	15062
921.806	15157
921.916	14929
922.025	14845
922.134	14750
922.244	14769
922.353	14788
922.462	14727
922.571	14575
922.68	14537
922.789	14461
922.898	14438
923.007	14332
923.116	14412
923.224	14343
923.333	14473
923.442	14244
923.55	14237
923.659	14176
923.767	14374
923.876	14237
923.984	14218
924.092	14142
924.201	14164
924.309	14164
924.417	14130
924.525	14031
924.633	14138
924.741	15001
924.849	13818
924.956	13909
925.064	13826
925.172	13746
925.279	13723
925.387	13887
925.494	13746
925.602	13963
925.709	13814
925.816	13757
925.924	13666
926.031	13845
926.138	13814
926.245	13693
926.352	13681
926.459	13784
926.566	13803
926.673	13632
926.779	13521
926.886	13529
926.993	13403
927.099	13377
927.206	13255
927.312	13297
927.419	13346
927.525	13324
927.631	13354
927.737	13171
927.843	13145
927.95	13175
928.056	13110
928.162	13099
928.267	13110
928.373	13655
928.479	13095
928.585	12935
928.69	13065
928.796	13069
928.901	13019
929.007	12817
929.112	12935
929.218	12935
929.323	12848
929.428	12916
929.533	12920
929.638	12681
929.743	12783
929.848	12810
929.953	12791
930.058	12681
930.163	12563
930.267	12555
930.372	12597
930.477	12445
930.581	12532
930.685	12536
930.79	12365
930.894	12441
930.998	12372
931.103	12627
931.207	12175
931.311	11999
931.415	11836
931.519	11722
931.623	11718
