Data from test_V78500241_1315.txt Node
Date: Fri Mar 25 15:50:54 CST 2022
User: usil
Spectrometer: V785-0024
Trigger mode: 0
Integration Time (sec): 4.000000E-1
Scans to average: 1
Nonlinearity correction enabled: false
Boxcar width: 0
Storing dark spectrum: false
XAxis mode: Wavelengths
Number of Pixels in Spectrum: 1024
>>>>>Begin Spectral Data<<<<<
801.071	27732
801.214	27736
801.356	27302
801.499	27557
801.641	27077
801.783	27207
801.926	27291
802.068	27321
802.211	27184
802.353	27100
802.496	27001
802.638	26796
802.78	26667
802.923	26788
803.065	26800
803.208	26754
803.35	26952
803.492	26975
803.635	26937
803.777	26887
803.919	26967
804.061	27325
804.204	27138
804.346	26998
804.488	26872
804.63	26952
804.773	27066
804.915	27081
805.057	27214
805.199	26994
805.341	27116
805.483	27135
805.626	27214
805.768	27047
805.91	27173
806.052	27131
806.194	27180
806.336	27416
806.478	27252
806.62	27119
806.762	27378
806.904	27515
807.046	27675
807.188	27603
807.33	27610
807.472	27644
807.614	27534
807.756	27545
807.898	27561
808.04	27329
808.182	27488
808.324	27526
808.465	27416
808.607	27755
808.749	27850
808.891	27914
809.033	27956
809.174	27846
809.316	27667
809.458	27838
809.6	27854
809.741	27911
809.883	27994
810.025	28112
810.166	28059
810.308	28040
810.45	28051
810.591	27949
810.733	27793
810.875	27751
811.016	27667
811.158	27618
811.299	27709
811.441	27857
811.582	27926
811.724	27869
811.865	27713
812.007	27713
812.148	27648
812.29	27949
812.431	27987
812.573	28135
812.714	28162
812.855	28375
812.997	28478
813.138	28382
813.279	28363
813.421	28291
813.562	28223
813.703	28207
813.845	28063
813.986	27675
814.127	27618
814.268	27344
814.41	27473
814.551	27351
814.692	27511
814.833	27439
814.974	27458
815.115	27412
815.256	27393
815.397	27302
815.539	27367
815.68	27378
815.821	27108
815.962	27184
816.103	27203
816.244	27135
816.385	26967
816.526	26956
816.666	26743
816.807	26606
816.948	26899
817.089	26933
817.23	26769
817.371	26708
817.512	26792
817.653	26712
817.793	26697
817.934	26815
818.075	26838
818.216	26705
818.356	26655
818.497	26640
818.638	26453
818.778	26457
818.919	26533
819.06	26552
819.2	26651
819.341	26754
819.481	26819
819.622	26910
819.762	26921
819.903	27070
820.043	26994
820.184	26849
820.324	26792
820.465	26937
820.605	26845
820.746	26724
820.886	26667
821.026	26842
821.167	26636
821.307	26842
821.447	26880
821.588	26754
821.728	26629
821.868	26362
822.008	26309
822.149	26191
822.289	26214
822.429	26046
822.569	25864
822.709	25925
822.849	25807
822.99	25761
823.13	25681
823.27	25662
823.41	25540
823.55	25491
823.69	25533
823.83	25582
823.97	25407
824.11	25240
824.25	25339
824.389	25312
824.529	25285
824.669	25381
824.809	25495
824.949	25392
825.089	25476
825.228	25487
825.368	25324
825.508	25152
825.648	25297
825.787	25327
825.927	25400
826.067	25103
826.206	25293
826.346	25126
826.485	25213
826.625	25255
826.765	25335
826.904	25152
827.044	24992
827.183	24924
827.323	24844
827.462	24977
827.601	24977
827.741	24844
827.88	24985
828.02	24886
828.159	24871
828.298	24954
828.437	24886
828.577	24886
828.716	25088
828.855	24814
828.994	24715
829.134	24532
829.273	24738
829.412	24658
829.551	24566
829.69	24604
829.829	24673
829.968	24711
830.107	24753
830.246	24696
830.385	24486
830.524	24376
830.663	24471
830.802	24369
830.941	24327
831.08	24171
831.219	24308
831.357	24266
831.496	24544
831.635	24235
831.774	24182
831.913	24072
832.051	24068
832.19	24003
832.329	24068
832.467	23942
832.606	23813
832.744	23946
832.883	23882
833.022	23901
833.16	23965
833.299	24041
833.437	23931
833.576	23992
833.714	24068
833.852	23946
833.991	24034
834.129	24022
834.267	24049
834.406	23961
834.544	24007
834.682	24015
834.821	23927
834.959	24114
835.097	23954
835.235	24003
835.373	23973
835.511	23958
835.65	23756
835.788	23843
835.926	23760
836.064	23646
836.202	23710
836.34	23726
836.478	23771
836.615	23707
836.753	23878
836.891	23851
837.029	23817
837.167	23638
837.305	23741
837.443	23665
837.58	23611
837.718	23718
837.856	23665
837.993	23497
838.131	23745
838.269	23596
838.406	23589
838.544	23414
838.681	23406
838.819	23254
838.956	23052
839.094	23060
839.231	23227
839.369	23246
839.506	23558
839.643	23349
839.781	23250
839.918	23044
840.055	23151
840.193	23124
840.33	23056
840.467	23098
840.604	23075
840.742	23189
840.879	22812
841.016	22984
841.153	22957
841.29	23105
841.427	22927
841.564	22961
841.701	23029
841.838	23033
841.975	22896
842.112	22949
842.249	22900
842.385	22858
842.522	22991
842.659	23022
842.796	22831
842.933	22702
843.069	22763
843.206	22691
843.343	22729
843.479	22763
843.616	22706
843.752	22493
843.889	22713
844.025	22736
844.162	22459
844.298	22573
844.435	22523
844.571	22588
844.708	22641
844.844	22710
844.98	22634
845.117	22752
845.253	22519
845.389	22428
845.525	22569
845.661	22363
845.798	22268
845.934	22432
846.07	22344
846.206	22508
846.342	22375
846.478	22291
846.614	22147
846.75	22002
846.886	22090
847.022	22090
847.158	22124
847.294	22040
847.429	22048
847.565	22002
847.701	22310
847.837	21884
847.972	21823
848.108	21884
848.244	21892
848.379	21622
848.515	21633
848.65	21610
848.786	21675
848.921	21587
849.057	21637
849.192	21675
849.328	21720
849.463	21526
849.598	21679
849.734	21431
849.869	21538
850.004	21469
850.14	21382
850.275	21435
850.41	21249
850.545	21329
850.68	21389
850.815	21450
850.95	21382
851.085	21679
851.22	21545
851.355	21424
851.49	21504
851.625	21264
851.76	21291
851.895	21264
852.03	21279
852.165	21424
852.299	21367
852.434	21363
852.569	21439
852.703	21367
852.838	21545
852.973	21507
853.107	21519
853.242	21344
853.376	21275
853.511	21169
853.645	21192
853.78	21351
853.914	21138
854.048	21161
854.183	21214
854.317	21256
854.451	21492
854.585	21199
854.72	21192
854.854	21199
854.988	21157
855.122	21188
855.256	21066
855.39	21116
855.524	21302
855.658	21294
855.792	21199
855.926	21291
856.06	21180
856.194	21283
856.327	21207
856.461	21154
856.595	21256
856.729	21218
856.862	21458
856.996	21222
857.13	21169
857.263	21420
857.397	21302
857.53	21230
857.664	21321
857.797	21275
857.931	21393
858.064	21272
858.197	21367
858.331	21275
858.464	21119
858.597	21047
858.731	21188
858.864	21245
858.997	21169
859.13	21135
859.263	21108
859.396	21302
859.529	21093
859.662	21245
859.795	21203
859.928	21294
860.061	21306
860.194	21439
860.327	21268
860.46	21142
860.592	21359
860.725	21348
860.858	21249
860.99	21317
861.123	21142
861.256	21142
861.388	21192
861.521	21873
861.653	21043
861.786	20990
861.918	20963
862.05	21066
862.183	21173
862.315	21116
862.447	21241
862.58	21085
862.712	20838
862.844	20857
862.976	20925
863.108	20979
863.24	21272
863.372	20910
863.504	20918
863.636	20994
863.768	21043
863.9	21013
864.032	20880
864.164	20880
864.296	20868
864.428	21017
864.559	21055
864.691	20982
864.823	20998
864.954	20876
865.086	20971
865.217	20842
865.349	20705
865.48	20800
865.612	20895
865.743	20956
865.875	20804
866.006	20769
866.137	20845
866.269	20746
866.4	20765
866.531	20716
866.662	20804
866.793	20731
866.924	20845
867.055	20712
867.186	20773
867.317	20811
867.448	20727
867.579	20750
867.71	20796
867.841	20716
867.972	20697
868.103	20575
868.233	20773
868.364	20724
868.495	20952
868.625	20956
868.756	20990
868.886	20914
869.017	21032
869.147	21131
869.278	21176
869.408	21077
869.539	20963
869.669	21119
869.799	21074
869.929	21051
870.06	21146
870.19	21332
870.32	21211
870.45	21214
870.58	21477
870.71	21526
870.84	21488
870.97	21428
871.1	21389
871.23	21648
871.36	21641
871.489	21355
871.619	21523
871.749	21568
871.879	21701
872.008	21717
872.138	21637
872.267	21500
872.397	21481
872.526	21473
872.656	21386
872.785	21504
872.915	21713
873.044	21614
873.173	21603
873.303	21583
873.432	21686
873.561	21705
873.69	21739
873.819	21641
873.948	21709
874.077	21557
874.206	21488
874.335	21743
874.464	21728
874.593	21827
874.722	21857
874.851	22013
874.979	21785
875.108	21785
875.237	21766
875.365	21709
875.494	21781
875.623	21983
875.751	21907
875.88	21934
876.008	21835
876.136	22017
876.265	22291
876.393	22379
876.521	22379
876.65	22413
876.778	22162
876.906	22169
877.034	22177
877.162	22238
877.29	22109
877.418	22169
877.546	22265
877.674	22128
877.802	22185
877.93	22204
878.058	22135
878.185	22002
878.313	22177
878.441	22211
878.568	21975
878.696	22109
878.824	22139
878.951	22329
879.079	22394
879.206	22451
879.333	22341
879.461	22265
879.588	22371
879.715	22413
879.842	22569
879.97	22303
880.097	22070
880.224	22143
880.351	22010
880.478	22040
880.605	21953
880.732	22074
880.859	22188
880.986	22120
881.112	22040
881.239	21854
881.366	21774
881.493	21660
881.619	21622
881.746	21720
881.872	21629
881.999	21507
882.125	21580
882.252	21603
882.378	21515
882.505	21625
882.631	21386
882.757	21321
882.883	21355
883.01	21378
883.136	21226
883.262	21287
883.388	21192
883.514	21344
883.64	21363
883.766	21180
883.892	21047
884.018	21123
884.143	21199
884.269	21363
884.395	20910
884.52	20948
884.646	21020
884.772	20918
884.897	20910
885.023	20971
885.148	21100
885.274	21089
885.399	20902
885.524	20960
885.65	20975
885.775	20975
885.9	20979
886.025	21032
886.15	20952
886.275	20979
886.4	20857
886.525	20906
886.65	20834
886.775	20876
886.9	21074
887.025	21222
887.149	20887
887.274	20792
887.399	20667
887.523	20625
887.648	20689
887.773	20708
887.897	20807
888.021	20739
888.146	20621
888.27	20705
888.395	20826
888.519	20826
888.643	20819
888.767	20655
888.891	20640
889.015	20530
889.139	20636
889.263	20518
889.387	20552
889.511	20697
889.635	20640
889.759	20522
889.883	20457
890.006	20518
890.13	20579
890.254	20575
890.377	20419
890.501	20377
890.624	20389
890.748	20305
890.871	20206
890.995	20103
891.118	20069
891.241	20012
891.364	20005
891.488	20149
891.611	20138
891.734	20161
891.857	20206
891.98	20134
892.103	20195
892.226	20107
892.349	20058
892.471	19917
892.594	19951
892.717	20008
892.839	20020
892.962	20084
893.085	20050
893.207	19997
893.33	19974
893.452	19852
893.575	20081
893.697	19970
893.819	20168
893.941	20088
894.064	20122
894.186	19875
894.308	19856
894.43	20008
894.552	20149
894.674	20134
894.796	19974
894.918	19940
895.04	20039
895.161	20046
895.283	20115
895.405	20035
895.526	20065
895.648	19925
895.769	20062
895.891	20046
896.012	20195
896.134	20088
896.255	20039
896.376	20005
896.498	20012
896.619	20088
896.74	20054
896.861	20081
896.982	20343
897.103	20374
897.224	20256
897.345	20202
897.466	20225
897.587	20225
897.708	20347
897.828	20343
897.949	20138
898.07	19978
898.19	20069
898.311	20259
898.431	20176
898.552	20115
898.672	20355
898.792	20278
898.913	20252
899.033	20111
899.153	20081
899.273	20005
899.393	20016
899.513	20039
899.633	20092
899.753	20126
899.873	20001
899.993	20043
900.113	19959
900.232	19974
900.352	19944
900.472	19887
900.591	19757
900.711	19871
900.83	19769
900.95	19841
901.069	19807
901.189	19639
901.308	19518
901.427	19358
901.546	19411
901.665	19331
901.784	19468
901.904	19148
902.023	19137
902.141	18913
902.26	18989
902.379	18833
902.498	18920
902.617	18840
902.735	18924
902.854	18859
902.973	18738
903.091	18578
903.21	18574
903.328	18498
903.446	18395
903.565	18334
903.683	18380
903.801	18247
903.919	18254
904.038	18243
904.156	18003
904.274	18106
904.392	18060
904.51	18095
904.627	18072
904.745	18091
904.863	18144
904.981	17885
905.098	17878
905.216	17802
905.334	17775
905.451	17775
905.569	17729
905.686	17756
905.803	17840
905.921	17611
906.038	17695
906.155	17627
906.272	17429
906.389	17482
906.506	17277
906.623	17364
906.74	17376
906.857	17254
906.974	17235
907.091	17345
907.208	17429
907.324	17307
907.441	17067
907.557	17003
907.674	16991
907.79	16972
907.907	17067
908.023	17003
908.139	16984
908.256	17006
908.372	16889
908.488	16965
908.604	16759
908.72	16782
908.836	16771
908.952	16645
909.068	16759
909.184	16801
909.3	16683
909.415	16820
909.531	16733
909.647	16455
909.762	16462
909.878	16508
909.993	16440
910.108	16360
910.224	16379
910.339	16451
910.454	16268
910.57	16166
910.685	16249
910.8	16436
910.915	16398
911.03	16131
911.145	16067
911.259	16093
911.374	15991
911.489	15983
911.604	15880
911.718	15838
911.833	15895
911.947	15690
912.062	15656
912.176	15823
912.291	15842
912.405	15789
912.519	16006
912.633	16017
912.748	15743
912.862	15831
912.976	15576
913.09	15485
913.204	15580
913.318	15622
913.431	15564
913.545	15584
913.659	15751
913.772	15580
913.886	15355
914	15325
914.113	15462
914.226	15431
914.34	15504
914.453	15363
914.566	15496
914.68	15226
914.793	15310
914.906	15036
915.019	14975
915.132	15039
915.245	15058
915.358	14979
915.47	15070
915.583	14990
915.696	15066
915.809	15176
915.921	15154
916.034	14979
916.146	14925
916.259	14842
916.371	15066
916.483	15009
916.595	14994
916.708	14823
916.82	14906
916.932	14785
917.044	14792
917.156	14796
917.268	14655
917.38	14720
917.491	14693
917.603	14701
917.715	14773
917.826	14743
917.938	14720
918.049	14492
918.161	14670
918.272	14746
918.384	14712
918.495	14644
918.606	14556
918.717	14450
918.828	14454
918.939	14457
919.05	14339
919.161	14419
919.272	14176
919.383	14256
919.494	14454
919.604	14651
919.715	14484
919.826	14358
919.936	14351
920.047	14522
920.157	14446
920.267	14575
920.378	14442
920.488	14324
920.598	14613
920.708	14667
920.818	14526
920.928	14465
921.038	14743
921.148	14712
921.258	14396
921.368	14229
921.477	14027
921.587	14111
921.697	14065
921.806	14195
921.916	14027
922.025	13818
922.134	13875
922.244	13727
922.353	13856
922.462	13742
922.571	13609
922.68	13464
922.789	13441
922.898	13422
923.007	13419
923.116	13460
923.224	13441
923.333	13400
923.442	13358
923.55	13377
923.659	13377
923.767	13422
923.876	13236
923.984	13213
924.092	13228
924.201	13190
924.309	13091
924.417	13274
924.525	13126
924.633	13103
924.741	14054
924.849	12848
924.956	13084
925.064	12947
925.172	12837
925.279	12837
925.387	12859
925.494	12833
925.602	12996
925.709	12894
925.816	12779
925.924	12924
926.031	12901
926.138	12791
926.245	12886
926.352	12669
926.459	12840
926.566	12905
926.673	12776
926.779	12574
926.886	12669
926.993	12513
927.099	12437
927.206	12399
927.312	12410
927.419	12547
927.525	12399
927.631	12502
927.737	12311
927.843	12266
927.95	12129
928.056	12289
928.162	12254
928.267	12292
928.373	12791
928.479	12258
928.585	12064
928.69	12213
928.796	12258
928.901	12175
929.007	12019
929.112	12102
929.218	12053
929.323	12034
929.428	11961
929.533	12076
929.638	11942
929.743	11969
929.848	12049
929.953	11950
930.058	11714
930.163	11699
930.267	11726
930.372	11779
930.477	11619
930.581	11870
930.685	11752
930.79	11490
930.894	11596
930.998	11577
931.103	11718
931.207	11368
931.311	11197
931.415	11155
931.519	11022
931.623	10923
