Data from test_V78500241_1771.txt Node
Date: Fri Mar 25 15:54:04 CST 2022
User: usil
Spectrometer: V785-0024
Trigger mode: 0
Integration Time (sec): 4.000000E-1
Scans to average: 1
Nonlinearity correction enabled: false
Boxcar width: 0
Storing dark spectrum: false
XAxis mode: Wavelengths
Number of Pixels in Spectrum: 1024
>>>>>Begin Spectral Data<<<<<
801.071	28805
801.214	28710
801.356	28489
801.499	28421
801.641	28226
801.783	28242
801.926	28234
802.068	28303
802.211	28215
802.353	28230
802.496	27998
802.638	27972
802.78	28040
802.923	27945
803.065	27949
803.208	27888
803.35	28078
803.492	28226
803.635	28200
803.777	28017
803.919	28272
804.061	28500
804.204	28192
804.346	28219
804.488	28093
804.63	28287
804.773	28124
804.915	28162
805.057	28333
805.199	28310
805.341	28325
805.483	28352
805.626	28341
805.768	28154
805.91	28348
806.052	28367
806.194	28371
806.336	28550
806.478	28440
806.62	28333
806.762	28360
806.904	28573
807.046	28908
807.188	28797
807.33	28835
807.472	28790
807.614	28713
807.756	28721
807.898	28778
808.04	28698
808.182	28561
808.324	28748
808.465	28645
808.607	28759
808.749	29010
808.891	29242
809.033	29242
809.174	29159
809.316	28999
809.458	29124
809.6	29018
809.741	29079
809.883	29102
810.025	29311
810.166	29501
810.308	29166
810.45	29128
810.591	29299
810.733	28991
810.875	29086
811.016	29083
811.158	28911
811.299	29086
811.441	29220
811.582	29246
811.724	28991
811.865	28949
812.007	29067
812.148	29006
812.29	29060
812.431	29223
812.573	29421
812.714	29410
812.855	29585
812.997	29718
813.138	29722
813.279	29741
813.421	29646
813.562	29611
813.703	29341
813.845	29425
813.986	29147
814.127	28919
814.268	28816
814.41	28908
814.551	28675
814.692	28782
814.833	28729
814.974	28592
815.115	28759
815.256	28691
815.397	28615
815.539	28702
815.68	28523
815.821	28618
815.962	28440
816.103	28550
816.244	28504
816.385	28386
816.526	28421
816.666	28074
816.807	28139
816.948	28074
817.089	28261
817.23	28048
817.371	28207
817.512	27949
817.653	28143
817.793	28021
817.934	28006
818.075	28215
818.216	28181
818.356	28078
818.497	28017
818.638	27797
818.778	27861
818.919	27789
819.06	27793
819.2	28017
819.341	28109
819.481	28021
819.622	28352
819.762	28428
819.903	28291
820.043	28196
820.184	28204
820.324	28128
820.465	28421
820.605	28276
820.746	28272
820.886	28070
821.026	28192
821.167	27994
821.307	28352
821.447	28166
821.588	28040
821.728	27827
821.868	27808
822.008	27561
822.149	27515
822.289	27454
822.429	27230
822.569	27154
822.709	27237
822.849	27051
822.99	26979
823.13	27104
823.27	27043
823.41	26842
823.55	26815
823.69	26842
823.83	26963
823.97	26868
824.11	26716
824.25	26571
824.389	26693
824.529	26826
824.669	26727
824.809	26864
824.949	26914
825.089	26819
825.228	26735
825.368	26651
825.508	26560
825.648	26533
825.787	26796
825.927	26807
826.067	26663
826.206	26727
826.346	26708
826.485	26632
826.625	26484
826.765	26754
826.904	26796
827.044	26465
827.183	26423
827.323	26332
827.462	26320
827.601	26355
827.741	26298
827.88	26218
828.02	25982
828.159	26263
828.298	26393
828.437	26339
828.577	26142
828.716	26366
828.855	26130
828.994	26103
829.134	25925
829.273	25974
829.412	26088
829.551	25970
829.69	25936
829.829	26005
829.968	25951
830.107	26058
830.246	26005
830.385	25947
830.524	26012
830.663	25849
830.802	25674
830.941	25674
831.08	25483
831.219	25628
831.357	25567
831.496	25731
831.635	25757
831.774	25487
831.913	25533
832.051	25400
832.19	25438
832.329	25362
832.467	25297
832.606	25251
832.744	25126
832.883	25304
833.022	25297
833.16	25221
833.299	25384
833.437	25308
833.576	25377
833.714	25331
833.852	25434
833.991	25373
834.129	25263
834.267	25438
834.406	25274
834.544	25415
834.682	25346
834.821	25225
834.959	25514
835.097	25209
835.235	25388
835.373	25343
835.511	25335
835.65	25213
835.788	25320
835.926	25103
836.064	24932
836.202	24920
836.34	25187
836.478	25156
836.615	25164
836.753	25156
836.891	25209
837.029	25293
837.167	25209
837.305	24992
837.443	25114
837.58	24981
837.718	24901
837.856	24916
837.993	24947
838.131	25000
838.269	24909
838.406	25069
838.544	24867
838.681	24608
838.819	24753
838.956	24391
839.094	24517
839.231	24650
839.369	24608
839.506	24738
839.643	24753
839.781	24357
839.918	24315
840.055	24346
840.193	24456
840.33	24418
840.467	24422
840.604	24334
840.742	24525
840.879	24194
841.016	24350
841.153	24270
841.29	24372
841.427	24289
841.564	24414
841.701	24273
841.838	24289
841.975	24110
842.112	24365
842.249	24163
842.385	24076
842.522	24308
842.659	24205
842.796	24022
842.933	24148
843.069	23999
843.206	24098
843.343	24205
843.479	24110
843.616	23977
843.752	23961
843.889	23904
844.025	24003
844.162	23817
844.298	23958
844.435	23767
844.571	23836
844.708	23794
844.844	24095
844.98	24152
845.117	24038
845.253	23786
845.389	23874
845.525	23722
845.661	23775
845.798	23570
845.934	23710
846.07	23585
846.206	23638
846.342	23638
846.478	23551
846.614	23531
846.75	23280
846.886	23254
847.022	23467
847.158	23395
847.294	23345
847.429	23444
847.565	23349
847.701	23554
847.837	23132
847.972	23060
848.108	23208
848.244	23124
848.379	23044
848.515	22999
848.65	22911
848.786	22984
848.921	22957
849.057	22930
849.192	22984
849.328	22965
849.463	22877
849.598	22858
849.734	22911
849.869	22733
850.004	22706
850.14	22603
850.275	22615
850.41	22615
850.545	22668
850.68	22641
850.815	22729
850.95	22599
851.085	22820
851.22	22824
851.355	22786
851.49	22668
851.625	22687
851.76	22637
851.895	22550
852.03	22512
852.165	22649
852.299	22713
852.434	22706
852.569	22736
852.703	22691
852.838	22782
852.973	22683
853.107	22790
853.242	22557
853.376	22622
853.511	22470
853.645	22538
853.78	22603
853.914	22512
854.048	22417
854.183	22523
854.317	22557
854.451	22679
854.585	22497
854.72	22409
854.854	22512
854.988	22417
855.122	22409
855.256	22219
855.39	22462
855.524	22550
855.658	22577
855.792	22546
855.926	22519
856.06	22478
856.194	22557
856.327	22462
856.461	22462
856.595	22516
856.729	22531
856.862	22550
856.996	22474
857.13	22607
857.263	22630
857.397	22489
857.53	22436
857.664	22603
857.797	22607
857.931	22618
858.064	22561
858.197	22573
858.331	22459
858.464	22371
858.597	22329
858.731	22363
858.864	22402
858.997	22462
859.13	22516
859.263	22443
859.396	22668
859.529	22493
859.662	22508
859.795	22538
859.928	22561
860.061	22725
860.194	22599
860.327	22470
860.46	22546
860.592	22710
860.725	22508
860.858	22531
860.99	22500
861.123	22485
861.256	22306
861.388	22451
861.521	23223
861.653	22333
861.786	22318
861.918	22333
862.05	22306
862.183	22363
862.315	22265
862.447	22333
862.58	22291
862.712	22196
862.844	22230
862.976	22276
863.108	22318
863.24	22672
863.372	22188
863.504	22276
863.636	22067
863.768	22287
863.9	22135
864.032	22204
864.164	22036
864.296	22188
864.428	22219
864.559	22242
864.691	22333
864.823	22211
864.954	22158
865.086	22249
865.217	22177
865.349	22101
865.48	22162
865.612	22101
865.743	22185
865.875	22097
866.006	21991
866.137	22040
866.269	21998
866.4	21945
866.531	22044
866.662	22029
866.793	22032
866.924	22059
867.055	22032
867.186	22048
867.317	21956
867.448	21994
867.579	22029
867.71	21903
867.841	21838
867.972	21918
868.103	21915
868.233	21998
868.364	22017
868.495	22211
868.625	22280
868.756	22318
868.886	22318
869.017	22173
869.147	22310
869.278	22360
869.408	22371
869.539	22291
869.669	22211
869.799	22295
869.929	22371
870.06	22455
870.19	22584
870.32	22599
870.45	22698
870.58	22565
870.71	22668
870.84	22812
870.97	22672
871.1	22668
871.23	22809
871.36	22896
871.489	22725
871.619	22873
871.749	22843
871.879	22721
872.008	22919
872.138	22946
872.267	22873
872.397	22691
872.526	22664
872.656	22694
872.785	22675
872.915	22702
873.044	22873
873.173	22767
873.303	22873
873.432	22995
873.561	22972
873.69	22923
873.819	22896
873.948	22862
874.077	22873
874.206	23044
874.335	22915
874.464	22976
874.593	23155
874.722	23014
874.851	23037
874.979	23094
875.108	23170
875.237	23018
875.365	23052
875.494	23064
875.623	23105
875.751	23105
875.88	23014
876.008	23254
876.136	23307
876.265	23543
876.393	23634
876.521	23467
876.65	23509
876.778	23421
876.906	23387
877.034	23436
877.162	23341
877.29	23368
877.418	23501
877.546	23467
877.674	23364
877.802	23463
877.93	23421
878.058	23490
878.185	23303
878.313	23433
878.441	23315
878.568	23277
878.696	23410
878.824	23284
878.951	23436
879.079	23577
879.206	23851
879.333	23558
879.461	23539
879.588	23608
879.715	23566
879.842	23600
879.97	23566
880.097	23216
880.224	23318
880.351	23311
880.478	23235
880.605	23212
880.732	23227
880.859	23455
880.986	23227
881.112	23315
881.239	23094
881.366	22938
881.493	22824
881.619	22729
881.746	22778
881.872	22828
881.999	22771
882.125	22622
882.252	22702
882.378	22774
882.505	22847
882.631	22656
882.757	22512
882.883	22569
883.01	22500
883.136	22398
883.262	22352
883.388	22322
883.514	22489
883.64	22455
883.766	22341
883.892	22215
884.018	22341
884.143	22474
884.269	22451
884.395	22219
884.52	21987
884.646	22078
884.772	22090
884.897	21949
885.023	22124
885.148	22185
885.274	22219
885.399	22223
885.524	22070
885.65	22086
885.775	22185
885.9	21937
886.025	22238
886.15	22185
886.275	21998
886.4	22059
886.525	22032
886.65	22017
886.775	22048
886.9	22154
887.025	22234
887.149	21972
887.274	21949
887.399	21926
887.523	21854
887.648	21774
887.773	21857
887.897	21926
888.021	21918
888.146	21861
888.27	21861
888.395	21979
888.519	21892
888.643	21983
888.767	21907
888.891	21778
889.015	21660
889.139	21766
889.263	21614
889.387	21625
889.511	21709
889.635	21797
889.759	21652
889.883	21652
890.006	21618
890.13	21736
890.254	21614
890.377	21507
890.501	21412
890.624	21336
890.748	21473
890.871	21287
890.995	21066
891.118	21142
891.241	21116
891.364	21173
891.488	21348
891.611	21291
891.734	21199
891.857	21279
891.98	21256
892.103	21374
892.226	21192
892.349	21176
892.471	21001
892.594	21093
892.717	21032
892.839	20967
892.962	21104
893.085	21138
893.207	20971
893.33	20929
893.452	20960
893.575	21154
893.697	21116
893.819	21199
893.941	21268
894.064	21222
894.186	20975
894.308	21047
894.43	21093
894.552	21268
894.674	21157
894.796	20982
894.918	20849
895.04	21039
895.161	21161
895.283	21100
895.405	21108
895.526	21127
895.648	21028
895.769	21093
895.891	21085
896.012	21127
896.134	21100
896.255	20986
896.376	21104
896.498	21066
896.619	21051
896.74	21017
896.861	21169
896.982	21450
897.103	21389
897.224	21256
897.345	21211
897.466	21237
897.587	21275
897.708	21302
897.828	21321
897.949	21230
898.07	21085
898.19	21142
898.311	21416
898.431	21260
898.552	21146
898.672	21260
898.792	21408
898.913	21310
899.033	21089
899.153	20990
899.273	20906
899.393	20994
899.513	20975
899.633	20979
899.753	21089
899.873	20967
899.993	21005
900.113	20960
900.232	20910
900.352	20963
900.472	20777
900.591	20731
900.711	20845
900.83	20594
900.95	20788
901.069	20918
901.189	20708
901.308	20404
901.427	20343
901.546	20423
901.665	20324
901.784	20355
901.904	20138
902.023	20046
902.141	19967
902.26	19940
902.379	19997
902.498	19860
902.617	19769
902.735	19795
902.854	19902
902.973	19795
903.091	19518
903.21	19567
903.328	19514
903.446	19472
903.565	19221
903.683	19381
903.801	19152
903.919	19247
904.038	19293
904.156	19019
904.274	19019
904.392	19091
904.51	18966
904.627	18951
904.745	19110
904.863	19213
904.981	18878
905.098	18681
905.216	18738
905.334	18707
905.451	18772
905.569	18673
905.686	18608
905.803	18627
905.921	18597
906.038	18593
906.155	18479
906.272	18429
906.389	18399
906.506	18346
906.623	18285
906.74	18148
906.857	18213
906.974	18076
907.091	18235
907.208	18433
907.324	18174
907.441	18121
907.557	17999
907.674	18007
907.79	17927
907.907	18015
908.023	17939
908.139	18026
908.256	17984
908.372	17813
908.488	17847
908.604	17699
908.72	17608
908.836	17653
908.952	17653
909.068	17528
909.184	17790
909.3	17661
909.415	17691
909.531	17653
909.647	17425
909.762	17406
909.878	17406
909.993	17356
910.108	17239
910.224	17242
910.339	17330
910.454	17239
910.57	17045
910.685	17124
910.8	17417
910.915	17178
911.03	17098
911.145	16976
911.259	16946
911.374	16965
911.489	16850
911.604	16809
911.718	16679
911.833	16713
911.947	16592
912.062	16519
912.176	16668
912.291	16831
912.405	16637
912.519	16911
912.633	16908
912.748	16694
912.862	16622
912.976	16398
913.09	16363
913.204	16531
913.318	16504
913.431	16603
913.545	16611
913.659	16577
913.772	16398
913.886	16314
914	16268
914.113	16371
914.226	16398
914.34	16375
914.453	16185
914.566	16265
914.68	16150
914.793	16131
914.906	16036
915.019	15800
915.132	15789
915.245	15888
915.358	15865
915.47	15876
915.583	15804
915.696	15903
915.809	15983
915.921	15899
916.034	15808
916.146	15648
916.259	15675
916.371	15793
916.483	15759
916.595	15637
916.708	15610
916.82	15663
916.932	15732
917.044	15637
917.156	15549
917.268	15412
917.38	15469
917.491	15412
917.603	15408
917.715	15591
917.826	15450
917.938	15344
918.049	15397
918.161	15439
918.272	15545
918.384	15553
918.495	15351
918.606	15241
918.717	15093
918.828	15218
918.939	15230
919.05	15119
919.161	15157
919.272	15039
919.383	15070
919.494	15245
919.604	15363
919.715	15222
919.826	15074
919.936	15165
920.047	15287
920.157	15127
920.267	15367
920.378	15192
920.488	15066
920.598	15283
920.708	15500
920.818	15363
920.928	15264
921.038	15458
921.148	15496
921.258	15058
921.368	14998
921.477	14895
921.587	14823
921.697	14712
921.806	14906
921.916	14765
922.025	14655
922.134	14571
922.244	14431
922.353	14522
922.462	14476
922.571	14313
922.68	14168
922.789	14225
922.898	14210
923.007	14096
923.116	14153
923.224	14164
923.333	14065
923.442	14035
923.55	13974
923.659	14024
923.767	13944
923.876	13913
923.984	14046
924.092	13864
924.201	13902
924.309	13909
924.417	13955
924.525	13864
924.633	13830
924.741	14568
924.849	13632
924.956	13769
925.064	13563
925.172	13476
925.279	13529
925.387	13575
925.494	13533
925.602	13655
925.709	13567
925.816	13499
925.924	13518
926.031	13590
926.138	13457
926.245	13441
926.352	13453
926.459	13460
926.566	13457
926.673	13346
926.779	13266
926.886	13209
926.993	13145
927.099	13091
927.206	12993
927.312	13103
927.419	13145
927.525	13091
927.631	13099
927.737	12935
927.843	12973
927.95	12825
928.056	12932
928.162	12878
928.267	13015
928.373	13449
928.479	12920
928.585	12669
928.69	12837
928.796	12859
928.901	12798
929.007	12627
929.112	12726
929.218	12760
929.323	12551
929.428	12608
929.533	12753
929.638	12559
929.743	12601
929.848	12631
929.953	12498
930.058	12391
930.163	12243
930.267	12247
930.372	12391
930.477	12243
930.581	12486
930.685	12285
930.79	12091
930.894	12163
930.998	12224
931.103	12315
931.207	11950
931.311	11836
931.415	11760
931.519	11562
931.623	11444
