Data from test_V78500241_2708.txt Node
Date: Fri Mar 25 16:00:33 CST 2022
User: usil
Spectrometer: V785-0024
Trigger mode: 0
Integration Time (sec): 4.000000E-1
Scans to average: 1
Nonlinearity correction enabled: false
Boxcar width: 0
Storing dark spectrum: false
XAxis mode: Wavelengths
Number of Pixels in Spectrum: 1024
>>>>>Begin Spectral Data<<<<<
801.071	28371
801.214	28192
801.356	28128
801.499	28051
801.641	27854
801.783	27918
801.926	27781
802.068	27922
802.211	27713
802.353	27835
802.496	27545
802.638	27545
802.78	27469
802.923	27599
803.065	27287
803.208	27424
803.35	27603
803.492	27736
803.635	27739
803.777	27625
803.919	27827
804.061	28090
804.204	27660
804.346	27751
804.488	27698
804.63	27823
804.773	27717
804.915	27892
805.057	27914
805.199	27709
805.341	27766
805.483	27960
805.626	28044
805.768	27759
805.91	27854
806.052	27869
806.194	27835
806.336	28150
806.478	27945
806.62	27911
806.762	28032
806.904	28200
807.046	28634
807.188	28158
807.33	28348
807.472	28367
807.614	28341
807.756	28360
807.898	28181
808.04	28219
808.182	28219
808.324	28238
808.465	28379
808.607	28523
808.749	28603
808.891	28694
809.033	28725
809.174	28622
809.316	28626
809.458	28607
809.6	28527
809.741	28755
809.883	28733
810.025	28957
810.166	28801
810.308	28999
810.45	28862
810.591	28702
810.733	28489
810.875	28546
811.016	28557
811.158	28519
811.299	28687
811.441	28763
811.582	28694
811.724	28694
811.865	28523
812.007	28557
812.148	28485
812.29	28675
812.431	28736
812.573	28927
812.714	28946
812.855	29003
812.997	29220
813.138	29368
813.279	29208
813.421	29086
813.562	28930
813.703	28991
813.845	28797
813.986	28546
814.127	28379
814.268	28333
814.41	28314
814.551	28219
814.692	28310
814.833	28154
814.974	28116
815.115	28101
815.256	28230
815.397	28325
815.539	28166
815.68	28086
815.821	28025
815.962	27987
816.103	28063
816.244	27987
816.385	27766
816.526	27819
816.666	27812
816.807	27641
816.948	27622
817.089	27766
817.23	27473
817.371	27667
817.512	27515
817.653	27492
817.793	27427
817.934	27545
818.075	27652
818.216	27557
818.356	27557
818.497	27568
818.638	27367
818.778	27260
818.919	27408
819.06	27401
819.2	27420
819.341	27530
819.481	27427
819.622	27743
819.762	27846
819.903	27835
820.043	27778
820.184	27770
820.324	27656
820.465	27778
820.605	27781
820.746	27648
820.886	27682
821.026	27667
821.167	27599
821.307	27660
821.447	27660
821.588	27534
821.728	27294
821.868	27241
822.008	27096
822.149	26956
822.289	26956
822.429	26792
822.569	26762
822.709	26819
822.849	26670
822.99	26530
823.13	26427
823.27	26545
823.41	26355
823.55	26339
823.69	26408
823.83	26377
823.97	26282
824.11	26153
824.25	26164
824.389	26176
824.529	26210
824.669	26149
824.809	26313
824.949	26351
825.089	26252
825.228	26263
825.368	26031
825.508	25944
825.648	26065
825.787	26191
825.927	26168
826.067	26073
826.206	26084
826.346	26119
826.485	26202
826.625	26138
826.765	26142
826.904	26153
827.044	25826
827.183	25769
827.323	25693
827.462	25818
827.601	25875
827.741	25761
827.88	25837
828.02	25651
828.159	25750
828.298	25799
828.437	25868
828.577	25689
828.716	25902
828.855	25750
828.994	25472
829.134	25506
829.273	25655
829.412	25472
829.551	25426
829.69	25464
829.829	25426
829.968	25518
830.107	25521
830.246	25460
830.385	25278
830.524	25411
830.663	25358
830.802	25164
830.941	25042
831.08	25080
831.219	25156
831.357	25183
831.496	25282
831.635	25046
831.774	24951
831.913	24943
832.051	24928
832.19	24783
832.329	24909
832.467	24757
832.606	24726
832.744	24745
832.883	24741
833.022	24593
833.16	24741
833.299	24878
833.437	24837
833.576	24730
833.714	24726
833.852	24840
833.991	24932
834.129	24962
834.267	24856
834.406	24837
834.544	24909
834.682	24810
834.821	24840
834.959	24966
835.097	24776
835.235	24802
835.373	24886
835.511	24719
835.65	24601
835.788	24703
835.926	24460
836.064	24384
836.202	24460
836.34	24646
836.478	24726
836.615	24566
836.753	24681
836.891	24635
837.029	24585
837.167	24559
837.305	24536
837.443	24502
837.58	24410
837.718	24540
837.856	24471
837.993	24505
838.131	24441
838.269	24277
838.406	24422
838.544	24372
838.681	24171
838.819	24022
838.956	23988
839.094	23821
839.231	24041
839.369	24129
839.506	24247
839.643	24228
839.781	23939
839.918	23836
840.055	23973
840.193	23840
840.33	23889
840.467	23885
840.604	23977
840.742	24197
840.879	23775
841.016	23802
841.153	23718
841.29	23927
841.427	23821
841.564	23836
841.701	23756
841.838	23882
841.975	23699
842.112	23859
842.249	23714
842.385	23703
842.522	23821
842.659	23775
842.796	23699
842.933	23554
843.069	23649
843.206	23474
843.343	23551
843.479	23566
843.616	23596
843.752	23429
843.889	23345
844.025	23566
844.162	23296
844.298	23463
844.435	23372
844.571	23486
844.708	23531
844.844	23604
844.98	23425
845.117	23452
845.253	23364
845.389	23273
845.525	23254
845.661	23235
845.798	23159
845.934	23185
846.07	22976
846.206	23098
846.342	23299
846.478	23181
846.614	22938
846.75	22820
846.886	22839
847.022	22881
847.158	22786
847.294	22824
847.429	22869
847.565	22801
847.701	23041
847.837	22649
847.972	22493
848.108	22626
848.244	22725
848.379	22504
848.515	22367
848.65	22466
848.786	22421
848.921	22409
849.057	22500
849.192	22584
849.328	22455
849.463	22409
849.598	22432
849.734	22379
849.869	22246
850.004	22192
850.14	22124
850.275	22204
850.41	22124
850.545	22086
850.68	22158
850.815	22188
850.95	22120
851.085	22466
851.22	22253
851.355	22280
851.49	22268
851.625	22059
851.76	22109
851.895	22158
852.03	22097
852.165	22192
852.299	22150
852.434	22299
852.569	22219
852.703	22147
852.838	22166
852.973	22249
853.107	22386
853.242	22086
853.376	22013
853.511	21953
853.645	21964
853.78	22207
853.914	21975
854.048	21945
854.183	21899
854.317	22013
854.451	22291
854.585	22032
854.72	21968
854.854	22010
854.988	21934
855.122	21994
855.256	21850
855.39	22013
855.524	22021
855.658	21911
855.792	22002
855.926	22086
856.06	22135
856.194	22067
856.327	22086
856.461	22013
856.595	21922
856.729	22032
856.862	22135
856.996	22010
857.13	22044
857.263	22173
857.397	22074
857.53	21994
857.664	22074
857.797	22093
857.931	22139
858.064	22044
858.197	22234
858.331	22059
858.464	21968
858.597	21945
858.731	21842
858.864	22013
858.997	22006
859.13	21979
859.263	21998
859.396	22032
859.529	22010
859.662	22067
859.795	21972
859.928	22017
860.061	22211
860.194	22188
860.327	21972
860.46	21991
860.592	22048
860.725	21983
860.858	22162
860.99	22093
861.123	21991
861.256	21953
861.388	22021
861.521	22790
861.653	21869
861.786	21781
861.918	21907
862.05	21854
862.183	21934
862.315	21983
862.447	21949
862.58	21960
862.712	21842
862.844	21603
862.976	21755
863.108	21835
863.24	22188
863.372	21728
863.504	21857
863.636	21739
863.768	21743
863.9	21690
864.032	21667
864.164	21759
864.296	21633
864.428	21895
864.559	21819
864.691	21831
864.823	21701
864.954	21736
865.086	21762
865.217	21637
865.349	21553
865.48	21690
865.612	21610
865.743	21762
865.875	21694
866.006	21595
866.137	21447
866.269	21500
866.4	21496
866.531	21515
866.662	21500
866.793	21599
866.924	21564
867.055	21511
867.186	21618
867.317	21603
867.448	21424
867.579	21603
867.71	21378
867.841	21504
867.972	21538
868.103	21644
868.233	21564
868.364	21629
868.495	21648
868.625	21793
868.756	21743
868.886	21705
869.017	21717
869.147	21854
869.278	21941
869.408	21717
869.539	21720
869.669	21911
869.799	21736
869.929	21895
870.06	21823
870.19	22059
870.32	22128
870.45	22188
870.58	22166
870.71	22306
870.84	22196
870.97	22105
871.1	22215
871.23	22371
871.36	22356
871.489	22363
871.619	22276
871.749	22428
871.879	22474
872.008	22417
872.138	22409
872.267	22325
872.397	22268
872.526	22173
872.656	22246
872.785	22196
872.915	22462
873.044	22432
873.173	22371
873.303	22424
873.432	22379
873.561	22512
873.69	22470
873.819	22405
873.948	22500
874.077	22310
874.206	22325
874.335	22470
874.464	22485
874.593	22565
874.722	22603
874.851	22637
874.979	22569
875.108	22713
875.237	22626
875.365	22489
875.494	22569
875.623	22618
875.751	22603
875.88	22637
876.008	22778
876.136	22881
876.265	22972
876.393	23098
876.521	23140
876.65	23029
876.778	22976
876.906	23018
877.034	22949
877.162	22896
877.29	22987
877.418	22980
877.546	23083
877.674	22965
877.802	23010
877.93	22946
878.058	22877
878.185	22824
878.313	22881
878.441	22866
878.568	22873
878.696	22850
878.824	22972
878.951	23022
879.079	23216
879.206	23197
879.333	23166
879.461	22938
879.588	23090
879.715	23178
879.842	23197
879.97	23018
880.097	22824
880.224	22725
880.351	22831
880.478	22774
880.605	22748
880.732	22706
880.859	22904
880.986	22801
881.112	22858
881.239	22752
881.366	22596
881.493	22504
881.619	22382
881.746	22348
881.872	22478
881.999	22234
882.125	22261
882.252	22333
882.378	22230
882.505	22455
882.631	22166
882.757	22116
882.883	22109
883.01	22059
883.136	21937
883.262	21918
883.388	21804
883.514	22006
883.64	22006
883.766	21979
883.892	21728
884.018	21785
884.143	21895
884.269	22029
884.395	21774
884.52	21736
884.646	21713
884.772	21580
884.897	21519
885.023	21736
885.148	21724
885.274	21770
885.399	21850
885.524	21736
885.65	21709
885.775	21751
885.9	21637
886.025	21599
886.15	21644
886.275	21618
886.4	21534
886.525	21580
886.65	21591
886.775	21652
886.9	21759
887.025	21846
887.149	21698
887.274	21519
887.399	21511
887.523	21393
887.648	21367
887.773	21401
887.897	21507
888.021	21568
888.146	21302
888.27	21431
888.395	21557
888.519	21462
888.643	21519
888.767	21523
888.891	21340
889.015	21332
889.139	21279
889.263	21325
889.387	21344
889.511	21462
889.635	21192
889.759	21260
889.883	21245
890.006	21192
890.13	21291
890.254	21142
890.377	21119
890.501	20956
890.624	20986
890.748	21032
890.871	20914
890.995	20693
891.118	20765
891.241	20773
891.364	20788
891.488	20929
891.611	20838
891.734	20693
891.857	20914
891.98	20857
892.103	20750
892.226	20811
892.349	20750
892.471	20583
892.594	20731
892.717	20659
892.839	20720
892.962	20636
893.085	20724
893.207	20636
893.33	20629
893.452	20629
893.575	20712
893.697	20629
893.819	20788
893.941	20899
894.064	20826
894.186	20636
894.308	20571
894.43	20716
894.552	20967
894.674	20701
894.796	20568
894.918	20651
895.04	20625
895.161	20659
895.283	20686
895.405	20594
895.526	20705
895.648	20716
895.769	20735
895.891	20781
896.012	20693
896.134	20800
896.255	20625
896.376	20686
896.498	20587
896.619	20689
896.74	20621
896.861	20667
896.982	21013
897.103	21112
897.224	20979
897.345	20963
897.466	20857
897.587	20895
897.708	21096
897.828	20937
897.949	20819
898.07	20720
898.19	20895
898.311	20891
898.431	20910
898.552	20963
898.672	20990
898.792	21066
898.913	20826
899.033	20826
899.153	20659
899.273	20545
899.393	20583
899.513	20788
899.633	20754
899.753	20594
899.873	20594
899.993	20621
900.113	20609
900.232	20636
900.352	20552
900.472	20461
900.591	20339
900.711	20419
900.83	20259
900.95	20419
901.069	20434
901.189	20381
901.308	20103
901.427	19913
901.546	20012
901.665	19936
901.784	19917
901.904	19871
902.023	19864
902.141	19693
902.26	19537
902.379	19548
902.498	19415
902.617	19411
902.735	19476
902.854	19445
902.973	19324
903.091	19247
903.21	19145
903.328	19042
903.446	19126
903.565	19095
903.683	18996
903.801	18924
903.919	18779
904.038	19023
904.156	18795
904.274	18829
904.392	18665
904.51	18722
904.627	18627
904.745	18688
904.863	18722
904.981	18475
905.098	18403
905.216	18407
905.334	18433
905.451	18376
905.569	18209
905.686	18281
905.803	18376
905.921	18068
906.038	18308
906.155	18186
906.272	18114
906.389	18102
906.506	17980
906.623	17893
906.74	17916
906.857	17836
906.974	17786
907.091	17992
907.208	17980
907.324	17855
907.441	17779
907.557	17687
907.674	17604
907.79	17562
907.907	17554
908.023	17676
908.139	17634
908.256	17467
908.372	17493
908.488	17497
908.604	17345
908.72	17364
908.836	17391
908.952	17273
909.068	17280
909.184	17505
909.3	17368
909.415	17406
909.531	17364
909.647	17102
909.762	16965
909.878	16953
909.993	17014
910.108	17033
910.224	17018
910.339	17010
910.454	16885
910.57	16778
910.685	16698
910.8	16999
910.915	17006
911.03	16835
911.145	16622
911.259	16637
911.374	16558
911.489	16542
911.604	16508
911.718	16276
911.833	16402
911.947	16325
912.062	16109
912.176	16432
912.291	16386
912.405	16436
912.519	16573
912.633	16573
912.748	16360
912.862	16318
912.976	16230
913.09	16143
913.204	16192
913.318	16067
913.431	16238
913.545	16188
913.659	16188
913.772	16124
913.886	16032
914	15975
914.113	15968
914.226	16105
914.34	16067
914.453	15827
914.566	15953
914.68	15873
914.793	15804
914.906	15637
915.019	15580
915.132	15466
915.245	15542
915.358	15572
915.47	15629
915.583	15519
915.696	15534
915.809	15576
915.921	15656
916.034	15454
916.146	15568
916.259	15466
916.371	15507
916.483	15458
916.595	15306
916.708	15355
916.82	15321
916.932	15348
917.044	15302
917.156	15321
917.268	15211
917.38	15222
917.491	15150
917.603	15199
917.715	15329
917.826	15192
917.938	15024
918.049	14998
918.161	15070
918.272	15226
918.384	15230
918.495	15127
918.606	14937
918.717	14887
918.828	15001
918.939	14948
919.05	14845
919.161	14952
919.272	14739
919.383	14708
919.494	14887
919.604	15074
919.715	15039
919.826	14823
919.936	14842
920.047	14933
920.157	14929
920.267	15013
920.378	14967
920.488	14853
920.598	15100
920.708	15252
920.818	14994
920.928	15036
921.038	15150
921.148	15127
921.258	14853
921.368	14739
921.477	14663
921.587	14651
921.697	14549
921.806	14587
921.916	14396
922.025	14393
922.134	14225
922.244	14187
922.353	14328
922.462	14214
922.571	14164
922.68	13849
922.789	13898
922.898	13887
923.007	13887
923.116	13928
923.224	13769
923.333	13818
923.442	13765
923.55	13750
923.659	13776
923.767	13822
923.876	13616
923.984	13723
924.092	13662
924.201	13609
924.309	13613
924.417	13533
924.525	13571
924.633	13533
924.741	14533
924.849	13407
924.956	13415
925.064	13346
925.172	13270
925.279	13285
925.387	13362
925.494	13244
925.602	13377
925.709	13327
925.816	13183
925.924	13293
926.031	13320
926.138	13209
926.245	13270
926.352	13164
926.459	13236
926.566	13346
926.673	13198
926.779	13088
926.886	13038
926.993	12928
927.099	12829
927.206	12821
927.312	12856
927.419	12867
927.525	12878
927.631	12806
927.737	12757
927.843	12642
927.95	12623
928.056	12715
928.162	12631
928.267	12700
928.373	13156
928.479	12696
928.585	12464
928.69	12593
928.796	12620
928.901	12528
929.007	12437
929.112	12517
929.218	12441
929.323	12433
929.428	12357
929.533	12483
929.638	12353
929.743	12342
929.848	12433
929.953	12251
930.058	12277
930.163	12026
930.267	12049
930.372	12175
930.477	12007
930.581	12232
930.685	12068
930.79	11931
930.894	11969
930.998	11843
931.103	12022
931.207	11653
931.311	11649
931.415	11493
931.519	11353
931.623	11227
