Data from test_V78500241_2469.txt Node
Date: Fri Mar 25 15:58:54 CST 2022
User: usil
Spectrometer: V785-0024
Trigger mode: 0
Integration Time (sec): 4.000000E-1
Scans to average: 1
Nonlinearity correction enabled: false
Boxcar width: 0
Storing dark spectrum: false
XAxis mode: Wavelengths
Number of Pixels in Spectrum: 1024
>>>>>Begin Spectral Data<<<<<
801.071	28101
801.214	27922
801.356	27759
801.499	27686
801.641	27656
801.783	27603
801.926	27778
802.068	27637
802.211	27591
802.353	27389
802.496	27302
802.638	27298
802.78	27245
802.923	27131
803.065	27214
803.208	27150
803.35	27268
803.492	27427
803.635	27405
803.777	27374
803.919	27580
804.061	27671
804.204	27542
804.346	27427
804.488	27279
804.63	27519
804.773	27454
804.915	27709
805.057	27622
805.199	27485
805.341	27458
805.483	27599
805.626	27504
805.768	27633
805.91	27515
806.052	27625
806.194	27591
806.336	27713
806.478	27549
806.62	27610
806.762	27785
806.904	27819
807.046	28048
807.188	27941
807.33	28082
807.472	28017
807.614	27888
807.756	28116
807.898	27846
808.04	27774
808.182	27964
808.324	27808
808.465	28044
808.607	28154
808.749	28120
808.891	28337
809.033	28329
809.174	28314
809.316	28131
809.458	28192
809.6	28253
809.741	28306
809.883	28276
810.025	28485
810.166	28508
810.308	28508
810.45	28428
810.591	28379
810.733	28234
810.875	28234
811.016	28177
811.158	28135
811.299	28242
811.441	28341
811.582	28394
811.724	28238
811.865	28185
812.007	28158
812.148	28143
812.29	28375
812.431	28584
812.573	28466
812.714	28561
812.855	28824
812.997	28873
813.138	28953
813.279	28736
813.421	28744
813.562	28675
813.703	28542
813.845	28462
813.986	28154
814.127	28051
814.268	28078
814.41	27861
814.551	27865
814.692	28002
814.833	27838
814.974	27899
815.115	27964
815.256	27690
815.397	27686
815.539	27907
815.68	27732
815.821	27618
815.962	27705
816.103	27755
816.244	27485
816.385	27412
816.526	27557
816.666	27454
816.807	27260
816.948	27306
817.089	27344
817.23	27100
817.371	27104
817.512	27005
817.653	27017
817.793	27089
817.934	27104
818.075	27279
818.216	27218
818.356	27161
818.497	27150
818.638	26823
818.778	26906
818.919	26960
819.06	26967
819.2	27024
819.341	27089
819.481	27165
819.622	27378
819.762	27462
819.903	27427
820.043	27370
820.184	27336
820.324	27165
820.465	27370
820.605	27294
820.746	27348
820.886	27199
821.026	27245
821.167	27268
821.307	27287
821.447	27165
821.588	27169
821.728	26979
821.868	26796
822.008	26697
822.149	26625
822.289	26514
822.429	26465
822.569	26240
822.709	26431
822.849	26214
822.99	26107
823.13	26134
823.27	25951
823.41	26054
823.55	25879
823.69	25921
823.83	25947
823.97	25871
824.11	25693
824.25	25845
824.389	25845
824.529	25894
824.669	25784
824.809	25917
824.949	25849
825.089	25959
825.228	25925
825.368	25506
825.508	25666
825.648	25597
825.787	25712
825.927	25597
826.067	25582
826.206	25597
826.346	25639
826.485	25658
826.625	25662
826.765	25655
826.904	25753
827.044	25479
827.183	25384
827.323	25312
827.462	25400
827.601	25438
827.741	25479
827.88	25362
828.02	25225
828.159	25228
828.298	25438
828.437	25537
828.577	25187
828.716	25502
828.855	25209
828.994	25031
829.134	25065
829.273	25103
829.412	24962
829.551	24935
829.69	24973
829.829	24977
829.968	25126
830.107	25095
830.246	25050
830.385	24951
830.524	25042
830.663	24852
830.802	24840
830.941	24608
831.08	24597
831.219	24715
831.357	24719
831.496	24825
831.635	24658
831.774	24544
831.913	24661
832.051	24498
832.19	24551
832.329	24448
832.467	24353
832.606	24346
832.744	24194
832.883	24197
833.022	24201
833.16	24327
833.299	24494
833.437	24418
833.576	24350
833.714	24361
833.852	24376
833.991	24467
834.129	24517
834.267	24464
834.406	24323
834.544	24429
834.682	24418
834.821	24315
834.959	24566
835.097	24262
835.235	24399
835.373	24395
835.511	24365
835.65	24213
835.788	24068
835.926	24117
836.064	24018
836.202	24068
836.34	24106
836.478	24235
836.615	24174
836.753	24174
836.891	24270
837.029	24121
837.167	24201
837.305	24159
837.443	24125
837.58	23977
837.718	24053
837.856	24114
837.993	23870
838.131	24155
838.269	23965
838.406	23908
838.544	23821
838.681	23672
838.819	23756
838.956	23516
839.094	23452
839.231	23627
839.369	23573
839.506	23935
839.643	23824
839.781	23539
839.918	23535
840.055	23512
840.193	23551
840.33	23425
840.467	23486
840.604	23497
840.742	23668
840.879	23315
841.016	23288
841.153	23254
841.29	23429
841.427	23368
841.564	23486
841.701	23311
841.838	23360
841.975	23341
842.112	23265
842.249	23246
842.385	23220
842.522	23337
842.659	23197
842.796	23197
842.933	23147
843.069	23105
843.206	23109
843.343	23273
843.479	23223
843.616	23231
843.752	23029
843.889	23006
844.025	23098
844.162	23006
844.298	23056
844.435	23037
844.571	22930
844.708	23010
844.844	23143
844.98	23079
845.117	23044
845.253	22816
845.389	22713
845.525	22881
845.661	22896
845.798	22702
845.934	22790
846.07	22702
846.206	22831
846.342	22839
846.478	22759
846.614	22527
846.75	22432
846.886	22356
847.022	22394
847.158	22493
847.294	22386
847.429	22485
847.565	22341
847.701	22618
847.837	22173
847.972	22215
848.108	22268
848.244	22101
848.379	22090
848.515	21953
848.65	22025
848.786	21991
848.921	22002
849.057	22128
849.192	22067
849.328	22105
849.463	21926
849.598	21888
849.734	21812
849.869	21831
850.004	21838
850.14	21934
850.275	21819
850.41	21739
850.545	21629
850.68	21751
850.815	21751
850.95	21861
851.085	21918
851.22	21713
851.355	21823
851.49	21728
851.625	21785
851.76	21854
851.895	21603
852.03	21743
852.165	21808
852.299	21876
852.434	21831
852.569	21846
852.703	21827
852.838	21907
852.973	21937
853.107	21892
853.242	21720
853.376	21644
853.511	21378
853.645	21416
853.78	21633
853.914	21606
854.048	21447
854.183	21614
854.317	21682
854.451	21823
854.585	21614
854.72	21618
854.854	21660
854.988	21557
855.122	21641
855.256	21439
855.39	21648
855.524	21637
855.658	21644
855.792	21576
855.926	21595
856.06	21629
856.194	21751
856.327	21515
856.461	21618
856.595	21389
856.729	21473
856.862	21652
856.996	21690
857.13	21622
857.263	21644
857.397	21728
857.53	21629
857.664	21644
857.797	21724
857.931	21629
858.064	21800
858.197	21686
858.331	21526
858.464	21553
858.597	21610
858.731	21618
858.864	21454
858.997	21682
859.13	21671
859.263	21587
859.396	21591
859.529	21587
859.662	21454
859.795	21447
859.928	21625
860.061	21679
860.194	21823
860.327	21652
860.46	21663
860.592	21804
860.725	21743
860.858	21682
860.99	21644
861.123	21519
861.256	21492
861.388	21637
861.521	22337
861.653	21450
861.786	21439
861.918	21606
862.05	21332
862.183	21530
862.315	21591
862.447	21660
862.58	21538
862.712	21321
862.844	21283
862.976	21317
863.108	21473
863.24	21724
863.372	21256
863.504	21374
863.636	21291
863.768	21294
863.9	21260
864.032	21294
864.164	21370
864.296	21279
864.428	21382
864.559	21340
864.691	21287
864.823	21351
864.954	21317
865.086	21340
865.217	21199
865.349	21237
865.48	21165
865.612	21298
865.743	21233
865.875	21165
866.006	21169
866.137	21116
866.269	20990
866.4	21275
866.531	21161
866.662	21203
866.793	21112
866.924	21154
867.055	21104
867.186	21058
867.317	21077
867.448	20990
867.579	21127
867.71	21043
867.841	20960
867.972	21146
868.103	21173
868.233	21222
868.364	21066
868.495	21165
868.625	21416
868.756	21420
868.886	21367
869.017	21428
869.147	21458
869.278	21488
869.408	21351
869.539	21424
869.669	21523
869.799	21329
869.929	21526
870.06	21378
870.19	21641
870.32	21682
870.45	21778
870.58	21766
870.71	21907
870.84	21846
870.97	21785
871.1	21800
871.23	21934
871.36	22021
871.489	21949
871.619	21899
871.749	21975
871.879	22067
872.008	22169
872.138	22051
872.267	21941
872.397	21884
872.526	21759
872.656	21838
872.785	21759
872.915	22059
873.044	22051
873.173	22128
873.303	21964
873.432	22090
873.561	22036
873.69	21918
873.819	22101
873.948	21979
874.077	22006
874.206	22025
874.335	22135
874.464	22131
874.593	22230
874.722	22230
874.851	22230
874.979	22322
875.108	22310
875.237	22150
875.365	22074
875.494	22173
875.623	22234
875.751	22101
875.88	22363
876.008	22344
876.136	22447
876.265	22508
876.393	22744
876.521	22774
876.65	22725
876.778	22413
876.906	22493
877.034	22413
877.162	22592
877.29	22637
877.418	22527
877.546	22573
877.674	22485
877.802	22531
877.93	22565
878.058	22546
878.185	22504
878.313	22573
878.441	22599
878.568	22318
878.696	22508
878.824	22634
878.951	22660
879.079	22733
879.206	22961
879.333	22710
879.461	22523
879.588	22733
879.715	22809
879.842	22881
879.97	22740
880.097	22481
880.224	22386
880.351	22398
880.478	22489
880.605	22360
880.732	22375
880.859	22702
880.986	22440
881.112	22497
881.239	22166
881.366	22173
881.493	22040
881.619	21975
881.746	21865
881.872	21945
881.999	21937
882.125	21911
882.252	22048
882.378	21819
882.505	22044
882.631	21876
882.757	21667
882.883	21705
883.01	21698
883.136	21690
883.262	21526
883.388	21538
883.514	21660
883.64	21705
883.766	21625
883.892	21462
884.018	21428
884.143	21610
884.269	21564
884.395	21397
884.52	21233
884.646	21370
884.772	21249
884.897	21249
885.023	21416
885.148	21488
885.274	21348
885.399	21405
885.524	21268
885.65	21192
885.775	21272
885.9	21211
886.025	21416
886.15	21348
886.275	21222
886.4	21169
886.525	21291
886.65	21154
886.775	21161
886.9	21397
887.025	21389
887.149	21249
887.274	21112
887.399	21043
887.523	21074
887.648	21096
887.773	20986
887.897	21127
888.021	21066
888.146	20963
888.27	21256
888.395	21150
888.519	21024
888.643	21020
888.767	21100
888.891	20910
889.015	20906
889.139	20960
889.263	20819
889.387	20933
889.511	21062
889.635	20963
889.759	20960
889.883	20899
890.006	20929
890.13	20914
890.254	20842
890.377	20746
890.501	20689
890.624	20682
890.748	20678
890.871	20488
890.995	20473
891.118	20358
891.241	20431
891.364	20324
891.488	20427
891.611	20446
891.734	20423
891.857	20469
891.98	20590
892.103	20450
892.226	20385
892.349	20415
892.471	20240
892.594	20400
892.717	20408
892.839	20240
892.962	20290
893.085	20351
893.207	20385
893.33	20256
893.452	20206
893.575	20286
893.697	20301
893.819	20552
893.941	20499
894.064	20404
894.186	20328
894.308	20199
894.43	20396
894.552	20552
894.674	20396
894.796	20278
894.918	20358
895.04	20229
895.161	20393
895.283	20404
895.405	20450
895.526	20248
895.648	20240
895.769	20381
895.891	20347
896.012	20377
896.134	20408
896.255	20317
896.376	20244
896.498	20358
896.619	20461
896.74	20259
896.861	20499
896.982	20629
897.103	20739
897.224	20651
897.345	20533
897.466	20431
897.587	20511
897.708	20708
897.828	20465
897.949	20370
898.07	20263
898.19	20522
898.311	20579
898.431	20526
898.552	20450
898.672	20629
898.792	20629
898.913	20549
899.033	20427
899.153	20385
899.273	20172
899.393	20244
899.513	20351
899.633	20271
899.753	20305
899.873	20240
899.993	20396
900.113	20244
900.232	20263
900.352	20187
900.472	20103
900.591	20050
900.711	20119
900.83	20016
900.95	20225
901.069	20237
901.189	19909
901.308	19765
901.427	19670
901.546	19658
901.665	19830
901.784	19586
901.904	19548
902.023	19449
902.141	19236
902.26	19206
902.379	19400
902.498	19160
902.617	19110
902.735	19168
902.854	19050
902.973	19213
903.091	18829
903.21	18806
903.328	18825
903.446	18768
903.565	18639
903.683	18623
903.801	18475
903.919	18574
904.038	18513
904.156	18422
904.274	18471
904.392	18456
904.51	18399
904.627	18266
904.745	18300
904.863	18467
904.981	18171
905.098	18038
905.216	18041
905.334	18045
905.451	17999
905.569	17931
905.686	18034
905.803	18133
905.921	17813
906.038	17999
906.155	17958
906.272	17729
906.389	17771
906.506	17604
906.623	17573
906.74	17661
906.857	17570
906.974	17573
907.091	17547
907.208	17676
907.324	17726
907.441	17474
907.557	17360
907.674	17322
907.79	17254
907.907	17242
908.023	17353
908.139	17330
908.256	17273
908.372	17280
908.488	17178
908.604	17223
908.72	16968
908.836	17006
908.952	17003
909.068	17102
909.184	17105
909.3	17079
909.415	17045
909.531	17010
909.647	16774
909.762	16755
909.878	16660
909.993	16805
910.108	16698
910.224	16634
910.339	16698
910.454	16645
910.57	16584
910.685	16523
910.8	16812
910.915	16634
911.03	16493
911.145	16246
911.259	16306
911.374	16322
911.489	16257
911.604	16261
911.718	16051
911.833	16067
911.947	16013
912.062	15949
912.176	16078
912.291	15972
912.405	16128
912.519	16272
912.633	16272
912.748	16207
912.862	16017
912.976	15941
913.09	15827
913.204	15876
913.318	15850
913.431	15865
913.545	15983
913.659	15960
913.772	15869
913.886	15652
914	15728
914.113	15743
914.226	15846
914.34	15686
914.453	15675
914.566	15728
914.68	15614
914.793	15568
914.906	15424
915.019	15161
915.132	15264
915.245	15348
915.358	15279
915.47	15249
915.583	15287
915.696	15260
915.809	15367
915.921	15462
916.034	15199
916.146	15180
916.259	15093
916.371	15268
916.483	15287
916.595	15116
916.708	15070
916.82	15157
916.932	15108
917.044	15036
917.156	15043
917.268	14994
917.38	14960
917.491	14872
917.603	14902
917.715	15013
917.826	14982
917.938	14815
918.049	14735
918.161	14823
918.272	15066
918.384	14979
918.495	14842
918.606	14724
918.717	14720
918.828	14716
918.939	14727
919.05	14560
919.161	14644
919.272	14450
919.383	14530
919.494	14625
919.604	14845
919.715	14648
919.826	14670
919.936	14575
920.047	14674
920.157	14598
920.267	14807
920.378	14613
920.488	14667
920.598	14815
920.708	14937
920.818	14800
920.928	14792
921.038	14944
921.148	14857
921.258	14610
921.368	14377
921.477	14465
921.587	14355
921.697	14248
921.806	14320
921.916	14244
922.025	14126
922.134	14005
922.244	14054
922.353	14092
922.462	13928
922.571	13769
922.68	13624
922.789	13704
922.898	13662
923.007	13700
923.116	13723
923.224	13674
923.333	13658
923.442	13537
923.55	13472
923.659	13464
923.767	13601
923.876	13438
923.984	13552
924.092	13381
924.201	13381
924.309	13354
924.417	13343
924.525	13400
924.633	13244
924.741	14103
924.849	13110
924.956	13247
925.064	13095
925.172	13076
925.279	12935
925.387	13137
925.494	12977
925.602	13152
925.709	13103
925.816	12920
925.924	13061
926.031	13126
926.138	13042
926.245	13019
926.352	12993
926.459	13031
926.566	13095
926.673	12977
926.779	12833
926.886	12795
926.993	12612
927.099	12703
927.206	12528
927.312	12555
927.419	12627
927.525	12639
927.631	12623
927.737	12513
927.843	12490
927.95	12391
928.056	12418
928.162	12441
928.267	12441
928.373	13145
928.479	12578
928.585	12308
928.69	12388
928.796	12467
928.901	12365
929.007	12117
929.112	12277
929.218	12277
929.323	12182
929.428	12144
929.533	12292
929.638	12087
929.743	12125
929.848	12133
929.953	12091
930.058	11958
930.163	11821
930.267	11866
930.372	11893
930.477	11897
930.581	12053
930.685	11939
930.79	11790
930.894	11802
930.998	11771
931.103	11889
931.207	11516
931.311	11379
931.415	11284
931.519	11147
931.623	11109
