Data from test_V78500241_2423.txt Node
Date: Fri Mar 25 15:58:35 CST 2022
User: usil
Spectrometer: V785-0024
Trigger mode: 0
Integration Time (sec): 4.000000E-1
Scans to average: 1
Nonlinearity correction enabled: false
Boxcar width: 0
Storing dark spectrum: false
XAxis mode: Wavelengths
Number of Pixels in Spectrum: 1024
>>>>>Begin Spectral Data<<<<<
801.071	28809
801.214	28824
801.356	28702
801.499	28577
801.641	28470
801.783	28386
801.926	28626
802.068	28440
802.211	28253
802.353	28333
802.496	28166
802.638	28291
802.78	28154
802.923	27998
803.065	27945
803.208	28124
803.35	28063
803.492	28246
803.635	28234
803.777	28200
803.919	28417
804.061	28660
804.204	28268
804.346	28337
804.488	28291
804.63	28443
804.773	28329
804.915	28527
805.057	28512
805.199	28333
805.341	28440
805.483	28573
805.626	28500
805.768	28314
805.91	28443
806.052	28569
806.194	28489
806.336	28645
806.478	28592
806.62	28489
806.762	28702
806.904	28862
807.046	29018
807.188	29018
807.33	28816
807.472	28938
807.614	28919
807.756	29086
807.898	28786
808.04	28816
808.182	28801
808.324	28831
808.465	28828
808.607	29132
808.749	29189
808.891	29174
809.033	29364
809.174	29318
809.316	29162
809.458	29288
809.6	29280
809.741	29372
809.883	29326
810.025	29611
810.166	29653
810.308	29528
810.45	29474
810.591	29364
810.733	29162
810.875	29368
811.016	29242
811.158	29102
811.299	29311
811.441	29299
811.582	29421
811.724	29391
811.865	29212
812.007	29280
812.148	29140
812.29	29269
812.431	29349
812.573	29661
812.714	29665
812.855	29771
812.997	29790
813.138	29984
813.279	29779
813.421	29764
813.562	29611
813.703	29486
813.845	29471
813.986	29124
814.127	28991
814.268	28942
814.41	28934
814.551	28915
814.692	28946
814.833	29037
814.974	28858
815.115	28805
815.256	28888
815.397	28733
815.539	28790
815.68	28702
815.821	28805
815.962	28790
816.103	28759
816.244	28599
816.385	28622
816.526	28470
816.666	28455
816.807	28432
816.948	28219
817.089	28401
817.23	28363
817.371	28318
817.512	28303
817.653	28329
817.793	28207
817.934	28325
818.075	28211
818.216	28337
818.356	28207
818.497	28082
818.638	27991
818.778	28131
818.919	28074
819.06	28154
819.2	28166
819.341	28188
819.481	28280
819.622	28329
819.762	28698
819.903	28500
820.043	28656
820.184	28337
820.324	28405
820.465	28325
820.605	28413
820.746	28417
820.886	28242
821.026	28451
821.167	28318
821.307	28360
821.447	28356
821.588	28078
821.728	28139
821.868	27861
822.008	27793
822.149	27766
822.289	27812
822.429	27519
822.569	27473
822.709	27447
822.849	27211
822.99	27233
823.13	27112
823.27	27211
823.41	27039
823.55	26944
823.69	27062
823.83	27207
823.97	26986
824.11	26918
824.25	26800
824.389	26902
824.529	26933
824.669	27024
824.809	27062
824.949	27028
825.089	27028
825.228	27001
825.368	26754
825.508	26640
825.648	26876
825.787	26712
825.927	26739
826.067	26796
826.206	26663
826.346	26849
826.485	26834
826.625	26697
826.765	26845
826.904	26876
827.044	26480
827.183	26571
827.323	26400
827.462	26549
827.601	26568
827.741	26400
827.88	26583
828.02	26453
828.159	26434
828.298	26351
828.437	26686
828.577	26450
828.716	26640
828.855	26381
828.994	26320
829.134	26278
829.273	26275
829.412	26202
829.551	26202
829.69	26145
829.829	26138
829.968	26256
830.107	26191
830.246	26122
830.385	26199
830.524	26107
830.663	25959
830.802	25841
830.941	25776
831.08	25769
831.219	25887
831.357	25966
831.496	26008
831.635	25731
831.774	25822
831.913	25559
832.051	25635
832.19	25586
832.329	25685
832.467	25510
832.606	25559
832.744	25479
832.883	25544
833.022	25419
833.16	25403
833.299	25472
833.437	25453
833.576	25533
833.714	25438
833.852	25578
833.991	25609
834.129	25647
834.267	25586
834.406	25582
834.544	25571
834.682	25609
834.821	25373
834.959	25670
835.097	25407
835.235	25571
835.373	25647
835.511	25571
835.65	25434
835.788	25411
835.926	25240
836.064	25187
836.202	25126
836.34	25407
836.478	25419
836.615	25362
836.753	25247
836.891	25384
837.029	25331
837.167	25320
837.305	25209
837.443	25232
837.58	25190
837.718	25126
837.856	25377
837.993	25187
838.131	25168
838.269	24985
838.406	25080
838.544	25034
838.681	24856
838.819	24700
838.956	24684
839.094	24578
839.231	24642
839.369	24776
839.506	24947
839.643	24848
839.781	24661
839.918	24623
840.055	24627
840.193	24574
840.33	24521
840.467	24608
840.604	24646
840.742	24772
840.879	24445
841.016	24582
841.153	24570
841.29	24551
841.427	24563
841.564	24681
841.701	24627
841.838	24486
841.975	24433
842.112	24300
842.249	24353
842.385	24304
842.522	24673
842.659	24475
842.796	24433
842.933	24251
843.069	24262
843.206	24171
843.343	24319
843.479	24384
843.616	24369
843.752	24155
843.889	23969
844.025	24136
844.162	24114
844.298	24171
844.435	24083
844.571	23965
844.708	24155
844.844	24194
844.98	24190
845.117	24300
845.253	24060
845.389	23977
845.525	23916
845.661	23851
845.798	23775
845.934	23828
846.07	23798
846.206	23794
846.342	23950
846.478	23767
846.614	23551
846.75	23387
846.886	23577
847.022	23512
847.158	23642
847.294	23467
847.429	23615
847.565	23600
847.701	23596
847.837	23212
847.972	23288
848.108	23372
848.244	23292
848.379	23292
848.515	23159
848.65	23140
848.786	23212
848.921	23140
849.057	23212
849.192	23159
849.328	23075
849.463	23178
849.598	23010
849.734	22995
849.869	22965
850.004	22881
850.14	22968
850.275	22927
850.41	22869
850.545	22763
850.68	22854
850.815	22835
850.95	22854
851.085	23056
851.22	23003
851.355	22991
851.49	22885
851.625	22713
851.76	22869
851.895	22771
852.03	22847
852.165	22889
852.299	22869
852.434	22866
852.569	22892
852.703	22812
852.838	23014
852.973	23014
853.107	22976
853.242	22965
853.376	22691
853.511	22634
853.645	22516
853.78	22820
853.914	22767
854.048	22790
854.183	22634
854.317	22637
854.451	22873
854.585	22618
854.72	22672
854.854	22675
854.988	22778
855.122	22664
855.256	22573
855.39	22793
855.524	22733
855.658	22767
855.792	22725
855.926	22675
856.06	22790
856.194	22866
856.327	22584
856.461	22774
856.595	22615
856.729	22630
856.862	22949
856.996	22759
857.13	22904
857.263	22843
857.397	22744
857.53	22755
857.664	22675
857.797	22771
857.931	22889
858.064	22831
858.197	22854
858.331	22637
858.464	22702
858.597	22645
858.731	22622
858.864	22653
858.997	22782
859.13	22790
859.263	22710
859.396	22713
859.529	22622
859.662	22656
859.795	22698
859.928	22691
860.061	22744
860.194	22900
860.327	22748
860.46	22611
860.592	22782
860.725	22862
860.858	22831
860.99	22752
861.123	22561
861.256	22706
861.388	22577
861.521	23436
861.653	22672
861.786	22459
861.918	22432
862.05	22607
862.183	22675
862.315	22622
862.447	22713
862.58	22588
862.712	22409
862.844	22451
862.976	22535
863.108	22352
863.24	22755
863.372	22379
863.504	22344
863.636	22333
863.768	22443
863.9	22310
864.032	22329
864.164	22341
864.296	22352
864.428	22546
864.559	22459
864.691	22466
864.823	22440
864.954	22344
865.086	22253
865.217	22337
865.349	22169
865.48	22265
865.612	22242
865.743	22451
865.875	22318
866.006	22185
866.137	22352
866.269	22219
866.4	22219
866.531	22238
866.662	22128
866.793	22234
866.924	22105
867.055	22143
867.186	22200
867.317	22249
867.448	22105
867.579	22268
867.71	22135
867.841	22173
867.972	22238
868.103	22078
868.233	22295
868.364	22192
868.495	22322
868.625	22451
868.756	22561
868.886	22527
869.017	22402
869.147	22455
869.278	22550
869.408	22405
869.539	22436
869.669	22577
869.799	22489
869.929	22584
870.06	22481
870.19	22675
870.32	22729
870.45	22790
870.58	22854
870.71	22835
870.84	22839
870.97	22843
871.1	22713
871.23	23018
871.36	23102
871.489	22892
871.619	22984
871.749	23155
871.879	23086
872.008	23060
872.138	23003
872.267	22995
872.397	23056
872.526	22866
872.656	22896
872.785	22881
872.915	22953
873.044	23193
873.173	23064
873.303	23121
873.432	23056
873.561	23022
873.69	22957
873.819	23083
873.948	23090
874.077	23064
874.206	23029
874.335	23071
874.464	23098
874.593	23273
874.722	23197
874.851	23303
874.979	23292
875.108	23254
875.237	23280
875.365	23220
875.494	23185
875.623	23429
875.751	23250
875.88	23200
876.008	23353
876.136	23627
876.265	23608
876.393	23798
876.521	23722
876.65	23699
876.778	23608
876.906	23573
877.034	23581
877.162	23638
877.29	23558
877.418	23718
877.546	23539
877.674	23531
877.802	23520
877.93	23653
878.058	23604
878.185	23459
878.313	23524
878.441	23566
878.568	23383
878.696	23551
878.824	23627
878.951	23741
879.079	23764
879.206	23961
879.333	23737
879.461	23646
879.588	23752
879.715	23710
879.842	23885
879.97	23661
880.097	23417
880.224	23433
880.351	23467
880.478	23482
880.605	23284
880.732	23474
880.859	23623
880.986	23395
881.112	23436
881.239	23391
881.366	23143
881.493	23060
881.619	22904
881.746	22911
881.872	22961
881.999	22976
882.125	22946
882.252	23018
882.378	22850
882.505	23086
882.631	22831
882.757	22698
882.883	22694
883.01	22603
883.136	22516
883.262	22538
883.388	22516
883.514	22687
883.64	22687
883.766	22611
883.892	22348
884.018	22272
884.143	22596
884.269	22668
884.395	22329
884.52	22238
884.646	22268
884.772	22265
884.897	22230
885.023	22352
885.148	22386
885.274	22382
885.399	22519
885.524	22272
885.65	22348
885.775	22249
885.9	22257
886.025	22440
886.15	22424
886.275	22147
886.4	22154
886.525	22287
886.65	22154
886.775	22207
886.9	22348
887.025	22405
887.149	22200
887.274	22101
887.399	22002
887.523	21964
887.648	21918
887.773	22006
887.897	22070
888.021	22055
888.146	21987
888.27	22120
888.395	22086
888.519	22147
888.643	22036
888.767	22036
888.891	21918
889.015	21861
889.139	21907
889.263	21778
889.387	21846
889.511	21930
889.635	21975
889.759	21770
889.883	21895
890.006	21831
890.13	21869
890.254	21781
890.377	21759
890.501	21610
890.624	21466
890.748	21633
890.871	21462
890.995	21393
891.118	21336
891.241	21321
891.364	21412
891.488	21526
891.611	21340
891.734	21416
891.857	21500
891.98	21340
892.103	21241
892.226	21458
892.349	21329
892.471	21089
892.594	21302
892.717	21329
892.839	21237
892.962	21192
893.085	21359
893.207	21226
893.33	21241
893.452	21233
893.575	21310
893.697	21165
893.819	21294
893.941	21496
894.064	21336
894.186	21184
894.308	21218
894.43	21310
894.552	21340
894.674	21199
894.796	21291
894.918	21241
895.04	21291
895.161	21317
895.283	21428
895.405	21081
895.526	21195
895.648	21272
895.769	21218
895.891	21268
896.012	21302
896.134	21256
896.255	21241
896.376	21108
896.498	21298
896.619	21256
896.74	21222
896.861	21237
896.982	21534
897.103	21587
897.224	21397
897.345	21492
897.466	21386
897.587	21382
897.708	21523
897.828	21458
897.949	21374
898.07	21222
898.19	21325
898.311	21507
898.431	21306
898.552	21439
898.672	21492
898.792	21549
898.913	21348
899.033	21363
899.153	21173
899.273	21123
899.393	21062
899.513	21119
899.633	21192
899.753	21199
899.873	21180
899.993	21108
900.113	21157
900.232	21230
900.352	21127
900.472	20986
900.591	20838
900.711	21070
900.83	20830
900.95	20998
901.069	20986
901.189	20887
901.308	20625
901.427	20412
901.546	20465
901.665	20537
901.784	20431
901.904	20240
902.023	20263
902.141	20081
902.26	20016
902.379	20138
902.498	19993
902.617	19955
902.735	19936
902.854	19986
902.973	20050
903.091	19681
903.21	19613
903.328	19586
903.446	19525
903.565	19464
903.683	19457
903.801	19327
903.919	19297
904.038	19331
904.156	19266
904.274	19339
904.392	19209
904.51	19148
904.627	19171
904.745	19289
904.863	19263
904.981	19065
905.098	18859
905.216	18863
905.334	18894
905.451	18913
905.569	18897
905.686	18916
905.803	18852
905.921	18639
906.038	18757
906.155	18604
906.272	18635
906.389	18513
906.506	18502
906.623	18399
906.74	18452
906.857	18315
906.974	18372
907.091	18471
907.208	18566
907.324	18456
907.441	18365
907.557	18072
907.674	18129
907.79	18083
907.907	18155
908.023	18209
908.139	18019
908.256	18049
908.372	18064
908.488	17977
908.604	17764
908.72	17783
908.836	17866
908.952	17893
909.068	17866
909.184	17882
909.3	17824
909.415	17870
909.531	17824
909.647	17604
909.762	17562
909.878	17478
909.993	17611
910.108	17543
910.224	17448
910.339	17505
910.454	17330
910.57	17315
910.685	17269
910.8	17497
910.915	17440
911.03	17318
911.145	17170
911.259	17075
911.374	17140
911.489	17079
911.604	17006
911.718	16866
911.833	16942
911.947	16812
912.062	16740
912.176	16858
912.291	16930
912.405	16885
912.519	16976
912.633	17041
912.748	16904
912.862	16790
912.976	16596
913.09	16649
913.204	16668
913.318	16687
913.431	16713
913.545	16736
913.659	16683
913.772	16645
913.886	16497
914	16428
914.113	16592
914.226	16565
914.34	16611
914.453	16360
914.566	16531
914.68	16265
914.793	16333
914.906	16078
915.019	16135
915.132	15937
915.245	16029
915.358	15975
915.47	16055
915.583	15979
915.696	16093
915.809	16112
915.921	16215
916.034	15968
916.146	15854
916.259	15899
916.371	16044
916.483	16059
916.595	15880
916.708	15804
916.82	15888
916.932	15804
917.044	15892
917.156	15732
917.268	15694
917.38	15785
917.491	15641
917.603	15663
917.715	15759
917.826	15720
917.938	15515
918.049	15496
918.161	15622
918.272	15622
918.384	15724
918.495	15553
918.606	15431
918.717	15298
918.828	15439
918.939	15416
919.05	15272
919.161	15260
919.272	15195
919.383	15275
919.494	15397
919.604	15526
919.715	15412
919.826	15252
919.936	15355
920.047	15310
920.157	15450
920.267	15542
920.378	15435
920.488	15272
920.598	15584
920.708	15580
920.818	15485
920.928	15473
921.038	15614
921.148	15587
921.258	15222
921.368	15142
921.477	15013
921.587	15074
921.697	14937
921.806	15001
921.916	14929
922.025	14838
922.134	14705
922.244	14663
922.353	14762
922.462	14556
922.571	14514
922.68	14377
922.789	14427
922.898	14290
923.007	14237
923.116	14385
923.224	14317
923.333	14336
923.442	14172
923.55	14157
923.659	14180
923.767	14187
923.876	14088
923.984	14119
924.092	13993
924.201	14119
924.309	14077
924.417	14046
924.525	13978
924.633	14008
924.741	14701
924.849	13791
924.956	13928
925.064	13670
925.172	13643
925.279	13704
925.387	13689
925.494	13628
925.602	13811
925.709	13734
925.816	13563
925.924	13651
926.031	13647
926.138	13674
926.245	13620
926.352	13480
926.459	13628
926.566	13757
926.673	13502
926.779	13563
926.886	13331
926.993	13228
927.099	13320
927.206	13175
927.312	13247
927.419	13350
927.525	13141
927.631	13232
927.737	13171
927.843	13053
927.95	12935
928.056	13008
928.162	13027
928.267	13129
928.373	13693
928.479	13095
928.585	12890
928.69	12928
928.796	12939
928.901	12905
929.007	12700
929.112	12856
929.218	12829
929.323	12814
929.428	12741
929.533	12840
929.638	12692
929.743	12684
929.848	12730
929.953	12741
930.058	12563
930.163	12334
930.267	12426
930.372	12559
930.477	12308
930.581	12582
930.685	12555
930.79	12304
930.894	12308
930.998	12197
931.103	12395
931.207	12064
931.311	11984
931.415	11908
931.519	11657
931.623	11627
