Data from test_V78500241_1478.txt Node
Date: Fri Mar 25 15:52:02 CST 2022
User: usil
Spectrometer: V785-0024
Trigger mode: 0
Integration Time (sec): 4.000000E-1
Scans to average: 1
Nonlinearity correction enabled: false
Boxcar width: 0
Storing dark spectrum: false
XAxis mode: Wavelengths
Number of Pixels in Spectrum: 1024
>>>>>Begin Spectral Data<<<<<
801.071	27861
801.214	27736
801.356	27530
801.499	27389
801.641	27294
801.783	27363
801.926	27393
802.068	27298
802.211	27116
802.353	27256
802.496	27043
802.638	26830
802.78	26982
802.923	26883
803.065	26804
803.208	27013
803.35	27032
803.492	27203
803.635	27119
803.777	27123
803.919	27252
804.061	27348
804.204	27188
804.346	27241
804.488	27150
804.63	27146
804.773	26967
804.915	27062
805.057	27241
805.199	27195
805.341	27256
805.483	27233
805.626	27355
805.768	27192
805.91	27237
806.052	27329
806.194	27252
806.336	27481
806.478	27481
806.62	27332
806.762	27469
806.904	27420
807.046	27816
807.188	27660
807.33	27701
807.472	27789
807.614	27610
807.756	27625
807.898	27667
808.04	27481
808.182	27477
808.324	27652
808.465	27656
808.607	27793
808.749	28059
808.891	28048
809.033	28013
809.174	27987
809.316	27922
809.458	27945
809.6	27930
809.741	28154
809.883	28025
810.025	28207
810.166	28314
810.308	28204
810.45	28257
810.591	28158
810.733	27827
810.875	28025
811.016	27808
811.158	27724
811.299	27907
811.441	27972
811.582	28029
811.724	27914
811.865	27953
812.007	27949
812.148	27846
812.29	27979
812.431	28162
812.573	28295
812.714	28223
812.855	28466
812.997	28611
813.138	28653
813.279	28618
813.421	28379
813.562	28413
813.703	28158
813.845	28154
813.986	27907
814.127	27762
814.268	27713
814.41	27755
814.551	27511
814.692	27572
814.833	27549
814.974	27667
815.115	27530
815.256	27424
815.397	27447
815.539	27443
815.68	27310
815.821	27386
815.962	27211
816.103	27355
816.244	27272
816.385	27291
816.526	27184
816.666	26986
816.807	26857
816.948	27039
817.089	27013
817.23	27020
817.371	26963
817.512	26804
817.653	26796
817.793	26826
817.934	26940
818.075	26845
818.216	26979
818.356	26716
818.497	26815
818.638	26560
818.778	26625
818.919	26629
819.06	26609
819.2	26868
819.341	26815
819.481	26899
819.622	26914
819.762	27226
819.903	27119
820.043	27135
820.184	27005
820.324	27020
820.465	27043
820.605	26979
820.746	27070
820.886	26800
821.026	27051
821.167	26842
821.307	26956
821.447	26940
821.588	26769
821.728	26587
821.868	26526
822.008	26377
822.149	26396
822.289	26248
822.429	26153
822.569	26024
822.709	26088
822.849	25814
822.99	25849
823.13	25788
823.27	25852
823.41	25609
823.55	25635
823.69	25704
823.83	25750
823.97	25624
824.11	25411
824.25	25301
824.389	25479
824.529	25502
824.669	25575
824.809	25689
824.949	25571
825.089	25502
825.228	25544
825.368	25278
825.508	25445
825.648	25441
825.787	25335
825.927	25457
826.067	25369
826.206	25320
826.346	25365
826.485	25476
826.625	25327
826.765	25483
826.904	25403
827.044	25023
827.183	25072
827.323	25110
827.462	25221
827.601	25038
827.741	25046
827.88	25107
828.02	24958
828.159	24920
828.298	25069
828.437	25122
828.577	25114
828.716	25095
828.855	25099
828.994	24734
829.134	24738
829.273	24684
829.412	24700
829.551	24730
829.69	24859
829.829	24768
829.968	24776
830.107	24886
830.246	24867
830.385	24734
830.524	24513
830.663	24502
830.802	24467
830.941	24391
831.08	24311
831.219	24475
831.357	24422
831.496	24604
831.635	24467
831.774	24254
831.913	24300
832.051	24102
832.19	24136
832.329	24148
832.467	24125
832.606	24007
832.744	24087
832.883	23988
833.022	23901
833.16	24030
833.299	24102
833.437	24091
833.576	24110
833.714	24144
833.852	24258
833.991	24155
834.129	24148
834.267	24133
834.406	24114
834.544	24007
834.682	23969
834.821	24098
834.959	24258
835.097	23908
835.235	24121
835.373	24091
835.511	24011
835.65	24030
835.788	23859
835.926	23828
836.064	23665
836.202	23809
836.34	24026
836.478	23980
836.615	24003
836.753	24026
836.891	23897
837.029	24083
837.167	23870
837.305	23878
837.443	23783
837.58	23604
837.718	23874
837.856	23836
837.993	23661
838.131	23847
838.269	23741
838.406	23737
838.544	23547
838.681	23512
838.819	23493
838.956	23208
839.094	23208
839.231	23216
839.369	23501
839.506	23707
839.643	23368
839.781	23193
839.918	23208
840.055	23208
840.193	23242
840.33	23208
840.467	23223
840.604	23273
840.742	23387
840.879	23090
841.016	23086
841.153	23151
841.29	23174
841.427	23147
841.564	23235
841.701	23113
841.838	23208
841.975	22980
842.112	23037
842.249	22869
842.385	22938
842.522	23181
842.659	22995
842.796	22904
842.933	23113
843.069	22835
843.206	22656
843.343	23014
843.479	22904
843.616	22873
843.752	22615
843.889	22675
844.025	22790
844.162	22615
844.298	22786
844.435	22801
844.571	22729
844.708	22717
844.844	22904
844.98	22782
845.117	22748
845.253	22561
845.389	22550
845.525	22607
845.661	22630
845.798	22390
845.934	22447
846.07	22344
846.206	22508
846.342	22561
846.478	22398
846.614	22352
846.75	22131
846.886	22112
847.022	22185
847.158	22135
847.294	22200
847.429	22188
847.565	22090
847.701	22379
847.837	21800
847.972	21785
848.108	21880
848.244	21945
848.379	21724
848.515	21861
848.65	21717
848.786	21835
848.921	21671
849.057	21861
849.192	21846
849.328	21675
849.463	21759
849.598	21526
849.734	21641
849.869	21583
850.004	21526
850.14	21591
850.275	21488
850.41	21325
850.545	21370
850.68	21492
850.815	21435
850.95	21481
851.085	21663
851.22	21561
851.355	21530
851.49	21496
851.625	21401
851.76	21416
851.895	21466
852.03	21405
852.165	21443
852.299	21481
852.434	21576
852.569	21523
852.703	21466
852.838	21549
852.973	21686
853.107	21644
853.242	21435
853.376	21443
853.511	21249
853.645	21214
853.78	21340
853.914	21283
854.048	21249
854.183	21340
854.317	21416
854.451	21458
854.585	21412
854.72	21310
854.854	21401
854.988	21321
855.122	21359
855.256	21252
855.39	21389
855.524	21557
855.658	21424
855.792	21344
855.926	21355
856.06	21272
856.194	21481
856.327	21241
856.461	21279
856.595	21336
856.729	21336
856.862	21355
856.996	21249
857.13	21363
857.263	21496
857.397	21374
857.53	21408
857.664	21340
857.797	21359
857.931	21466
858.064	21340
858.197	21401
858.331	21351
858.464	21241
858.597	21180
858.731	21294
858.864	21138
858.997	21154
859.13	21401
859.263	21397
859.396	21344
859.529	21363
859.662	21211
859.795	21287
859.928	21367
860.061	21481
860.194	21492
860.327	21401
860.46	21332
860.592	21485
860.725	21378
860.858	21397
860.99	21351
861.123	21142
861.256	21237
861.388	21313
861.521	22036
861.653	21211
861.786	21192
861.918	21104
862.05	21203
862.183	21222
862.315	21363
862.447	21386
862.58	21275
862.712	21062
862.844	20998
862.976	21165
863.108	21096
863.24	21526
863.372	20994
863.504	20902
863.636	21051
863.768	21104
863.9	21032
864.032	20929
864.164	21047
864.296	21066
864.428	21222
864.559	21089
864.691	21123
864.823	21036
864.954	21001
865.086	20918
865.217	20960
865.349	20853
865.48	20861
865.612	20929
865.743	20986
865.875	20952
866.006	20902
866.137	20887
866.269	20925
866.4	20902
866.531	20883
866.662	20891
866.793	20838
866.924	20773
867.055	20823
867.186	20872
867.317	20807
867.448	20758
867.579	20895
867.71	20788
867.841	20872
867.972	20921
868.103	20800
868.233	20864
868.364	20918
868.495	21009
868.625	21157
868.756	21138
868.886	20967
869.017	21093
869.147	21199
869.278	21119
869.408	21165
869.539	21161
869.669	21180
869.799	21119
869.929	21112
870.06	21146
870.19	21420
870.32	21458
870.45	21523
870.58	21523
870.71	21606
870.84	21564
870.97	21469
871.1	21534
871.23	21705
871.36	21717
871.489	21629
871.619	21648
871.749	21736
871.879	21652
872.008	21785
872.138	21701
872.267	21724
872.397	21469
872.526	21492
872.656	21542
872.785	21507
872.915	21652
873.044	21781
873.173	21739
873.303	21854
873.432	21800
873.561	21747
873.69	21766
873.819	21656
873.948	21869
874.077	21686
874.206	21724
874.335	21759
874.464	21876
874.593	21968
874.722	21998
874.851	22013
874.979	22090
875.108	21953
875.237	21918
875.365	21778
875.494	21857
875.623	21934
875.751	21899
875.88	22078
876.008	22002
876.136	22185
876.265	22363
876.393	22447
876.521	22371
876.65	22443
876.778	22371
876.906	22329
877.034	22318
877.162	22268
877.29	22257
877.418	22402
877.546	22382
877.674	22253
877.802	22261
877.93	22306
878.058	22211
878.185	22150
878.313	22329
878.441	22375
878.568	22135
878.696	22265
878.824	22322
878.951	22352
879.079	22413
879.206	22550
879.333	22363
879.461	22356
879.588	22421
879.715	22474
879.842	22577
879.97	22329
880.097	22226
880.224	22177
880.351	22257
880.478	22044
880.605	22139
880.732	22063
880.859	22356
880.986	21991
881.112	22207
881.239	21838
881.366	21800
881.493	21850
881.619	21797
881.746	21747
881.872	21637
881.999	21583
882.125	21583
882.252	21854
882.378	21732
882.505	21880
882.631	21485
882.757	21492
882.883	21496
883.01	21355
883.136	21405
883.262	21332
883.388	21336
883.514	21557
883.64	21382
883.766	21374
883.892	21154
884.018	21268
884.143	21374
884.269	21473
884.395	21146
884.52	21051
884.646	21039
884.772	21017
884.897	20937
885.023	21070
885.148	21161
885.274	21264
885.399	21074
885.524	21081
885.65	21039
885.775	21024
885.9	21047
886.025	21100
886.15	21013
886.275	21055
886.4	20861
886.525	21024
886.65	20979
886.775	20963
886.9	21180
887.025	21226
887.149	21036
887.274	20777
887.399	20823
887.523	20769
887.648	20834
887.773	20796
887.897	20956
888.021	20849
888.146	20731
888.27	20857
888.395	20823
888.519	20716
888.643	20838
888.767	20667
888.891	20804
889.015	20651
889.139	20670
889.263	20625
889.387	20678
889.511	20811
889.635	20743
889.759	20693
889.883	20667
890.006	20632
890.13	20754
890.254	20560
890.377	20499
890.501	20385
890.624	20370
890.748	20427
890.871	20358
890.995	20119
891.118	20138
891.241	20107
891.364	20206
891.488	20290
891.611	20244
891.734	20138
891.857	20282
891.98	20100
892.103	20263
892.226	20176
892.349	20130
892.471	20012
892.594	20073
892.717	20229
892.839	20126
892.962	20073
893.085	20157
893.207	20084
893.33	20050
893.452	19997
893.575	20111
893.697	20096
893.819	20176
893.941	20294
894.064	20298
894.186	20024
894.308	19974
894.43	20168
894.552	20263
894.674	20138
894.796	20111
894.918	19936
895.04	20020
895.161	20031
895.283	20195
895.405	20008
895.526	20149
895.648	20058
895.769	20134
895.891	20164
896.012	20115
896.134	20187
896.255	20164
896.376	20046
896.498	20069
896.619	20119
896.74	20142
896.861	20001
896.982	20362
897.103	20549
897.224	20343
897.345	20377
897.466	20210
897.587	20278
897.708	20370
897.828	20339
897.949	20294
898.07	20229
898.19	20244
898.311	20419
898.431	20244
898.552	20191
898.672	20343
898.792	20286
898.913	20419
899.033	20229
899.153	20206
899.273	19875
899.393	20134
899.513	20039
899.633	20092
899.753	20126
899.873	20065
899.993	20081
900.113	19959
900.232	19978
900.352	19921
900.472	19944
900.591	19830
900.711	19890
900.83	19765
900.95	19909
901.069	19913
901.189	19765
901.308	19491
901.427	19354
901.546	19457
901.665	19438
901.784	19518
901.904	19274
902.023	19168
902.141	18947
902.26	19061
902.379	19008
902.498	18947
902.617	18958
902.735	19084
902.854	18958
902.973	18741
903.091	18601
903.21	18654
903.328	18601
903.446	18517
903.565	18418
903.683	18490
903.801	18289
903.919	18361
904.038	18376
904.156	18194
904.274	18209
904.392	18167
904.51	18167
904.627	18213
904.745	18262
904.863	18209
904.981	17882
905.098	17851
905.216	17828
905.334	17965
905.451	17855
905.569	17836
905.686	17999
905.803	17843
905.921	17646
906.038	17764
906.155	17630
906.272	17501
906.389	17600
906.506	17372
906.623	17417
906.74	17440
906.857	17303
906.974	17322
907.091	17433
907.208	17566
907.324	17376
907.441	17239
907.557	17037
907.674	17140
907.79	17075
907.907	16972
908.023	17166
908.139	17113
908.256	17086
908.372	16957
908.488	16968
908.604	16835
908.72	16805
908.836	16793
908.952	16820
909.068	16881
909.184	16938
909.3	16824
909.415	16740
909.531	16786
909.647	16580
909.762	16573
909.878	16432
909.993	16489
910.108	16538
910.224	16417
910.339	16630
910.454	16375
910.57	16303
910.685	16314
910.8	16546
910.915	16421
911.03	16238
911.145	16071
911.259	16101
911.374	16162
911.489	16078
911.604	16002
911.718	15774
911.833	15857
911.947	15759
912.062	15682
912.176	15835
912.291	15975
912.405	15823
912.519	16078
912.633	16021
912.748	15816
912.862	15827
912.976	15766
913.09	15561
913.204	15595
913.318	15652
913.431	15720
913.545	15770
913.659	15781
913.772	15614
913.886	15515
914	15507
914.113	15568
914.226	15675
914.34	15652
914.453	15336
914.566	15542
914.68	15329
914.793	15279
914.906	15127
915.019	15051
915.132	15100
915.245	15081
915.358	15199
915.47	15043
915.583	15081
915.696	15085
915.809	15165
915.921	15245
916.034	15116
916.146	15043
916.259	15097
916.371	15093
916.483	14941
916.595	14967
916.708	14914
916.82	14921
916.932	14941
917.044	14956
917.156	14899
917.268	14708
917.38	14724
917.491	14693
917.603	14777
917.715	14861
917.826	14781
917.938	14606
918.049	14499
918.161	14629
918.272	14800
918.384	14754
918.495	14678
918.606	14556
918.717	14438
918.828	14568
918.939	14568
919.05	14431
919.161	14457
919.272	14324
919.383	14313
919.494	14495
919.604	14716
919.715	14526
919.826	14469
919.936	14431
920.047	14530
920.157	14423
920.267	14689
920.378	14461
920.488	14438
920.598	14678
920.708	14712
920.818	14530
920.928	14693
921.038	14701
921.148	14739
921.258	14518
921.368	14309
921.477	14202
921.587	14218
921.697	14050
921.806	14206
921.916	14069
922.025	13849
922.134	13959
922.244	13776
922.353	13963
922.462	13719
922.571	13647
922.68	13487
922.789	13487
922.898	13552
923.007	13468
923.116	13476
923.224	13476
923.333	13476
923.442	13331
923.55	13354
923.659	13369
923.767	13400
923.876	13175
923.984	13327
924.092	13255
924.201	13190
924.309	13251
924.417	13247
924.525	13103
924.633	13129
924.741	14149
924.849	12985
924.956	13095
925.064	13015
925.172	12954
925.279	12932
925.387	12886
925.494	12932
925.602	12989
925.709	12939
925.816	12791
925.924	12886
926.031	12973
926.138	12810
926.245	12897
926.352	12791
926.459	12913
926.566	12916
926.673	12875
926.779	12616
926.886	12669
926.993	12555
927.099	12486
927.206	12467
927.312	12483
927.419	12540
927.525	12464
927.631	12418
927.737	12380
927.843	12372
927.95	12175
928.056	12304
928.162	12365
928.267	12315
928.373	12924
928.479	12308
928.585	12239
928.69	12224
928.796	12380
928.901	12197
929.007	12102
929.112	12190
929.218	12133
929.323	12076
929.428	11996
929.533	12163
929.638	12030
929.743	11977
929.848	12026
929.953	11965
930.058	11840
930.163	11729
930.267	11729
930.372	11912
930.477	11703
930.581	11954
930.685	11699
930.79	11623
930.894	11558
930.998	11562
931.103	11699
931.207	11402
931.311	11231
931.415	11083
931.519	11003
931.623	11045
