Data from test_V78500241_903.txt Node
Date: Fri Mar 25 15:48:03 CST 2022
User: usil
Spectrometer: V785-0024
Trigger mode: 0
Integration Time (sec): 4.000000E-1
Scans to average: 1
Nonlinearity correction enabled: false
Boxcar width: 0
Storing dark spectrum: false
XAxis mode: Wavelengths
Number of Pixels in Spectrum: 1024
>>>>>Begin Spectral Data<<<<<
801.071	27272
801.214	27435
801.356	27096
801.499	27062
801.641	26948
801.783	26971
801.926	27036
802.068	27036
802.211	27009
802.353	26800
802.496	26659
802.638	26655
802.78	26644
802.923	26564
803.065	26495
803.208	26457
803.35	26507
803.492	26590
803.635	26804
803.777	26746
803.919	26629
804.061	27116
804.204	26754
804.346	26781
804.488	26670
804.63	26720
804.773	26659
804.915	26758
805.057	27028
805.199	26834
805.341	26750
805.483	26880
805.626	26883
805.768	26830
805.91	26940
806.052	26921
806.194	26731
806.336	27138
806.478	26861
806.62	26899
806.762	27024
806.904	27188
807.046	27405
807.188	27416
807.33	27427
807.472	27443
807.614	27329
807.756	27367
807.898	27302
808.04	27226
808.182	27218
808.324	27188
808.465	27146
808.607	27344
808.749	27511
808.891	27720
809.033	27705
809.174	27679
809.316	27523
809.458	27648
809.6	27469
809.741	27549
809.883	27637
810.025	27857
810.166	27835
810.308	27850
810.45	27622
810.591	27667
810.733	27599
810.875	27526
811.016	27416
811.158	27439
811.299	27739
811.441	27644
811.582	27682
811.724	27599
811.865	27538
812.007	27553
812.148	27496
812.29	27420
812.431	27797
812.573	27903
812.714	27926
812.855	28044
812.997	28169
813.138	28226
813.279	28230
813.421	28070
813.562	28078
813.703	27808
813.845	27743
813.986	27466
814.127	27458
814.268	27226
814.41	27245
814.551	27310
814.692	27275
814.833	27157
814.974	27268
815.115	27180
815.256	27070
815.397	27268
815.539	26990
815.68	27096
815.821	26845
815.962	26887
816.103	27055
816.244	26937
816.385	26815
816.526	26769
816.666	26457
816.807	26415
816.948	26617
817.089	26587
817.23	26469
817.371	26476
817.512	26583
817.653	26522
817.793	26336
817.934	26450
818.075	26514
818.216	26549
818.356	26450
818.497	26298
818.638	26164
818.778	26191
818.919	26225
819.06	26286
819.2	26431
819.341	26507
819.481	26457
819.622	26613
819.762	26743
819.903	26735
820.043	26670
820.184	26648
820.324	26575
820.465	26598
820.605	26674
820.746	26568
820.886	26461
821.026	26552
821.167	26731
821.307	26712
821.447	26484
821.588	26374
821.728	26336
821.868	26111
822.008	25921
822.149	25955
822.289	25940
822.429	25635
822.569	25670
822.709	25605
822.849	25540
822.99	25365
823.13	25548
823.27	25521
823.41	25354
823.55	25221
823.69	25392
823.83	25419
823.97	25346
824.11	25133
824.25	25148
824.389	25187
824.529	25232
824.669	25050
824.809	25259
824.949	25107
825.089	25274
825.228	25126
825.368	24989
825.508	24951
825.648	25027
825.787	25027
825.927	24966
826.067	24882
826.206	24928
826.346	25038
826.485	25008
826.625	25023
826.765	25057
826.904	25053
827.044	24612
827.183	24715
827.323	24791
827.462	24703
827.601	24608
827.741	24631
827.88	24642
828.02	24582
828.159	24578
828.298	24681
828.437	24783
828.577	24635
828.716	24791
828.855	24509
828.994	24380
829.134	24479
829.273	24342
829.412	24403
829.551	24285
829.69	24235
829.829	24448
829.968	24422
830.107	24418
830.246	24334
830.385	24350
830.524	24311
830.663	24129
830.802	24072
830.941	24022
831.08	23988
831.219	24041
831.357	24053
831.496	24277
831.635	23889
831.774	23882
831.913	23897
832.051	23672
832.19	23657
832.329	23851
832.467	23703
832.606	23653
832.744	23604
832.883	23589
833.022	23634
833.16	23611
833.299	23668
833.437	23760
833.576	23691
833.714	23813
833.852	23657
833.991	23821
834.129	23767
834.267	23745
834.406	23836
834.544	23745
834.682	23668
834.821	23752
834.959	23901
835.097	23558
835.235	23691
835.373	23638
835.511	23646
835.65	23596
835.788	23520
835.926	23467
836.064	23376
836.202	23299
836.34	23684
836.478	23558
836.615	23520
836.753	23543
836.891	23748
837.029	23634
837.167	23486
837.305	23353
837.443	23395
837.58	23349
837.718	23459
837.856	23414
837.993	23391
838.131	23322
838.269	23311
838.406	23292
838.544	23162
838.681	23140
838.819	22961
838.956	22881
839.094	22908
839.231	22987
839.369	23006
839.506	23254
839.643	23231
839.781	22790
839.918	22816
840.055	22797
840.193	22782
840.33	22759
840.467	22816
840.604	22866
840.742	23048
840.879	22713
841.016	22790
841.153	22679
841.29	22854
841.427	22790
841.564	22824
841.701	22801
841.838	22835
841.975	22668
842.112	22679
842.249	22702
842.385	22577
842.522	22706
842.659	22641
842.796	22459
842.933	22478
843.069	22611
843.206	22519
843.343	22557
843.479	22455
843.616	22413
843.752	22322
843.889	22325
844.025	22432
844.162	22299
844.298	22360
844.435	22230
844.571	22246
844.708	22459
844.844	22504
844.98	22402
845.117	22538
845.253	22272
845.389	22192
845.525	22188
845.661	22226
845.798	22135
845.934	22135
846.07	22101
846.206	22169
846.342	22128
846.478	21972
846.614	21907
846.75	21622
846.886	21751
847.022	21968
847.158	21838
847.294	21755
847.429	21892
847.565	21884
847.701	22074
847.837	21469
847.972	21466
848.108	21736
848.244	21538
848.379	21450
848.515	21488
848.65	21214
848.786	21397
848.921	21450
849.057	21545
849.192	21572
849.328	21443
849.463	21370
849.598	21397
849.734	21260
849.869	21169
850.004	21062
850.14	21230
850.275	21005
850.41	21055
850.545	21127
850.68	21131
850.815	21245
850.95	21150
851.085	21287
851.22	21233
851.355	21154
851.49	21192
851.625	21081
851.76	21195
851.895	21028
852.03	21066
852.165	21135
852.299	21112
852.434	21131
852.569	21188
852.703	21211
852.838	21195
852.973	21313
853.107	21203
853.242	21047
853.376	20998
853.511	20773
853.645	20941
853.78	21043
853.914	21024
854.048	21051
854.183	20921
854.317	20982
854.451	21192
854.585	21112
854.72	20842
854.854	21070
854.988	20929
855.122	20883
855.256	20929
855.39	20979
855.524	21116
855.658	21001
855.792	20906
855.926	20986
856.06	21017
856.194	21028
856.327	20967
856.461	21024
856.595	20918
856.729	20998
856.862	21112
856.996	20941
857.13	20979
857.263	21081
857.397	20986
857.53	21001
857.664	20998
857.797	21001
857.931	21093
858.064	20979
858.197	21214
858.331	21047
858.464	20944
858.597	20952
858.731	20918
858.864	20899
858.997	20895
859.13	20925
859.263	20990
859.396	21036
859.529	20918
859.662	20872
859.795	20891
859.928	20967
860.061	21066
860.194	21173
860.327	21036
860.46	21074
860.592	21001
860.725	21154
860.858	21051
860.99	21070
861.123	20838
861.256	20941
861.388	20994
861.521	21637
861.653	20792
861.786	20693
861.918	20739
862.05	20906
862.183	20941
862.315	20963
862.447	20960
862.58	20944
862.712	20632
862.844	20705
862.976	20838
863.108	20819
863.24	21001
863.372	20765
863.504	20678
863.636	20613
863.768	20731
863.9	20693
864.032	20613
864.164	20526
864.296	20796
864.428	20735
864.559	20526
864.691	20686
864.823	20697
864.954	20743
865.086	20617
865.217	20560
865.349	20549
865.48	20629
865.612	20727
865.743	20750
865.875	20697
866.006	20522
866.137	20629
866.269	20644
866.4	20511
866.531	20492
866.662	20434
866.793	20499
866.924	20556
867.055	20552
867.186	20480
867.317	20446
867.448	20400
867.579	20575
867.71	20362
867.841	20385
867.972	20476
868.103	20488
868.233	20434
868.364	20514
868.495	20640
868.625	20594
868.756	20853
868.886	20819
869.017	20708
869.147	20876
869.278	20929
869.408	20754
869.539	20746
869.669	20853
869.799	20750
869.929	20982
870.06	20811
870.19	21070
870.32	21020
870.45	21157
870.58	21146
870.71	21317
870.84	21256
870.97	21291
871.1	21138
871.23	21363
871.36	21378
871.489	21283
871.619	21488
871.749	21336
871.879	21245
872.008	21500
872.138	21348
872.267	21230
872.397	21199
872.526	21237
872.656	21138
872.785	21127
872.915	21424
873.044	21405
873.173	21359
873.303	21458
873.432	21397
873.561	21405
873.69	21405
873.819	21302
873.948	21538
874.077	21355
874.206	21424
874.335	21450
874.464	21545
874.593	21698
874.722	21488
874.851	21603
874.979	21583
875.108	21587
875.237	21576
875.365	21526
875.494	21538
875.623	21641
875.751	21652
875.88	21610
876.008	21686
876.136	21793
876.265	21968
876.393	22150
876.521	22131
876.65	22223
876.778	22109
876.906	22021
877.034	21968
877.162	21987
877.29	21922
877.418	21941
877.546	22112
877.674	22082
877.802	21911
877.93	22017
878.058	21918
878.185	21842
878.313	21915
878.441	21926
878.568	21797
878.696	21964
878.824	21907
878.951	22074
879.079	22188
879.206	22223
879.333	22219
879.461	21960
879.588	22067
879.715	22036
879.842	22086
879.97	21960
880.097	21831
880.224	21717
880.351	21823
880.478	21857
880.605	21679
880.732	21789
880.859	21918
880.986	21819
881.112	21876
881.239	21679
881.366	21492
881.493	21386
881.619	21496
881.746	21416
881.872	21325
881.999	21523
882.125	21351
882.252	21408
882.378	21355
882.505	21428
882.631	21329
882.757	21058
882.883	21169
883.01	21047
883.136	21089
883.262	20906
883.388	20998
883.514	21017
883.64	21146
883.766	21009
883.892	20925
884.018	20777
884.143	20941
884.269	21032
884.395	20689
884.52	20708
884.646	20720
884.772	20621
884.897	20602
885.023	20834
885.148	20811
885.274	20849
885.399	20842
885.524	20811
885.65	20785
885.775	20743
885.9	20602
886.025	20804
886.15	20735
886.275	20579
886.4	20739
886.525	20701
886.65	20701
886.775	20598
886.9	20765
887.025	20914
887.149	20648
887.274	20526
887.399	20583
887.523	20431
887.648	20545
887.773	20355
887.897	20541
888.021	20533
888.146	20465
888.27	20465
888.395	20545
888.519	20488
888.643	20507
888.767	20522
888.891	20355
889.015	20385
889.139	20408
889.263	20370
889.387	20423
889.511	20484
889.635	20408
889.759	20157
889.883	20267
890.006	20237
890.13	20423
890.254	20183
890.377	20149
890.501	20016
890.624	19974
890.748	20100
890.871	20035
890.995	19852
891.118	19936
891.241	19871
891.364	19967
891.488	20062
891.611	19837
891.734	19807
891.857	19879
891.98	19940
892.103	19993
892.226	19864
892.349	19883
892.471	19704
892.594	19658
892.717	19746
892.839	19700
892.962	19780
893.085	19849
893.207	19750
893.33	19647
893.452	19799
893.575	19780
893.697	19655
893.819	19947
893.941	19963
894.064	19826
894.186	19731
894.308	19559
894.43	19841
894.552	19849
894.674	19894
894.796	19597
894.918	19753
895.04	19582
895.161	19772
895.283	19818
895.405	19715
895.526	19814
895.648	19750
895.769	19822
895.891	19849
896.012	19909
896.134	19753
896.255	19788
896.376	19693
896.498	19902
896.619	19784
896.74	19860
896.861	19811
896.982	20134
897.103	20191
897.224	20081
897.345	19978
897.466	19955
897.587	20081
897.708	20168
897.828	20088
897.949	20024
898.07	19879
898.19	19913
898.311	20107
898.431	20027
898.552	20054
898.672	20046
898.792	20027
898.913	19982
899.033	19868
899.153	19814
899.273	19639
899.393	19761
899.513	19780
899.633	19746
899.753	19750
899.873	19677
899.993	19837
900.113	19731
900.232	19715
900.352	19704
900.472	19639
900.591	19605
900.711	19651
900.83	19544
900.95	19666
901.069	19609
901.189	19502
901.308	19202
901.427	19133
901.546	19084
901.665	19179
901.784	19118
901.904	19095
902.023	18924
902.141	18612
902.26	18692
902.379	18783
902.498	18753
902.617	18673
902.735	18757
902.854	18665
902.973	18517
903.091	18388
903.21	18281
903.328	18319
903.446	18201
903.565	18178
903.683	18159
903.801	17999
903.919	18121
904.038	18083
904.156	17954
904.274	18057
904.392	17851
904.51	17965
904.627	17878
904.745	18045
904.863	17961
904.981	17661
905.098	17539
905.216	17608
905.334	17623
905.451	17619
905.569	17615
905.686	17524
905.803	17600
905.921	17376
906.038	17410
906.155	17421
906.272	17379
906.389	17353
906.506	17208
906.623	17189
906.74	17056
906.857	17025
906.974	16999
907.091	17155
907.208	17273
907.324	17147
907.441	17079
907.557	16972
907.674	16873
907.79	16786
907.907	16824
908.023	16942
908.139	16847
908.256	16820
908.372	16668
908.488	16752
908.604	16558
908.72	16546
908.836	16561
908.952	16577
909.068	16599
909.184	16733
909.3	16512
909.415	16478
909.531	16535
909.647	16238
909.762	16329
909.878	16200
909.993	16246
910.108	16188
910.224	16299
910.339	16249
910.454	16090
910.57	16067
910.685	15983
910.8	16276
910.915	16238
911.03	16150
911.145	15991
911.259	15808
911.374	15968
911.489	15808
911.604	15774
911.718	15644
911.833	15682
911.947	15549
912.062	15496
912.176	15720
912.291	15641
912.405	15641
912.519	15926
912.633	15770
912.748	15652
912.862	15625
912.976	15435
913.09	15351
913.204	15332
913.318	15481
913.431	15538
913.545	15443
913.659	15477
913.772	15405
913.886	15214
914	15329
914.113	15405
914.226	15332
914.34	15302
914.453	15108
914.566	15348
914.68	15188
914.793	15039
914.906	14834
915.019	14792
915.132	14834
915.245	14876
915.358	14857
915.47	14807
915.583	14902
915.696	14944
915.809	14963
915.921	14967
916.034	14800
916.146	14670
916.259	14689
916.371	14853
916.483	14891
916.595	14739
916.708	14682
916.82	14792
916.932	14674
917.044	14625
917.156	14594
917.268	14492
917.38	14522
917.491	14511
917.603	14575
917.715	14507
917.826	14701
917.938	14301
918.049	14366
918.161	14495
918.272	14514
918.384	14640
918.495	14442
918.606	14374
918.717	14286
918.828	14366
918.939	14324
919.05	14191
919.161	14256
919.272	14062
919.383	14062
919.494	14347
919.604	14480
919.715	14305
919.826	14123
919.936	14324
920.047	14229
920.157	14191
920.267	14385
920.378	14233
920.488	14199
920.598	14473
920.708	14511
920.818	14385
920.928	14400
921.038	14564
921.148	14511
921.258	14168
921.368	14062
921.477	14111
921.587	14031
921.697	13830
921.806	13932
921.916	13974
922.025	13689
922.134	13666
922.244	13632
922.353	13658
922.462	13594
922.571	13480
922.68	13308
922.789	13232
922.898	13343
923.007	13202
923.116	13331
923.224	13297
923.333	13194
923.442	13137
923.55	13202
923.659	13175
923.767	13179
923.876	13050
923.984	13213
924.092	12954
924.201	13061
924.309	13061
924.417	13031
924.525	12928
924.633	12989
924.741	13947
924.849	12760
924.956	12867
925.064	12833
925.172	12700
925.279	12741
925.387	12772
925.494	12738
925.602	12787
925.709	12772
925.816	12658
925.924	12673
926.031	12783
926.138	12608
926.245	12745
926.352	12555
926.459	12783
926.566	12764
926.673	12585
926.779	12494
926.886	12467
926.993	12296
927.099	12304
927.206	12266
927.312	12239
927.419	12350
927.525	12239
927.631	12372
927.737	12228
927.843	12117
927.95	12019
928.056	12087
928.162	12182
928.267	12182
928.373	12768
928.479	12220
928.585	11931
928.69	12068
928.796	12152
928.901	11980
929.007	11813
929.112	11973
929.218	11832
929.323	11843
929.428	11843
929.533	12003
929.638	11843
929.743	11756
929.848	11889
929.953	11828
930.058	11672
930.163	11547
930.267	11581
930.372	11737
930.477	11589
930.581	11722
930.685	11581
930.79	11516
930.894	11429
930.998	11356
931.103	11516
931.207	11250
931.311	11155
931.415	11041
931.519	10812
931.623	10820
