Data from test_V78500241_2041.txt Node
Date: Fri Mar 25 15:55:56 CST 2022
User: usil
Spectrometer: V785-0024
Trigger mode: 0
Integration Time (sec): 4.000000E-1
Scans to average: 1
Nonlinearity correction enabled: false
Boxcar width: 0
Storing dark spectrum: false
XAxis mode: Wavelengths
Number of Pixels in Spectrum: 1024
>>>>>Begin Spectral Data<<<<<
801.071	28843
801.214	28763
801.356	28512
801.499	28630
801.641	28348
801.783	28344
801.926	28379
802.068	28390
802.211	28367
802.353	28303
802.496	28211
802.638	28078
802.78	28173
802.923	28032
803.065	27979
803.208	28135
803.35	28150
803.492	28265
803.635	28268
803.777	28344
803.919	28341
804.061	28664
804.204	28413
804.346	28478
804.488	28303
804.63	28318
804.773	28276
804.915	28386
805.057	28447
805.199	28371
805.341	28508
805.483	28470
805.626	28557
805.768	28443
805.91	28538
806.052	28474
806.194	28428
806.336	28679
806.478	28691
806.62	28542
806.762	28862
806.904	28778
807.046	29041
807.188	28919
807.33	29018
807.472	29090
807.614	28938
807.756	28957
807.898	28831
808.04	28790
808.182	28820
808.324	28752
808.465	28782
808.607	29151
808.749	29261
808.891	29315
809.033	29391
809.174	29223
809.316	29299
809.458	29143
809.6	29113
809.741	29444
809.883	29315
810.025	29615
810.166	29490
810.308	29646
810.45	29497
810.591	29258
810.733	29414
810.875	29166
811.016	29250
811.158	29029
811.299	29379
811.441	29417
811.582	29375
811.724	29353
811.865	29200
812.007	29204
812.148	29273
812.29	29231
812.431	29490
812.573	29630
812.714	29642
812.855	29813
812.997	29961
813.138	29794
813.279	29893
813.421	29733
813.562	29699
813.703	29600
813.845	29455
813.986	29235
814.127	29048
814.268	29109
814.41	28847
814.551	28980
814.692	29151
814.833	28828
814.974	28911
815.115	28923
815.256	28778
815.397	28816
815.539	28713
815.68	28778
815.821	28500
815.962	28854
816.103	28767
816.244	28706
816.385	28622
816.526	28569
816.666	28405
816.807	28154
816.948	28382
817.089	28504
817.23	28401
817.371	28367
817.512	28230
817.653	28295
817.793	28242
817.934	28310
818.075	28135
818.216	28276
818.356	28276
818.497	28097
818.638	28059
818.778	27968
818.919	28048
819.06	28036
819.2	28120
819.341	28287
819.481	28272
819.622	28421
819.762	28508
819.903	28474
820.043	28379
820.184	28287
820.324	28459
820.465	28325
820.605	28352
820.746	28348
820.886	28166
821.026	28257
821.167	28337
821.307	28485
821.447	28276
821.588	28360
821.728	28139
821.868	27766
822.008	27633
822.149	27774
822.289	27770
822.429	27534
822.569	27485
822.709	27504
822.849	27374
822.99	27325
823.13	27355
823.27	27230
823.41	27203
823.55	27017
823.69	27028
823.83	27066
823.97	27100
824.11	26876
824.25	26876
824.389	26853
824.529	26914
824.669	26990
824.809	27161
824.949	27047
825.089	26948
825.228	27020
825.368	26762
825.508	26697
825.648	26845
825.787	26853
825.927	26861
826.067	26906
826.206	26826
826.346	26823
826.485	26948
826.625	26826
826.765	26937
826.904	26902
827.044	26499
827.183	26484
827.323	26419
827.462	26594
827.601	26617
827.741	26598
827.88	26644
828.02	26473
828.159	26564
828.298	26480
828.437	26541
828.577	26503
828.716	26530
828.855	26377
828.994	26183
829.134	26225
829.273	26317
829.412	26122
829.551	26115
829.69	26153
829.829	26210
829.968	26465
830.107	26412
830.246	26221
830.385	26126
830.524	26069
830.663	25955
830.802	25978
830.941	25822
831.08	25849
831.219	25841
831.357	25890
831.496	26054
831.635	25898
831.774	25731
831.913	25689
832.051	25674
832.19	25518
832.329	25597
832.467	25734
832.606	25483
832.744	25514
832.883	25518
833.022	25403
833.16	25594
833.299	25479
833.437	25571
833.576	25533
833.714	25449
833.852	25605
833.991	25670
834.129	25620
834.267	25811
834.406	25529
834.544	25666
834.682	25616
834.821	25537
834.959	25719
835.097	25476
835.235	25677
835.373	25518
835.511	25415
835.65	25559
835.788	25419
835.926	25373
836.064	25110
836.202	25187
836.34	25327
836.478	25537
836.615	25331
836.753	25422
836.891	25426
837.029	25324
837.167	25285
837.305	25381
837.443	25255
837.58	25050
837.718	25308
837.856	25308
837.993	25206
838.131	25244
838.269	25015
838.406	25050
838.544	25034
838.681	24901
838.819	24760
838.956	24642
839.094	24726
839.231	24760
839.369	24814
839.506	25072
839.643	24992
839.781	24490
839.918	24547
840.055	24715
840.193	24692
840.33	24555
840.467	24612
840.604	24521
840.742	24684
840.879	24399
841.016	24445
841.153	24429
841.29	24631
841.427	24563
841.564	24532
841.701	24467
841.838	24395
841.975	24353
842.112	24551
842.249	24536
842.385	24353
842.522	24623
842.659	24380
842.796	24376
842.933	24346
843.069	24205
843.206	24209
843.343	24289
843.479	24254
843.616	24338
843.752	24026
843.889	24133
844.025	24235
844.162	24182
844.298	24152
844.435	24038
844.571	24174
844.708	24095
844.844	24262
844.98	24239
845.117	24083
845.253	24034
845.389	24095
845.525	23961
845.661	23992
845.798	23786
845.934	23805
846.07	23756
846.206	23847
846.342	23950
846.478	23802
846.614	23604
846.75	23547
846.886	23467
847.022	23562
847.158	23440
847.294	23661
847.429	23592
847.565	23551
847.701	23760
847.837	23261
847.972	23235
848.108	23379
848.244	23444
848.379	23200
848.515	22980
848.65	23140
848.786	23048
848.921	23113
849.057	23189
849.192	23174
849.328	23140
849.463	23132
849.598	23083
849.734	23006
849.869	23136
850.004	22892
850.14	22984
850.275	22953
850.41	22801
850.545	22866
850.68	22877
850.815	22953
850.95	22927
851.085	23098
851.22	22930
851.355	22824
851.49	22812
851.625	22892
851.76	22904
851.895	22805
852.03	22816
852.165	22820
852.299	22801
852.434	23048
852.569	23006
852.703	22904
852.838	22908
852.973	23048
853.107	22869
853.242	22820
853.376	22744
853.511	22554
853.645	22706
853.78	22847
853.914	22782
854.048	22733
854.183	22782
854.317	22744
854.451	22869
854.585	22710
854.72	22710
854.854	22733
854.988	22702
855.122	22733
855.256	22493
855.39	22717
855.524	22885
855.658	22820
855.792	22672
855.926	22687
856.06	22797
856.194	22820
856.327	22767
856.461	22596
856.595	22660
856.729	22656
856.862	22698
856.996	22752
857.13	22812
857.263	22767
857.397	22873
857.53	22569
857.664	22622
857.797	22862
857.931	22850
858.064	22710
858.197	22904
858.331	22618
858.464	22744
858.597	22527
858.731	22664
858.864	22805
858.997	22653
859.13	22782
859.263	22729
859.396	22809
859.529	22702
859.662	22710
859.795	22679
859.928	22847
860.061	22850
860.194	22911
860.327	22668
860.46	22717
860.592	22740
860.725	22885
860.858	22850
860.99	22656
861.123	22637
861.256	22698
861.388	22573
861.521	23391
861.653	22599
861.786	22516
861.918	22668
862.05	22497
862.183	22679
862.315	22630
862.447	22615
862.58	22664
862.712	22485
862.844	22375
862.976	22554
863.108	22542
863.24	22953
863.372	22436
863.504	22371
863.636	22443
863.768	22580
863.9	22462
864.032	22371
864.164	22402
864.296	22443
864.428	22531
864.559	22508
864.691	22405
864.823	22295
864.954	22272
865.086	22402
865.217	22363
865.349	22295
865.48	22166
865.612	22284
865.743	22428
865.875	22291
866.006	22215
866.137	22253
866.269	22276
866.4	22234
866.531	22246
866.662	22234
866.793	22226
866.924	22135
867.055	22204
867.186	22154
867.317	22128
867.448	22013
867.579	22173
867.71	22158
867.841	22204
867.972	22314
868.103	22223
868.233	22188
868.364	22280
868.495	22295
868.625	22447
868.756	22561
868.886	22390
869.017	22409
869.147	22580
869.278	22656
869.408	22500
869.539	22459
869.669	22535
869.799	22691
869.929	22542
870.06	22512
870.19	22824
870.32	22748
870.45	22850
870.58	22847
870.71	22854
870.84	22915
870.97	22812
871.1	22877
871.23	23170
871.36	22976
871.489	22869
871.619	22965
871.749	23060
871.879	23090
872.008	23136
872.138	22938
872.267	23083
872.397	22976
872.526	22927
872.656	22835
872.785	22881
872.915	22957
873.044	23022
873.173	23064
873.303	23170
873.432	23025
873.561	23121
873.69	23060
873.819	23033
873.948	22987
874.077	23075
874.206	23113
874.335	23094
874.464	23261
874.593	23303
874.722	23349
874.851	23383
874.979	23395
875.108	23212
875.237	23193
875.365	23208
875.494	23296
875.623	23143
875.751	23284
875.88	23265
876.008	23452
876.136	23436
876.265	23600
876.393	23752
876.521	23684
876.65	23798
876.778	23722
876.906	23505
877.034	23573
877.162	23600
877.29	23566
877.418	23687
877.546	23653
877.674	23585
877.802	23627
877.93	23627
878.058	23699
878.185	23429
878.313	23627
878.441	23531
878.568	23429
878.696	23505
878.824	23524
878.951	23687
879.079	23748
879.206	23786
879.333	23767
879.461	23642
879.588	23809
879.715	23630
879.842	23908
879.97	23756
880.097	23379
880.224	23376
880.351	23467
880.478	23406
880.605	23425
880.732	23383
880.859	23573
880.986	23543
881.112	23535
881.239	23482
881.366	23174
881.493	23185
881.619	23022
881.746	23067
881.872	22809
881.999	22995
882.125	22801
882.252	23033
882.378	22927
882.505	22972
882.631	22839
882.757	22546
882.883	22748
883.01	22706
883.136	22615
883.262	22561
883.388	22432
883.514	22672
883.64	22622
883.766	22588
883.892	22489
884.018	22424
884.143	22592
884.269	22557
884.395	22421
884.52	22238
884.646	22360
884.772	22223
884.897	22192
885.023	22329
885.148	22295
885.274	22523
885.399	22478
885.524	22253
885.65	22356
885.775	22386
885.9	22291
886.025	22337
886.15	22363
886.275	22322
886.4	22173
886.525	22173
886.65	22242
886.775	22284
886.9	22363
887.025	22478
887.149	22257
887.274	22135
887.399	21983
887.523	22067
887.648	21991
887.773	21903
887.897	22166
888.021	22006
888.146	22032
888.27	22131
888.395	22112
888.519	22082
888.643	22078
888.767	22093
888.891	21915
889.015	21873
889.139	21869
889.263	21781
889.387	21869
889.511	22086
889.635	21911
889.759	21759
889.883	21857
890.006	21797
890.13	22029
890.254	21797
890.377	21861
890.501	21641
890.624	21534
890.748	21618
890.871	21526
890.995	21275
891.118	21249
891.241	21397
891.364	21389
891.488	21386
891.611	21218
891.734	21336
891.857	21401
891.98	21428
892.103	21420
892.226	21279
892.349	21332
892.471	21154
892.594	21340
892.717	21306
892.839	21291
892.962	21294
893.085	21374
893.207	21241
893.33	21127
893.452	21138
893.575	21408
893.697	21325
893.819	21310
893.941	21519
894.064	21344
894.186	21264
894.308	21184
894.43	21344
894.552	21367
894.674	21218
894.796	21203
894.918	21165
895.04	21199
895.161	21268
895.283	21275
895.405	21207
895.526	21138
895.648	21150
895.769	21203
895.891	21313
896.012	21207
896.134	21310
896.255	21306
896.376	21218
896.498	21260
896.619	21214
896.74	21237
896.861	21313
896.982	21542
897.103	21603
897.224	21553
897.345	21504
897.466	21340
897.587	21466
897.708	21545
897.828	21378
897.949	21412
898.07	21382
898.19	21275
898.311	21458
898.431	21420
898.552	21329
898.672	21458
898.792	21420
898.913	21340
899.033	21249
899.153	21241
899.273	21074
899.393	21230
899.513	21287
899.633	21085
899.753	21116
899.873	21116
899.993	21195
900.113	21062
900.232	21207
900.352	21062
900.472	21032
900.591	20895
900.711	20967
900.83	20937
900.95	21009
901.069	21051
901.189	20823
901.308	20602
901.427	20522
901.546	20533
901.665	20514
901.784	20575
901.904	20343
902.023	20278
902.141	20005
902.26	20069
902.379	20100
902.498	20054
902.617	19932
902.735	20016
902.854	19925
902.973	19970
903.091	19670
903.21	19761
903.328	19643
903.446	19567
903.565	19438
903.683	19480
903.801	19244
903.919	19411
904.038	19476
904.156	19263
904.274	19266
904.392	19244
904.51	19152
904.627	19091
904.745	19183
904.863	19263
904.981	19008
905.098	18897
905.216	18909
905.334	18833
905.451	18905
905.569	18909
905.686	18867
905.803	18875
905.921	18631
906.038	18730
906.155	18658
906.272	18593
906.389	18506
906.506	18448
906.623	18437
906.74	18380
906.857	18277
906.974	18422
907.091	18597
907.208	18536
907.324	18365
907.441	18292
907.557	18019
907.674	18026
907.79	18110
907.907	18117
908.023	18110
908.139	18034
908.256	18026
908.372	17923
908.488	17977
908.604	17843
908.72	17707
908.836	17885
908.952	17687
909.068	17931
909.184	17893
909.3	17726
909.415	17809
909.531	17824
909.647	17554
909.762	17501
909.878	17490
909.993	17493
910.108	17512
910.224	17520
910.339	17505
910.454	17383
910.57	17288
910.685	17311
910.8	17444
910.915	17490
911.03	17277
911.145	17109
911.259	17151
911.374	17086
911.489	16934
911.604	16972
911.718	16698
911.833	16915
911.947	16713
912.062	16607
912.176	16767
912.291	16873
912.405	16752
912.519	17022
912.633	16953
912.748	16866
912.862	16698
912.976	16596
913.09	16493
913.204	16630
913.318	16622
913.431	16782
913.545	16748
913.659	16645
913.772	16443
913.886	16405
914	16443
914.113	16462
914.226	16596
914.34	16428
914.453	16360
914.566	16451
914.68	16215
914.793	16215
914.906	16029
915.019	15983
915.132	16013
915.245	15979
915.358	15956
915.47	15922
915.583	16044
915.696	16055
915.809	16116
915.921	16036
916.034	15888
916.146	15850
916.259	15857
916.371	15838
916.483	15930
916.595	15804
916.708	15899
916.82	15842
916.932	15850
917.044	15838
917.156	15633
917.268	15595
917.38	15610
917.491	15549
917.603	15610
917.715	15652
917.826	15675
917.938	15507
918.049	15401
918.161	15523
918.272	15705
918.384	15663
918.495	15530
918.606	15447
918.717	15344
918.828	15416
918.939	15329
919.05	15214
919.161	15230
919.272	15119
919.383	15298
919.494	15393
919.604	15488
919.715	15313
919.826	15169
919.936	15226
920.047	15382
920.157	15230
920.267	15542
920.378	15294
920.488	15268
920.598	15386
920.708	15580
920.818	15363
920.928	15386
921.038	15584
921.148	15591
921.258	15268
921.368	15047
921.477	15028
921.587	14941
921.697	14864
921.806	14971
921.916	14952
922.025	14720
922.134	14659
922.244	14590
922.353	14682
922.462	14530
922.571	14511
922.68	14381
922.789	14317
922.898	14332
923.007	14259
923.116	14370
923.224	14214
923.333	14305
923.442	14248
923.55	14062
923.659	14145
923.767	14157
923.876	14031
923.984	14126
924.092	13982
924.201	14096
924.309	14001
924.417	13986
924.525	13982
924.633	13955
924.741	14792
924.849	13776
924.956	13837
925.064	13658
925.172	13609
925.279	13708
925.387	13742
925.494	13647
925.602	13803
925.709	13731
925.816	13537
925.924	13582
926.031	13628
926.138	13651
926.245	13594
926.352	13430
926.459	13636
926.566	13559
926.673	13460
926.779	13373
926.886	13430
926.993	13202
927.099	13156
927.206	13122
927.312	13107
927.419	13266
927.525	13183
927.631	13217
927.737	13114
927.843	13076
927.95	12909
928.056	12981
928.162	12970
928.267	13027
928.373	13624
928.479	12993
928.585	12852
928.69	12886
928.796	12970
928.901	12856
929.007	12589
929.112	12970
929.218	12867
929.323	12757
929.428	12654
929.533	12890
929.638	12719
929.743	12681
929.848	12703
929.953	12601
930.058	12559
930.163	12448
930.267	12365
930.372	12544
930.477	12304
930.581	12547
930.685	12388
930.79	12266
930.894	12292
930.998	12235
931.103	12346
931.207	11961
931.311	11950
931.415	11912
931.519	11665
931.623	11585
