Data from test_V78500241_2059.txt Node
Date: Fri Mar 25 15:56:03 CST 2022
User: usil
Spectrometer: V785-0024
Trigger mode: 0
Integration Time (sec): 4.000000E-1
Scans to average: 1
Nonlinearity correction enabled: false
Boxcar width: 0
Storing dark spectrum: false
XAxis mode: Wavelengths
Number of Pixels in Spectrum: 1024
>>>>>Begin Spectral Data<<<<<
801.071	28809
801.214	28706
801.356	28592
801.499	28542
801.641	28493
801.783	28485
801.926	28421
802.068	28516
802.211	28481
802.353	28280
802.496	28299
802.638	28234
802.78	28090
802.923	28173
803.065	28147
803.208	28181
803.35	28291
803.492	28344
803.635	28417
803.777	28166
803.919	28417
804.061	28710
804.204	28459
804.346	28352
804.488	28386
804.63	28360
804.773	28333
804.915	28462
805.057	28653
805.199	28363
805.341	28462
805.483	28687
805.626	28535
805.768	28504
805.91	28538
806.052	28755
806.194	28557
806.336	28615
806.478	28535
806.62	28615
806.762	28611
806.904	28892
807.046	29022
807.188	28908
807.33	28999
807.472	29071
807.614	28869
807.756	29132
807.898	28927
808.04	28892
808.182	28965
808.324	28908
808.465	28881
808.607	29185
808.749	29353
808.891	29395
809.033	29467
809.174	29307
809.316	29322
809.458	29296
809.6	29185
809.741	29368
809.883	29364
810.025	29551
810.166	29425
810.308	29596
810.45	29353
810.591	29497
810.733	29322
810.875	29216
811.016	29250
811.158	29318
811.299	29299
811.441	29497
811.582	29414
811.724	29368
811.865	29315
812.007	29124
812.148	29242
812.29	29474
812.431	29493
812.573	29615
812.714	29703
812.855	29901
812.997	29874
813.138	30018
813.279	29916
813.421	29737
813.562	29805
813.703	29623
813.845	29486
813.986	29197
814.127	29143
814.268	28877
814.41	29064
814.551	28957
814.692	28987
814.833	29003
814.974	28946
815.115	28946
815.256	28748
815.397	28980
815.539	28881
815.68	28702
815.821	28805
815.962	28740
816.103	28812
816.244	28820
816.385	28527
816.526	28565
816.666	28504
816.807	28200
816.948	28360
817.089	28497
817.23	28432
817.371	28440
817.512	28322
817.653	28268
817.793	28147
817.934	28310
818.075	28348
818.216	28337
818.356	28295
818.497	28238
818.638	27972
818.778	28105
818.919	27987
819.06	28185
819.2	28226
819.341	28348
819.481	28322
819.622	28436
819.762	28744
819.903	28504
820.043	28584
820.184	28409
820.324	28413
820.465	28519
820.605	28580
820.746	28500
820.886	28333
821.026	28367
821.167	28489
821.307	28569
821.447	28398
821.588	28284
821.728	28112
821.868	27876
822.008	27907
822.149	27907
822.289	27774
822.429	27496
822.569	27622
822.709	27401
822.849	27386
822.99	27241
823.13	27348
823.27	27241
823.41	27169
823.55	26842
823.69	27230
823.83	27230
823.97	27127
824.11	26940
824.25	26910
824.389	26971
824.529	27112
824.669	26971
824.809	27138
824.949	27116
825.089	27176
825.228	27081
825.368	26826
825.508	26800
825.648	26899
825.787	26971
825.927	26960
826.067	26769
826.206	26883
826.346	26887
826.485	27066
826.625	26819
826.765	26971
826.904	26906
827.044	26689
827.183	26678
827.323	26716
827.462	26552
827.601	26629
827.741	26533
827.88	26617
828.02	26522
828.159	26419
828.298	26625
828.437	26621
828.577	26507
828.716	26651
828.855	26385
828.994	26305
829.134	26161
829.273	26294
829.412	26199
829.551	26229
829.69	26214
829.829	26309
829.968	26347
830.107	26355
830.246	26206
830.385	26149
830.524	26221
830.663	26088
830.802	26103
830.941	25814
831.08	25837
831.219	25921
831.357	25890
831.496	26180
831.635	25830
831.774	25826
831.913	25681
832.051	25727
832.19	25674
832.329	25613
832.467	25476
832.606	25453
832.744	25620
832.883	25476
833.022	25396
833.16	25597
833.299	25616
833.437	25578
833.576	25632
833.714	25567
833.852	25601
833.991	25635
834.129	25662
834.267	25666
834.406	25696
834.544	25601
834.682	25731
834.821	25594
834.959	25776
835.097	25616
835.235	25689
835.373	25624
835.511	25635
835.65	25449
835.788	25487
835.926	25324
836.064	25194
836.202	25244
836.34	25502
836.478	25472
836.615	25362
836.753	25491
836.891	25575
837.029	25407
837.167	25419
837.305	25209
837.443	25324
837.58	25244
837.718	25270
837.856	25362
837.993	25160
838.131	25270
838.269	25129
838.406	25213
838.544	25099
838.681	24863
838.819	24840
838.956	24734
839.094	24665
839.231	24738
839.369	24795
839.506	25061
839.643	24886
839.781	24867
839.918	24684
840.055	24703
840.193	24665
840.33	24593
840.467	24536
840.604	24719
840.742	24916
840.879	24456
841.016	24608
841.153	24498
841.29	24707
841.427	24658
841.564	24722
841.701	24456
841.838	24559
841.975	24490
842.112	24578
842.249	24395
842.385	24448
842.522	24578
842.659	24452
842.796	24395
842.933	24471
843.069	24273
843.206	24258
843.343	24445
843.479	24456
843.616	24433
843.752	24220
843.889	24072
844.025	24384
844.162	24155
844.298	24197
844.435	24091
844.571	24095
844.708	24243
844.844	24262
844.98	24334
845.117	24228
845.253	24159
845.389	24022
845.525	24083
845.661	23904
845.798	23790
845.934	23946
846.07	23783
846.206	23836
846.342	24007
846.478	23882
846.614	23695
846.75	23585
846.886	23611
847.022	23547
847.158	23608
847.294	23608
847.429	23627
847.565	23570
847.701	23824
847.837	23410
847.972	23364
848.108	23315
848.244	23391
848.379	23181
848.515	23143
848.65	23086
848.786	23117
848.921	23181
849.057	23166
849.192	23204
849.328	23178
849.463	23151
849.598	23094
849.734	23014
849.869	23102
850.004	22889
850.14	22885
850.275	23003
850.41	22744
850.545	22900
850.68	22938
850.815	22942
850.95	22923
851.085	23044
851.22	23033
851.355	22858
851.49	22847
851.625	22839
851.76	22934
851.895	22809
852.03	22839
852.165	22984
852.299	22984
852.434	23003
852.569	22938
852.703	22987
852.838	22999
852.973	22915
853.107	23067
853.242	22984
853.376	22733
853.511	22626
853.645	22759
853.78	22809
853.914	22759
854.048	22713
854.183	22557
854.317	22759
854.451	22980
854.585	22759
854.72	22881
854.854	22965
854.988	22786
855.122	22702
855.256	22519
855.39	22675
855.524	22843
855.658	22717
855.792	22873
855.926	22763
856.06	22797
856.194	22866
856.327	22744
856.461	22626
856.595	22710
856.729	22763
856.862	22896
856.996	22805
857.13	22831
857.263	22774
857.397	22900
857.53	22748
857.664	22793
857.797	22767
857.931	22759
858.064	22774
858.197	22980
858.331	22771
858.464	22599
858.597	22546
858.731	22702
858.864	22630
858.997	22740
859.13	22713
859.263	22858
859.396	22858
859.529	22771
859.662	22740
859.795	22588
859.928	22828
860.061	22915
860.194	22949
860.327	22702
860.46	22698
860.592	22915
860.725	22991
860.858	22862
860.99	22744
861.123	22702
861.256	22763
861.388	22942
861.521	23212
861.653	22569
861.786	22637
861.918	22573
862.05	22694
862.183	22668
862.315	22615
862.447	22805
862.58	22713
862.712	22440
862.844	22542
862.976	22592
863.108	22573
863.24	22946
863.372	22455
863.504	22489
863.636	22459
863.768	22478
863.9	22580
864.032	22352
864.164	22398
864.296	22447
864.428	22637
864.559	22653
864.691	22649
864.823	22428
864.954	22474
865.086	22379
865.217	22325
865.349	22246
865.48	22451
865.612	22333
865.743	22417
865.875	22272
866.006	22337
866.137	22344
866.269	22371
866.4	22306
866.531	22287
866.662	22261
866.793	22318
866.924	22337
867.055	22211
867.186	22417
867.317	22230
867.448	22196
867.579	22109
867.71	22192
867.841	22139
867.972	22162
868.103	22181
868.233	22215
868.364	22337
868.495	22166
868.625	22584
868.756	22535
868.886	22493
869.017	22466
869.147	22630
869.278	22622
869.408	22481
869.539	22493
869.669	22516
869.799	22535
869.929	22694
870.06	22706
870.19	22748
870.32	22744
870.45	22900
870.58	22942
870.71	23071
870.84	23014
870.97	22927
871.1	22881
871.23	23098
871.36	23113
871.489	22957
871.619	23136
871.749	23067
871.879	23109
872.008	23162
872.138	23121
872.267	23155
872.397	23033
872.526	22862
872.656	22957
872.785	22915
872.915	23075
873.044	23098
873.173	22976
873.303	23098
873.432	23162
873.561	23140
873.69	23250
873.819	23208
873.948	23140
874.077	23178
874.206	23064
874.335	23117
874.464	23098
874.593	23227
874.722	23189
874.851	23330
874.979	23326
875.108	23429
875.237	23200
875.365	23178
875.494	23197
875.623	23349
875.751	23235
875.88	23383
876.008	23421
876.136	23425
876.265	23779
876.393	23859
876.521	23805
876.65	23840
876.778	23653
876.906	23539
877.034	23543
877.162	23653
877.29	23573
877.418	23581
877.546	23535
877.674	23657
877.802	23687
877.93	23600
878.058	23596
878.185	23528
878.313	23482
878.441	23585
878.568	23440
878.696	23509
878.824	23672
878.951	23817
879.079	23786
879.206	23935
879.333	23874
879.461	23684
879.588	23783
879.715	23813
879.842	23950
879.97	23653
880.097	23501
880.224	23330
880.351	23478
880.478	23493
880.605	23452
880.732	23452
880.859	23733
880.986	23433
881.112	23585
881.239	23269
881.366	23143
881.493	23170
881.619	22949
881.746	23025
881.872	23052
881.999	23025
882.125	23075
882.252	23094
882.378	22980
882.505	23239
882.631	22885
882.757	22637
882.883	22725
883.01	22759
883.136	22618
883.262	22531
883.388	22573
883.514	22672
883.64	22752
883.766	22584
883.892	22519
884.018	22569
884.143	22596
884.269	22710
884.395	22447
884.52	22207
884.646	22314
884.772	22230
884.897	22303
885.023	22390
885.148	22497
885.274	22394
885.399	22371
885.524	22371
885.65	22314
885.775	22329
885.9	22310
886.025	22386
886.15	22443
886.275	22295
886.4	22169
886.525	22173
886.65	22219
886.775	22166
886.9	22405
887.025	22447
887.149	22325
887.274	22135
887.399	22226
887.523	22090
887.648	22070
887.773	22021
887.897	22185
888.021	22112
888.146	22040
888.27	22150
888.395	22181
888.519	22006
888.643	22177
888.767	22059
888.891	21895
889.015	21888
889.139	21968
889.263	21770
889.387	22002
889.511	22223
889.635	22029
889.759	21785
889.883	21835
890.006	22021
890.13	21930
890.254	21694
890.377	21865
890.501	21682
890.624	21618
890.748	21622
890.871	21431
890.995	21382
891.118	21245
891.241	21408
891.364	21351
891.488	21576
891.611	21283
891.734	21351
891.857	21424
891.98	21374
892.103	21538
892.226	21420
892.349	21336
892.471	21256
892.594	21291
892.717	21321
892.839	21405
892.962	21329
893.085	21408
893.207	21260
893.33	21165
893.452	21294
893.575	21294
893.697	21332
893.819	21367
893.941	21515
894.064	21431
894.186	21226
894.308	21146
894.43	21325
894.552	21526
894.674	21374
894.796	21241
894.918	21226
895.04	21211
895.161	21416
895.283	21408
895.405	21218
895.526	21252
895.648	21203
895.769	21370
895.891	21412
896.012	21306
896.134	21313
896.255	21291
896.376	21279
896.498	21374
896.619	21237
896.74	21367
896.861	21237
896.982	21572
897.103	21739
897.224	21526
897.345	21420
897.466	21485
897.587	21431
897.708	21519
897.828	21511
897.949	21515
898.07	21226
898.19	21443
898.311	21519
898.431	21374
898.552	21443
898.672	21492
898.792	21500
898.913	21405
899.033	21374
899.153	21180
899.273	21275
899.393	21085
899.513	21077
899.633	21237
899.753	21093
899.873	21195
899.993	21173
900.113	21188
900.232	21233
900.352	21009
900.472	20971
900.591	20857
900.711	20994
900.83	20765
900.95	21119
901.069	21123
901.189	20769
901.308	20625
901.427	20579
901.546	20530
901.665	20583
901.784	20564
901.904	20465
902.023	20294
902.141	20142
902.26	20107
902.379	20130
902.498	19955
902.617	19944
902.735	19970
902.854	19955
902.973	19856
903.091	19620
903.21	19689
903.328	19647
903.446	19601
903.565	19441
903.683	19438
903.801	19324
903.919	19518
904.038	19411
904.156	19312
904.274	19244
904.392	19244
904.51	19255
904.627	19027
904.745	19316
904.863	19259
904.981	18981
905.098	18787
905.216	18981
905.334	18833
905.451	18939
905.569	18875
905.686	18973
905.803	18939
905.921	18654
906.038	18833
906.155	18719
906.272	18582
906.389	18681
906.506	18407
906.623	18471
906.74	18555
906.857	18338
906.974	18296
907.091	18403
907.208	18506
907.324	18452
907.441	18330
907.557	18186
907.674	18079
907.79	18098
907.907	18114
908.023	18129
908.139	18152
908.256	18019
908.372	18095
908.488	18041
908.604	17908
908.72	17775
908.836	17885
908.952	17824
909.068	17764
909.184	17984
909.3	17729
909.415	17821
909.531	17805
909.647	17566
909.762	17558
909.878	17532
909.993	17524
910.108	17585
910.224	17497
910.339	17528
910.454	17395
910.57	17452
910.685	17261
910.8	17547
910.915	17429
911.03	17315
911.145	17128
911.259	17098
911.374	17220
911.489	17003
911.604	16942
911.718	16889
911.833	16869
911.947	16694
912.062	16778
912.176	16843
912.291	16892
912.405	16862
912.519	17014
912.633	17056
912.748	16858
912.862	16793
912.976	16759
913.09	16550
913.204	16634
913.318	16615
913.431	16771
913.545	16717
913.659	16755
913.772	16580
913.886	16478
914	16451
914.113	16462
914.226	16485
914.34	16542
914.453	16360
914.566	16493
914.68	16310
914.793	16299
914.906	16158
915.019	15987
915.132	16044
915.245	15979
915.358	16040
915.47	16013
915.583	15968
915.696	15968
915.809	16211
915.921	16246
916.034	15983
916.146	15987
916.259	15846
916.371	15998
916.483	15850
916.595	15816
916.708	15903
916.82	15850
916.932	15736
917.044	15789
917.156	15766
917.268	15557
917.38	15644
917.491	15572
917.603	15690
917.715	15610
917.826	15713
917.938	15481
918.049	15496
918.161	15545
918.272	15724
918.384	15675
918.495	15485
918.606	15462
918.717	15329
918.828	15405
918.939	15447
919.05	15298
919.161	15363
919.272	15214
919.383	15241
919.494	15401
919.604	15557
919.715	15275
919.826	15260
919.936	15310
920.047	15435
920.157	15393
920.267	15492
920.378	15321
920.488	15241
920.598	15469
920.708	15625
920.818	15401
920.928	15386
921.038	15435
921.148	15564
921.258	15313
921.368	15131
921.477	15043
921.587	15066
921.697	14868
921.806	14971
921.916	14921
922.025	14773
922.134	14788
922.244	14724
922.353	14735
922.462	14606
922.571	14480
922.68	14385
922.789	14271
922.898	14313
923.007	14278
923.116	14393
923.224	14298
923.333	14305
923.442	14210
923.55	14153
923.659	14145
923.767	14138
923.876	14001
923.984	14180
924.092	13947
924.201	14084
924.309	14084
924.417	13974
924.525	14005
924.633	14020
924.741	14914
924.849	13852
924.956	13879
925.064	13791
925.172	13651
925.279	13715
925.387	13746
925.494	13613
925.602	13742
925.709	13742
925.816	13639
925.924	13605
926.031	13704
926.138	13647
926.245	13715
926.352	13559
926.459	13639
926.566	13738
926.673	13552
926.779	13419
926.886	13434
926.993	13304
927.099	13304
927.206	13247
927.312	13228
927.419	13236
927.525	13247
927.631	13266
927.737	13076
927.843	13103
927.95	12989
928.056	12943
928.162	13076
928.267	13107
928.373	13639
928.479	13198
928.585	12954
928.69	12973
928.796	13023
928.901	12821
929.007	12734
929.112	13012
929.218	12768
929.323	12802
929.428	12715
929.533	12814
929.638	12681
929.743	12673
929.848	12833
929.953	12669
930.058	12601
930.163	12418
930.267	12441
930.372	12525
930.477	12369
930.581	12597
930.685	12414
930.79	12254
930.894	12410
930.998	12194
931.103	12464
931.207	12022
931.311	12030
931.415	11855
931.519	11615
931.623	11668
