Data from test_V78500241_299.txt Node
Date: Fri Mar 25 15:43:52 CST 2022
User: usil
Spectrometer: V785-0024
Trigger mode: 0
Integration Time (sec): 4.000000E-1
Scans to average: 1
Nonlinearity correction enabled: false
Boxcar width: 0
Storing dark spectrum: false
XAxis mode: Wavelengths
Number of Pixels in Spectrum: 1024
>>>>>Begin Spectral Data<<<<<
801.071	29334
801.214	29143
801.356	29067
801.499	28915
801.641	28793
801.783	28953
801.926	28866
802.068	28736
802.211	28672
802.353	28599
802.496	28535
802.638	28573
802.78	28409
802.923	28421
803.065	28310
803.208	28394
803.35	28405
803.492	28466
803.635	28755
803.777	28440
803.919	28634
804.061	28946
804.204	28535
804.346	28561
804.488	28527
804.63	28675
804.773	28546
804.915	28649
805.057	28748
805.199	28596
805.341	28683
805.483	28782
805.626	28744
805.768	28462
805.91	28790
806.052	28778
806.194	28596
806.336	28896
806.478	28835
806.62	28778
806.762	28774
806.904	28953
807.046	29288
807.188	29064
807.33	29113
807.472	29212
807.614	28999
807.756	29029
807.898	28888
808.04	28835
808.182	28904
808.324	29003
808.465	28915
808.607	28957
808.749	29250
808.891	29330
809.033	29433
809.174	29299
809.316	29341
809.458	29235
809.6	29181
809.741	29417
809.883	29379
810.025	29600
810.166	29406
810.308	29478
810.45	29452
810.591	29516
810.733	29421
810.875	29303
811.016	29315
811.158	29216
811.299	29334
811.441	29589
811.582	29341
811.724	29178
811.865	29280
812.007	29353
812.148	29375
812.29	29250
812.431	29493
812.573	29733
812.714	29729
812.855	29817
812.997	29965
813.138	30022
813.279	29961
813.421	29817
813.562	29729
813.703	29528
813.845	29497
813.986	29250
814.127	29090
814.268	29029
814.41	29067
814.551	28854
814.692	29010
814.833	28923
814.974	28873
815.115	29018
815.256	28752
815.397	28843
815.539	28949
815.68	28694
815.821	28782
815.962	28668
816.103	28569
816.244	28622
816.385	28481
816.526	28398
816.666	28329
816.807	28188
816.948	28280
817.089	28325
817.23	28287
817.371	28070
817.512	28295
817.653	28021
817.793	28048
817.934	28101
818.075	28120
818.216	28086
818.356	28192
818.497	27876
818.638	27835
818.778	27846
818.919	27797
819.06	27930
819.2	27968
819.341	28051
819.481	27975
819.622	28135
819.762	28447
819.903	28341
820.043	28299
820.184	28223
820.324	28070
820.465	28276
820.605	28318
820.746	28226
820.886	28128
821.026	28207
821.167	28105
821.307	28086
821.447	28177
821.588	27781
821.728	27914
821.868	27743
822.008	27492
822.149	27389
822.289	27591
822.429	27173
822.569	27169
822.709	27085
822.849	27058
822.99	27131
823.13	26940
823.27	26925
823.41	26804
823.55	26678
823.69	26804
823.83	26792
823.97	26731
824.11	26526
824.25	26613
824.389	26579
824.529	26735
824.669	26640
824.809	26670
824.949	26731
825.089	26781
825.228	26701
825.368	26385
825.508	26453
825.648	26480
825.787	26533
825.927	26530
826.067	26476
826.206	26389
826.346	26530
826.485	26659
826.625	26393
826.765	26606
826.904	26404
827.044	26259
827.183	26164
827.323	26229
827.462	26195
827.601	26157
827.741	26134
827.88	26088
828.02	26020
828.159	26058
828.298	26153
828.437	26176
828.577	26069
828.716	26138
828.855	26046
828.994	25852
829.134	25788
829.273	25788
829.412	25655
829.551	25791
829.69	25921
829.829	25803
829.968	25879
830.107	25811
830.246	25894
830.385	25757
830.524	25605
830.663	25502
830.802	25438
830.941	25297
831.08	25354
831.219	25339
831.357	25445
831.496	25556
831.635	25362
831.774	25308
831.913	25266
832.051	25171
832.19	25171
832.329	25179
832.467	25057
832.606	25076
832.744	25080
832.883	25012
833.022	24951
833.16	25004
833.299	25133
833.437	25012
833.576	25031
833.714	24966
833.852	25175
833.991	25027
834.129	25057
834.267	25072
834.406	25027
834.544	25141
834.682	24977
834.821	24981
834.959	25259
835.097	24992
835.235	25046
835.373	24920
835.511	25031
835.65	24696
835.788	24909
835.926	24601
836.064	24601
836.202	24582
836.34	24787
836.478	24890
836.615	24802
836.753	24920
836.891	24947
837.029	24840
837.167	24779
837.305	24776
837.443	24795
837.58	24650
837.718	24787
837.856	24646
837.993	24703
838.131	24719
838.269	24521
838.406	24661
838.544	24433
838.681	24319
838.819	24281
838.956	24182
839.094	24018
839.231	24258
839.369	24334
839.506	24452
839.643	24346
839.781	24216
839.918	24114
840.055	24076
840.193	24038
840.33	23942
840.467	24064
840.604	24076
840.742	24330
840.879	23874
841.016	23840
841.153	23813
841.29	24201
841.427	23935
841.564	24034
841.701	23859
841.838	23958
841.975	23790
842.112	23828
842.249	23741
842.385	23695
842.522	23847
842.659	23786
842.796	23589
842.933	23657
843.069	23661
843.206	23585
843.343	23840
843.479	23630
843.616	23589
843.752	23570
843.889	23448
844.025	23608
844.162	23383
844.298	23585
844.435	23543
844.571	23376
844.708	23516
844.844	23653
844.98	23657
845.117	23387
845.253	23284
845.389	23265
845.525	23296
845.661	23337
845.798	23132
845.934	23322
846.07	23151
846.206	23208
846.342	23174
846.478	23242
846.614	22896
846.75	22877
846.886	22968
847.022	22949
847.158	22900
847.294	22915
847.429	22831
847.565	22835
847.701	23246
847.837	22542
847.972	22557
848.108	22687
848.244	22626
848.379	22443
848.515	22500
848.65	22550
848.786	22455
848.921	22527
849.057	22557
849.192	22481
849.328	22512
849.463	22394
849.598	22436
849.734	22371
849.869	22375
850.004	22097
850.14	22253
850.275	22105
850.41	22101
850.545	22090
850.68	22166
850.815	22246
850.95	22185
851.085	22310
851.22	22325
851.355	22139
851.49	22120
851.625	22074
851.76	22249
851.895	22036
852.03	22070
852.165	22131
852.299	22337
852.434	22166
852.569	22219
852.703	22090
852.838	22093
852.973	22253
853.107	22226
853.242	22128
853.376	22116
853.511	21816
853.645	21960
853.78	22177
853.914	21968
854.048	21846
854.183	21960
854.317	21808
854.451	22067
854.585	21964
854.72	22021
854.854	22067
854.988	21854
855.122	21972
855.256	21823
855.39	22032
855.524	21987
855.658	21911
855.792	22010
855.926	21884
856.06	22070
856.194	22074
856.327	22135
856.461	22055
856.595	21842
856.729	21854
856.862	22029
856.996	21998
857.13	22082
857.263	22207
857.397	21968
857.53	21915
857.664	22002
857.797	22021
857.931	22013
858.064	22055
858.197	22032
858.331	21964
858.464	21880
858.597	21831
858.731	21937
858.864	21941
858.997	21827
859.13	21918
859.263	22029
859.396	22013
859.529	21789
859.662	21819
859.795	21941
859.928	22063
860.061	22010
860.194	22105
860.327	21956
860.46	21895
860.592	22021
860.725	22055
860.858	22090
860.99	21915
861.123	21861
861.256	21934
861.388	21903
861.521	22679
861.653	21835
861.786	21766
861.918	21785
862.05	21785
862.183	21857
862.315	22093
862.447	21934
862.58	22017
862.712	21724
862.844	21629
862.976	21572
863.108	21701
863.24	21968
863.372	21553
863.504	21637
863.636	21485
863.768	21648
863.9	21648
864.032	21614
864.164	21595
864.296	21751
864.428	21694
864.559	21701
864.691	21770
864.823	21637
864.954	21603
865.086	21625
865.217	21481
865.349	21477
865.48	21450
865.612	21542
865.743	21629
865.875	21443
866.006	21359
866.137	21557
866.269	21507
866.4	21523
866.531	21477
866.662	21260
866.793	21386
866.924	21496
867.055	21408
867.186	21386
867.317	21374
867.448	21367
867.579	21378
867.71	21306
867.841	21370
867.972	21317
868.103	21313
868.233	21412
868.364	21298
868.495	21462
868.625	21564
868.756	21724
868.886	21545
869.017	21564
869.147	21694
869.278	21755
869.408	21698
869.539	21709
869.669	21804
869.799	21797
869.929	21747
870.06	21698
870.19	21972
870.32	22013
870.45	22017
870.58	22021
870.71	22109
870.84	22124
870.97	22025
871.1	22006
871.23	22268
871.36	22242
871.489	22063
871.619	22284
871.749	22154
871.879	22314
872.008	22417
872.138	22226
872.267	22268
872.397	22067
872.526	22017
872.656	22188
872.785	22257
872.915	22291
873.044	22424
873.173	22352
873.303	22276
873.432	22291
873.561	22367
873.69	22329
873.819	22295
873.948	22291
874.077	22234
874.206	22242
874.335	22314
874.464	22379
874.593	22500
874.722	22459
874.851	22489
874.979	22485
875.108	22653
875.237	22428
875.365	22440
875.494	22504
875.623	22500
875.751	22436
875.88	22508
876.008	22622
876.136	22736
876.265	22782
876.393	23067
876.521	23025
876.65	22930
876.778	22843
876.906	22881
877.034	22755
877.162	22847
877.29	22843
877.418	22896
877.546	22763
877.674	22812
877.802	22877
877.93	22820
878.058	22835
878.185	22615
878.313	22725
878.441	22854
878.568	22618
878.696	22752
878.824	22843
878.951	22828
879.079	23033
879.206	23147
879.333	23056
879.461	22892
879.588	22942
879.715	23083
879.842	23014
879.97	22915
880.097	22607
880.224	22679
880.351	22755
880.478	22744
880.605	22698
880.732	22641
880.859	22847
880.986	22626
881.112	22729
881.239	22637
881.366	22481
881.493	22329
881.619	22291
881.746	22147
881.872	22211
881.999	22139
882.125	22166
882.252	22226
882.378	22261
882.505	22356
882.631	21926
882.757	21884
882.883	22063
883.01	21949
883.136	21873
883.262	21926
883.388	21842
883.514	21975
883.64	21926
883.766	21922
883.892	21606
884.018	21751
884.143	21728
884.269	22021
884.395	21462
884.52	21568
884.646	21526
884.772	21530
884.897	21496
885.023	21606
885.148	21637
885.274	21648
885.399	21625
885.524	21526
885.65	21606
885.775	21576
885.9	21443
886.025	21675
886.15	21610
886.275	21583
886.4	21523
886.525	21564
886.65	21386
886.775	21416
886.9	21564
887.025	21747
887.149	21519
887.274	21370
887.399	21287
887.523	21291
887.648	21256
887.773	21226
887.897	21405
888.021	21195
888.146	21332
888.27	21420
888.395	21367
888.519	21264
888.643	21332
888.767	21340
888.891	21249
889.015	21005
889.139	21093
889.263	21100
889.387	21123
889.511	21272
889.635	21157
889.759	21013
889.883	21074
890.006	21089
890.13	21085
890.254	20982
890.377	20937
890.501	20834
890.624	20727
890.748	20872
890.871	20769
890.995	20621
891.118	20564
891.241	20663
891.364	20617
891.488	20724
891.611	20659
891.734	20724
891.857	20724
891.98	20689
892.103	20648
892.226	20629
892.349	20621
892.471	20461
892.594	20549
892.717	20598
892.839	20632
892.962	20556
893.085	20590
893.207	20488
893.33	20370
893.452	20530
893.575	20602
893.697	20594
893.819	20758
893.941	20754
894.064	20697
894.186	20503
894.308	20408
894.43	20549
894.552	20686
894.674	20689
894.796	20499
894.918	20549
895.04	20465
895.161	20514
895.283	20564
895.405	20438
895.526	20507
895.648	20450
895.769	20533
895.891	20400
896.012	20617
896.134	20590
896.255	20579
896.376	20583
896.498	20503
896.619	20636
896.74	20488
896.861	20629
896.982	20861
897.103	21028
897.224	20838
897.345	20762
897.466	20785
897.587	20834
897.708	20883
897.828	20731
897.949	20750
898.07	20617
898.19	20838
898.311	20800
898.431	20712
898.552	20750
898.672	20880
898.792	20670
898.913	20754
899.033	20651
899.153	20522
899.273	20393
899.393	20446
899.513	20560
899.633	20408
899.753	20457
899.873	20450
899.993	20533
900.113	20541
900.232	20549
900.352	20431
900.472	20218
900.591	20172
900.711	20347
900.83	20225
900.95	20374
901.069	20343
901.189	20107
901.308	19978
901.427	19662
901.546	19841
901.665	19883
901.784	19818
901.904	19689
902.023	19605
902.141	19464
902.26	19392
902.379	19377
902.498	19202
902.617	19304
902.735	19312
902.854	19259
902.973	19221
903.091	18932
903.21	18920
903.328	18932
903.446	18863
903.565	18772
903.683	18806
903.801	18787
903.919	18627
904.038	18692
904.156	18506
904.274	18585
904.392	18483
904.51	18437
904.627	18509
904.745	18540
904.863	18551
904.981	18315
905.098	18194
905.216	18201
905.334	18262
905.451	18216
905.569	18232
905.686	18311
905.803	18155
905.921	17969
906.038	18190
906.155	18015
906.272	17939
906.389	17897
906.506	17805
906.623	17653
906.74	17665
906.857	17573
906.974	17646
907.091	17771
907.208	17946
907.324	17733
907.441	17771
907.557	17417
907.674	17406
907.79	17315
907.907	17478
908.023	17493
908.139	17307
908.256	17353
908.372	17303
908.488	17261
908.604	17079
908.72	17147
908.836	17174
908.952	17155
909.068	17147
909.184	17254
909.3	17155
909.415	17113
909.531	17094
909.647	16847
909.762	16869
909.878	16752
909.993	16736
910.108	16725
910.224	16828
910.339	16763
910.454	16706
910.57	16596
910.685	16455
910.8	16892
910.915	16729
911.03	16584
911.145	16500
911.259	16310
911.374	16375
911.489	16329
911.604	16246
911.718	16101
911.833	16124
911.947	16128
912.062	16036
912.176	16116
912.291	16211
912.405	16246
912.519	16360
912.633	16253
912.748	16166
912.862	16131
912.976	15907
913.09	15808
913.204	15892
913.318	15918
913.431	16025
913.545	16048
913.659	16040
913.772	15899
913.886	15789
914	15671
914.113	15720
914.226	15922
914.34	15827
914.453	15622
914.566	15800
914.68	15580
914.793	15545
914.906	15336
915.019	15329
915.132	15310
915.245	15279
915.358	15481
915.47	15462
915.583	15363
915.696	15378
915.809	15401
915.921	15382
916.034	15329
916.146	15317
916.259	15203
916.371	15355
916.483	15275
916.595	15127
916.708	15188
916.82	15173
916.932	15104
917.044	15142
917.156	15039
917.268	14990
917.38	15009
917.491	14941
917.603	14971
917.715	14975
917.826	15165
917.938	14933
918.049	14838
918.161	14906
918.272	15028
918.384	15036
918.495	14948
918.606	14796
918.717	14598
918.828	14758
918.939	14830
919.05	14564
919.161	14648
919.272	14446
919.383	14533
919.494	14739
919.604	14910
919.715	14826
919.826	14564
919.936	14636
920.047	14708
920.157	14701
920.267	14811
920.378	14716
920.488	14571
920.598	14853
920.708	14979
920.818	14834
920.928	14823
921.038	14826
921.148	14952
921.258	14587
921.368	14446
921.477	14370
921.587	14343
921.697	14286
921.806	14438
921.916	14278
922.025	14161
922.134	13982
922.244	13955
922.353	14145
922.462	13947
922.571	13833
922.68	13742
922.789	13681
922.898	13670
923.007	13666
923.116	13636
923.224	13670
923.333	13655
923.442	13457
923.55	13483
923.659	13441
923.767	13472
923.876	13411
923.984	13559
924.092	13400
924.201	13411
924.309	13362
924.417	13362
924.525	13240
924.633	13335
924.741	14301
924.849	13137
924.956	13331
925.064	13088
925.172	12977
925.279	13012
925.387	13088
925.494	13103
925.602	13164
925.709	13217
925.816	12977
925.924	13053
926.031	13004
926.138	12981
926.245	13152
926.352	12901
926.459	13118
926.566	13095
926.673	12916
926.779	12871
926.886	12730
926.993	12578
927.099	12627
927.206	12563
927.312	12646
927.419	12604
927.525	12677
927.631	12726
927.737	12490
927.843	12490
927.95	12308
928.056	12407
928.162	12437
928.267	12517
928.373	13095
928.479	12570
928.585	12289
928.69	12296
928.796	12456
928.901	12353
929.007	12102
929.112	12201
929.218	12266
929.323	12292
929.428	12133
929.533	12308
929.638	12076
929.743	12034
929.848	12148
929.953	12167
930.058	12041
930.163	11866
930.267	11870
930.372	12007
930.477	11783
930.581	12034
930.685	11798
930.79	11707
930.894	11748
930.998	11596
931.103	11828
931.207	11474
931.311	11341
931.415	11280
931.519	11121
931.623	11067
