Data from test_V78500241_3433.txt Node
Date: Fri Mar 25 16:05:35 CST 2022
User: usil
Spectrometer: V785-0024
Trigger mode: 0
Integration Time (sec): 4.000000E-1
Scans to average: 1
Nonlinearity correction enabled: false
Boxcar width: 0
Storing dark spectrum: false
XAxis mode: Wavelengths
Number of Pixels in Spectrum: 1024
>>>>>Begin Spectral Data<<<<<
801.071	28683
801.214	28470
801.356	28325
801.499	28432
801.641	28344
801.783	28291
801.926	28310
802.068	28291
802.211	28303
802.353	28074
802.496	27934
802.638	27895
802.78	27937
802.923	27911
803.065	27873
803.208	27892
803.35	27850
803.492	28105
803.635	28036
803.777	27994
803.919	28097
804.061	28500
804.204	28093
804.346	27956
804.488	28029
804.63	28044
804.773	28010
804.915	28204
805.057	28299
805.199	28093
805.341	28230
805.483	28310
805.626	28276
805.768	28112
805.91	28295
806.052	28424
806.194	28318
806.336	28386
806.478	28272
806.62	28299
806.762	28360
806.904	28710
807.046	28816
807.188	28675
807.33	28778
807.472	28752
807.614	28653
807.756	28793
807.898	28607
808.04	28531
808.182	28622
808.324	28763
808.465	28615
808.607	28763
808.749	29003
808.891	29102
809.033	29166
809.174	29052
809.316	29003
809.458	29083
809.6	28866
809.741	28984
809.883	29235
810.025	29337
810.166	29360
810.308	29277
810.45	29216
810.591	29159
810.733	29102
810.875	28869
811.016	28953
811.158	28797
811.299	29166
811.441	29113
811.582	29204
811.724	29079
811.865	28972
812.007	29052
812.148	28976
812.29	29121
812.431	29254
812.573	29448
812.714	29478
812.855	29520
812.997	29653
813.138	29832
813.279	29718
813.421	29516
813.562	29440
813.703	29284
813.845	29193
813.986	28938
814.127	28888
814.268	28721
814.41	28793
814.551	28615
814.692	28797
814.833	28668
814.974	28672
815.115	28668
815.256	28580
815.397	28675
815.539	28641
815.68	28504
815.821	28474
815.962	28550
816.103	28672
816.244	28314
816.385	28451
816.526	28219
816.666	28086
816.807	28013
816.948	28059
817.089	28070
817.23	28051
817.371	27983
817.512	28063
817.653	27956
817.793	27994
817.934	28063
818.075	28120
818.216	28040
818.356	28036
818.497	27880
818.638	27816
818.778	27633
818.919	27755
819.06	27899
819.2	27987
819.341	28055
819.481	28051
819.622	28154
819.762	28352
819.903	28219
820.043	28242
820.184	28211
820.324	28143
820.465	28124
820.605	28154
820.746	28158
820.886	28116
821.026	28162
821.167	28192
821.307	28158
821.447	28063
821.588	27953
821.728	27747
821.868	27724
822.008	27549
822.149	27637
822.289	27633
822.429	27214
822.569	27176
822.709	27218
822.849	27024
822.99	26998
823.13	27013
823.27	26876
823.41	26921
823.55	26693
823.69	26960
823.83	26739
823.97	26785
824.11	26625
824.25	26590
824.389	26621
824.529	26731
824.669	26667
824.809	26670
824.949	26701
825.089	26765
825.228	26689
825.368	26590
825.508	26545
825.648	26640
825.787	26442
825.927	26568
826.067	26564
826.206	26613
826.346	26556
826.485	26579
826.625	26511
826.765	26682
826.904	26503
827.044	26248
827.183	26389
827.323	26157
827.462	26336
827.601	26275
827.741	26362
827.88	26362
828.02	26259
828.159	26244
828.298	26282
828.437	26355
828.577	26191
828.716	26305
828.855	26100
828.994	25974
829.134	26107
829.273	25978
829.412	25841
829.551	25936
829.69	25871
829.829	26020
829.968	26039
830.107	26008
830.246	25966
830.385	25917
830.524	25887
830.663	25719
830.802	25651
830.941	25518
831.08	25613
831.219	25582
831.357	25734
831.496	25803
831.635	25514
831.774	25514
831.913	25529
832.051	25384
832.19	25213
832.329	25270
832.467	25206
832.606	25213
832.744	25156
832.883	25297
833.022	25209
833.16	25187
833.299	25259
833.437	25289
833.576	25350
833.714	25324
833.852	25346
833.991	25297
834.129	25415
834.267	25289
834.406	25251
834.544	25263
834.682	25411
834.821	25285
834.959	25491
835.097	25209
835.235	25289
835.373	25225
835.511	25266
835.65	25221
835.788	25179
835.926	25012
836.064	24837
836.202	24970
836.34	25069
836.478	25148
836.615	25164
836.753	25175
836.891	25148
837.029	25187
837.167	25171
837.305	25015
837.443	25099
837.58	24981
837.718	24981
837.856	24875
837.993	24901
838.131	25042
838.269	24817
838.406	24878
838.544	24844
838.681	24665
838.819	24620
838.956	24388
839.094	24486
839.231	24505
839.369	24722
839.506	24817
839.643	24601
839.781	24410
839.918	24251
840.055	24357
840.193	24369
840.33	24323
840.467	24270
840.604	24308
840.742	24566
840.879	24300
841.016	24304
841.153	24289
841.29	24448
841.427	24319
841.564	24418
841.701	24247
841.838	24258
841.975	24136
842.112	24194
842.249	24171
842.385	24117
842.522	24319
842.659	24148
842.796	24106
842.933	24095
843.069	24076
843.206	23984
843.343	24243
843.479	24095
843.616	24057
843.752	23897
843.889	23764
844.025	23973
844.162	23802
844.298	23904
844.435	23931
844.571	23942
844.708	23897
844.844	24030
844.98	23969
845.117	23920
845.253	23699
845.389	23657
845.525	23737
845.661	23646
845.798	23543
845.934	23649
846.07	23528
846.206	23707
846.342	23630
846.478	23528
846.614	23372
846.75	23269
846.886	23474
847.022	23406
847.158	23223
847.294	23204
847.429	23448
847.565	23349
847.701	23604
847.837	22995
847.972	23124
848.108	23124
848.244	23174
848.379	22938
848.515	22957
848.65	22965
848.786	22911
848.921	23010
849.057	22850
849.192	23010
849.328	23025
849.463	22957
849.598	22759
849.734	22740
849.869	22809
850.004	22706
850.14	22668
850.275	22691
850.41	22675
850.545	22557
850.68	22569
850.815	22771
850.95	22637
851.085	22778
851.22	22755
851.355	22687
851.49	22637
851.625	22649
851.76	22687
851.895	22641
852.03	22672
852.165	22740
852.299	22748
852.434	22713
852.569	22611
852.703	22626
852.838	22645
852.973	22824
853.107	22816
853.242	22774
853.376	22577
853.511	22462
853.645	22443
853.78	22478
853.914	22546
854.048	22402
854.183	22504
854.317	22546
854.451	22763
854.585	22554
854.72	22557
854.854	22596
854.988	22470
855.122	22417
855.256	22379
855.39	22538
855.524	22588
855.658	22565
855.792	22622
855.926	22363
856.06	22436
856.194	22485
856.327	22424
856.461	22375
856.595	22386
856.729	22451
856.862	22664
856.996	22622
857.13	22500
857.263	22474
857.397	22577
857.53	22474
857.664	22523
857.797	22538
857.931	22527
858.064	22573
858.197	22451
858.331	22421
858.464	22379
858.597	22424
858.731	22478
858.864	22451
858.997	22394
859.13	22535
859.263	22474
859.396	22523
859.529	22512
859.662	22462
859.795	22538
859.928	22535
860.061	22687
860.194	22702
860.327	22538
860.46	22546
860.592	22519
860.725	22550
860.858	22561
860.99	22538
861.123	22516
861.256	22322
861.388	22470
861.521	23242
861.653	22329
861.786	22337
861.918	22356
862.05	22405
862.183	22344
862.315	22421
862.447	22573
862.58	22382
862.712	22219
862.844	22200
862.976	22215
863.108	22291
863.24	22527
863.372	22215
863.504	22181
863.636	22230
863.768	22219
863.9	22223
864.032	22261
864.164	22131
864.296	22314
864.428	22211
864.559	22242
864.691	22238
864.823	22265
864.954	22253
865.086	22150
865.217	22124
865.349	21880
865.48	22059
865.612	22002
865.743	22204
865.875	22082
866.006	21949
866.137	22036
866.269	22029
866.4	22074
866.531	21934
866.662	22025
866.793	22055
866.924	22086
867.055	22078
867.186	22029
867.317	21911
867.448	21884
867.579	21975
867.71	21850
867.841	22006
867.972	22048
868.103	22055
868.233	22048
868.364	21922
868.495	22017
868.625	22238
868.756	22390
868.886	22265
869.017	22249
869.147	22363
869.278	22318
869.408	22318
869.539	22234
869.669	22390
869.799	22242
869.929	22455
870.06	22367
870.19	22512
870.32	22424
870.45	22622
870.58	22672
870.71	22755
870.84	22748
870.97	22656
871.1	22717
871.23	22725
871.36	22877
871.489	22687
871.619	22820
871.749	22854
871.879	22927
872.008	22934
872.138	22934
872.267	22809
872.397	22820
872.526	22664
872.656	22778
872.785	22622
872.915	22866
873.044	22911
873.173	22869
873.303	22915
873.432	22866
873.561	23033
873.69	22961
873.819	22793
873.948	23048
874.077	22843
874.206	22828
874.335	22980
874.464	23022
874.593	22972
874.722	23060
874.851	23155
874.979	23277
875.108	23067
875.237	23102
875.365	22976
875.494	23029
875.623	23140
875.751	23117
875.88	23086
876.008	23303
876.136	23216
876.265	23455
876.393	23585
876.521	23452
876.65	23608
876.778	23421
876.906	23433
877.034	23440
877.162	23425
877.29	23528
877.418	23493
877.546	23474
877.674	23356
877.802	23535
877.93	23356
878.058	23433
878.185	23353
878.313	23379
878.441	23322
878.568	23269
878.696	23345
878.824	23482
878.951	23642
879.079	23680
879.206	23824
879.333	23710
879.461	23512
879.588	23524
879.715	23577
879.842	23668
879.97	23524
880.097	23254
880.224	23147
880.351	23429
880.478	23242
880.605	23239
880.732	23250
880.859	23486
880.986	23166
881.112	23155
881.239	23052
881.366	22999
881.493	22877
881.619	22736
881.746	22774
881.872	22729
881.999	22637
882.125	22687
882.252	22828
882.378	22831
882.505	22771
882.631	22649
882.757	22603
882.883	22557
883.01	22455
883.136	22478
883.262	22234
883.388	22424
883.514	22493
883.64	22481
883.766	22413
883.892	22173
884.018	22261
884.143	22519
884.269	22447
884.395	22257
884.52	22048
884.646	22185
884.772	22032
884.897	21972
885.023	22090
885.148	22219
885.274	22386
885.399	22322
885.524	22131
885.65	22150
885.775	22013
885.9	22188
886.025	22109
886.15	22223
886.275	22006
886.4	21964
886.525	22120
886.65	22040
886.775	22032
886.9	22230
887.025	22261
887.149	22040
887.274	21903
887.399	21880
887.523	21918
887.648	21778
887.773	21838
887.897	21930
888.021	21755
888.146	21759
888.27	22082
888.395	22006
888.519	21831
888.643	21937
888.767	21979
888.891	21751
889.015	21656
889.139	21857
889.263	21625
889.387	21819
889.511	21793
889.635	21747
889.759	21557
889.883	21606
890.006	21762
890.13	21713
890.254	21587
890.377	21629
890.501	21370
890.624	21363
890.748	21545
890.871	21241
890.995	21207
891.118	21135
891.241	21199
891.364	21268
891.488	21389
891.611	21344
891.734	21237
891.857	21302
891.98	21260
892.103	21249
892.226	21135
892.349	21123
892.471	20906
892.594	21112
892.717	21310
892.839	21074
892.962	21032
893.085	21275
893.207	21093
893.33	21055
893.452	20948
893.575	21291
893.697	21039
893.819	21245
893.941	21332
894.064	21237
894.186	21074
894.308	20986
894.43	21203
894.552	21313
894.674	21108
894.796	20990
894.918	21127
895.04	20998
895.161	21108
895.283	21279
895.405	21005
895.526	21154
895.648	21085
895.769	21085
895.891	21199
896.012	21165
896.134	21192
896.255	21112
896.376	21123
896.498	21108
896.619	21112
896.74	21013
896.861	21142
896.982	21351
897.103	21606
897.224	21363
897.345	21344
897.466	21081
897.587	21233
897.708	21351
897.828	21283
897.949	21310
898.07	21096
898.19	21123
898.311	21382
898.431	21085
898.552	21340
898.672	21374
898.792	21424
898.913	21294
899.033	21146
899.153	21127
899.273	20979
899.393	21119
899.513	21039
899.633	20925
899.753	21085
899.873	20891
899.993	21055
900.113	20941
900.232	21104
900.352	20830
900.472	20864
900.591	20914
900.711	20815
900.83	20758
900.95	20967
901.069	20823
901.189	20644
901.308	20415
901.427	20202
901.546	20347
901.665	20488
901.784	20362
901.904	20286
902.023	20183
902.141	19906
902.26	19906
902.379	19913
902.498	19833
902.617	19795
902.735	19791
902.854	19879
902.973	19883
903.091	19487
903.21	19666
903.328	19540
903.446	19373
903.565	19263
903.683	19331
903.801	19236
903.919	19289
904.038	19213
904.156	19168
904.274	19099
904.392	19107
904.51	19042
904.627	18985
904.745	19164
904.863	19095
904.981	18886
905.098	18696
905.216	18764
905.334	18768
905.451	18719
905.569	18730
905.686	18882
905.803	18734
905.921	18601
906.038	18494
906.155	18471
906.272	18460
906.389	18513
906.506	18273
906.623	18308
906.74	18239
906.857	18216
906.974	18110
907.091	18315
907.208	18452
907.324	18247
907.441	18216
907.557	18060
907.674	17958
907.79	17939
907.907	17863
908.023	18011
908.139	18068
908.256	18019
908.372	17927
908.488	17870
908.604	17779
908.72	17638
908.836	17760
908.952	17623
909.068	17665
909.184	17779
909.3	17619
909.415	17771
909.531	17760
909.647	17383
909.762	17448
909.878	17326
909.993	17376
910.108	17322
910.224	17288
910.339	17421
910.454	17280
910.57	17079
910.685	17090
910.8	17402
910.915	17254
911.03	17231
911.145	16965
911.259	16961
911.374	16927
911.489	16919
911.604	16824
911.718	16752
911.833	16782
911.947	16580
912.062	16508
912.176	16668
912.291	16691
912.405	16683
912.519	16968
912.633	16927
912.748	16771
912.862	16577
912.976	16542
913.09	16474
913.204	16554
913.318	16485
913.431	16615
913.545	16554
913.659	16660
913.772	16481
913.886	16284
914	16291
914.113	16417
914.226	16386
914.34	16356
914.453	16147
914.566	16303
914.68	16162
914.793	16063
914.906	16032
915.019	15918
915.132	15755
915.245	15953
915.358	15861
915.47	16036
915.583	15960
915.696	15819
915.809	15865
915.921	15968
916.034	15831
916.146	15709
916.259	15823
916.371	15857
916.483	15838
916.595	15656
916.708	15736
916.82	15698
916.932	15603
917.044	15675
917.156	15595
917.268	15515
917.38	15587
917.491	15485
917.603	15618
917.715	15576
917.826	15500
917.938	15462
918.049	15367
918.161	15469
918.272	15606
918.384	15504
918.495	15462
918.606	15291
918.717	15176
918.828	15176
918.939	15283
919.05	15135
919.161	15199
919.272	15039
919.383	15074
919.494	15256
919.604	15374
919.715	15291
919.826	15093
919.936	15150
920.047	15199
920.157	15104
920.267	15317
920.378	15169
920.488	15169
920.598	15355
920.708	15450
920.818	15329
920.928	15203
921.038	15450
921.148	15420
921.258	15097
921.368	15005
921.477	14891
921.587	14872
921.697	14754
921.806	14960
921.916	14804
922.025	14640
922.134	14560
922.244	14503
922.353	14537
922.462	14461
922.571	14358
922.68	14259
922.789	14161
922.898	14225
923.007	14142
923.116	14191
923.224	14187
923.333	14096
923.442	14100
923.55	14058
923.659	14039
923.767	14084
923.876	13955
923.984	13993
924.092	13944
924.201	13921
924.309	13871
924.417	13932
924.525	13913
924.633	13841
924.741	14773
924.849	13567
924.956	13753
925.064	13655
925.172	13609
925.279	13544
925.387	13499
925.494	13514
925.602	13662
925.709	13708
925.816	13369
925.924	13415
926.031	13483
926.138	13506
926.245	13510
926.352	13407
926.459	13594
926.566	13506
926.673	13441
926.779	13308
926.886	13263
926.993	13160
927.099	13095
927.206	13118
927.312	13038
927.419	13095
927.525	13080
927.631	13061
927.737	13012
927.843	13091
927.95	12821
928.056	12939
928.162	12875
928.267	13019
928.373	13613
928.479	13023
928.585	12764
928.69	12802
928.796	12939
928.901	12787
929.007	12593
929.112	12654
929.218	12787
929.323	12627
929.428	12642
929.533	12703
929.638	12566
929.743	12608
929.848	12566
929.953	12506
930.058	12494
930.163	12300
930.267	12361
930.372	12410
930.477	12232
930.581	12559
930.685	12350
930.79	12057
930.894	12281
930.998	12144
931.103	12251
931.207	11992
931.311	11836
931.415	11843
931.519	11539
931.623	11600
