Data from test_V78500241_2245.txt Node
Date: Fri Mar 25 15:57:21 CST 2022
User: usil
Spectrometer: V785-0024
Trigger mode: 0
Integration Time (sec): 4.000000E-1
Scans to average: 1
Nonlinearity correction enabled: false
Boxcar width: 0
Storing dark spectrum: false
XAxis mode: Wavelengths
Number of Pixels in Spectrum: 1024
>>>>>Begin Spectral Data<<<<<
801.071	28828
801.214	28736
801.356	28478
801.499	28459
801.641	28478
801.783	28417
801.926	28535
802.068	28386
802.211	28318
802.353	28249
802.496	28044
802.638	28150
802.78	28128
802.923	27968
803.065	27953
803.208	28029
803.35	28249
803.492	28344
803.635	28287
803.777	28253
803.919	28375
804.061	28675
804.204	28459
804.346	28303
804.488	28257
804.63	28322
804.773	28246
804.915	28504
805.057	28360
805.199	28329
805.341	28405
805.483	28550
805.626	28436
805.768	28348
805.91	28485
806.052	28462
806.194	28409
806.336	28565
806.478	28622
806.62	28401
806.762	28618
806.904	28854
807.046	28995
807.188	28854
807.33	29090
807.472	28976
807.614	28923
807.756	28858
807.898	28774
808.04	28717
808.182	28835
808.324	28911
808.465	28790
808.607	29140
808.749	29155
808.891	29162
809.033	29326
809.174	29383
809.316	29239
809.458	29128
809.6	29022
809.741	29311
809.883	29349
810.025	29429
810.166	29478
810.308	29547
810.45	29429
810.591	29398
810.733	29124
810.875	29356
811.016	29041
811.158	29174
811.299	29231
811.441	29307
811.582	29337
811.724	29174
811.865	29223
812.007	29170
812.148	29296
812.29	29181
812.431	29349
812.573	29608
812.714	29718
812.855	29775
812.997	29764
813.138	29992
813.279	29828
813.421	29771
813.562	29657
813.703	29604
813.845	29436
813.986	29216
814.127	29033
814.268	28987
814.41	28854
814.551	29010
814.692	29022
814.833	28911
814.974	28862
815.115	28919
815.256	28786
815.397	28740
815.539	28733
815.68	28683
815.821	28687
815.962	28637
816.103	28675
816.244	28649
816.385	28382
816.526	28474
816.666	28287
816.807	28181
816.948	28253
817.089	28265
817.23	28257
817.371	28390
817.512	28253
817.653	28207
817.793	28090
817.934	28109
818.075	28265
818.216	28173
818.356	28109
818.497	28154
818.638	28002
818.778	27983
818.919	27994
819.06	27979
819.2	28162
819.341	28131
819.481	28078
819.622	28447
819.762	28569
819.903	28421
820.043	28401
820.184	28188
820.324	28287
820.465	28428
820.605	28280
820.746	28382
820.886	28238
821.026	28226
821.167	28390
821.307	28344
821.447	28265
821.588	28185
821.728	28032
821.868	27888
822.008	27739
822.149	27690
822.289	27739
822.429	27443
822.569	27481
822.709	27443
822.849	27119
822.99	27245
823.13	27195
823.27	27272
823.41	27043
823.55	26952
823.69	27100
823.83	26914
823.97	27062
824.11	26815
824.25	26823
824.389	26861
824.529	26853
824.669	26777
824.809	26998
824.949	26910
825.089	26990
825.228	26899
825.368	26670
825.508	26663
825.648	26712
825.787	26830
825.927	26796
826.067	26724
826.206	26545
826.346	26724
826.485	26834
826.625	26594
826.765	26743
826.904	26883
827.044	26476
827.183	26499
827.323	26438
827.462	26693
827.601	26469
827.741	26408
827.88	26575
828.02	26256
828.159	26552
828.298	26492
828.437	26484
828.577	26385
828.716	26629
828.855	26465
828.994	26126
829.134	26142
829.273	26164
829.412	26081
829.551	26153
829.69	26122
829.829	26092
829.968	26153
830.107	26248
830.246	26008
830.385	26149
830.524	26187
830.663	25928
830.802	25852
830.941	25723
831.08	25666
831.219	25742
831.357	25727
831.496	25986
831.635	25742
831.774	25605
831.913	25632
832.051	25552
832.19	25495
832.329	25518
832.467	25502
832.606	25377
832.744	25354
832.883	25521
833.022	25362
833.16	25422
833.299	25495
833.437	25441
833.576	25426
833.714	25445
833.852	25476
833.991	25567
834.129	25514
834.267	25616
834.406	25365
834.544	25445
834.682	25479
834.821	25422
834.959	25597
835.097	25457
835.235	25529
835.373	25438
835.511	25514
835.65	25312
835.788	25339
835.926	25114
836.064	25202
836.202	25114
836.34	25232
836.478	25285
836.615	25251
836.753	25289
836.891	25247
837.029	25244
837.167	25148
837.305	25095
837.443	25148
837.58	25080
837.718	25183
837.856	25065
837.993	25080
838.131	25008
838.269	24871
838.406	24913
838.544	24947
838.681	24688
838.819	24791
838.956	24616
839.094	24513
839.231	24635
839.369	24703
839.506	25095
839.643	24875
839.781	24646
839.918	24540
840.055	24513
840.193	24456
840.33	24357
840.467	24372
840.604	24471
840.742	24867
840.879	24205
841.016	24315
841.153	24475
841.29	24502
841.427	24494
841.564	24509
841.701	24376
841.838	24407
841.975	24441
842.112	24505
842.249	24296
842.385	24213
842.522	24551
842.659	24391
842.796	24300
842.933	24281
843.069	24098
843.206	24232
843.343	24289
843.479	24220
843.616	24353
843.752	24022
843.889	24022
844.025	23996
844.162	24007
844.298	24125
844.435	23935
844.571	23843
844.708	24079
844.844	24125
844.98	24235
845.117	24106
845.253	23885
845.389	23908
845.525	23729
845.661	23783
845.798	23653
845.934	23817
846.07	23790
846.206	23783
846.342	23672
846.478	23707
846.614	23376
846.75	23398
846.886	23455
847.022	23543
847.158	23482
847.294	23528
847.429	23376
847.565	23398
847.701	23665
847.837	23227
847.972	23113
848.108	23235
848.244	23246
848.379	23121
848.515	23014
848.65	23128
848.786	22995
848.921	23136
849.057	23200
849.192	23105
849.328	22965
849.463	22965
849.598	22991
849.734	23048
849.869	22927
850.004	22771
850.14	22877
850.275	22953
850.41	22782
850.545	22656
850.68	22831
850.815	22839
850.95	22938
851.085	22949
851.22	23006
851.355	22824
851.49	22831
851.625	22710
851.76	22915
851.895	22752
852.03	22782
852.165	22801
852.299	22866
852.434	22812
852.569	22767
852.703	22755
852.838	22927
852.973	22892
853.107	22850
853.242	22763
853.376	22626
853.511	22607
853.645	22580
853.78	22656
853.914	22691
854.048	22573
854.183	22596
854.317	22561
854.451	22843
854.585	22733
854.72	22569
854.854	22668
854.988	22546
855.122	22637
855.256	22504
855.39	22603
855.524	22687
855.658	22721
855.792	22698
855.926	22542
856.06	22698
856.194	22710
856.327	22557
856.461	22679
856.595	22508
856.729	22531
856.862	22767
856.996	22767
857.13	22824
857.263	22656
857.397	22740
857.53	22580
857.664	22630
857.797	22630
857.931	22835
858.064	22710
858.197	22748
858.331	22550
858.464	22535
858.597	22577
858.731	22611
858.864	22615
858.997	22622
859.13	22649
859.263	22561
859.396	22588
859.529	22626
859.662	22584
859.795	22485
859.928	22500
860.061	22771
860.194	22782
860.327	22812
860.46	22816
860.592	22809
860.725	22858
860.858	22725
860.99	22653
861.123	22634
861.256	22656
861.388	22634
861.521	23414
861.653	22554
861.786	22466
861.918	22481
862.05	22569
862.183	22592
862.315	22550
862.447	22603
862.58	22538
862.712	22337
862.844	22375
862.976	22440
863.108	22310
863.24	22793
863.372	22272
863.504	22257
863.636	22314
863.768	22367
863.9	22303
864.032	22238
864.164	22306
864.296	22428
864.428	22405
864.559	22325
864.691	22489
864.823	22337
864.954	22287
865.086	22181
865.217	22344
865.349	22204
865.48	22204
865.612	22200
865.743	22421
865.875	22139
866.006	22215
866.137	22280
866.269	22204
866.4	22230
866.531	22188
866.662	22078
866.793	22169
866.924	22192
867.055	22147
867.186	21983
867.317	22143
867.448	22029
867.579	21991
867.71	22029
867.841	22040
867.972	22181
868.103	22128
868.233	22139
868.364	22128
868.495	22265
868.625	22485
868.756	22493
868.886	22363
869.017	22428
869.147	22417
869.278	22531
869.408	22379
869.539	22409
869.669	22447
869.799	22360
869.929	22504
870.06	22485
870.19	22691
870.32	22527
870.45	22706
870.58	22828
870.71	22858
870.84	22892
870.97	22706
871.1	22816
871.23	23033
871.36	22881
871.489	22828
871.619	22885
871.749	22972
871.879	22965
872.008	23098
872.138	22976
872.267	23067
872.397	22889
872.526	22698
872.656	22942
872.785	22892
872.915	22957
873.044	23102
873.173	23033
873.303	23124
873.432	23067
873.561	23136
873.69	23033
873.819	23037
873.948	23060
874.077	22972
874.206	22930
874.335	23048
874.464	22987
874.593	23155
874.722	23189
874.851	23288
874.979	23178
875.108	23204
875.237	23124
875.365	23003
875.494	23208
875.623	23334
875.751	23166
875.88	23159
876.008	23356
876.136	23436
876.265	23745
876.393	23699
876.521	23653
876.65	23687
876.778	23642
876.906	23608
877.034	23524
877.162	23592
877.29	23391
877.418	23547
877.546	23539
877.674	23509
877.802	23554
877.93	23604
878.058	23512
878.185	23429
878.313	23520
878.441	23516
878.568	23368
878.696	23436
878.824	23535
878.951	23497
879.079	23657
879.206	23874
879.333	23703
879.461	23490
879.588	23665
879.715	23710
879.842	23901
879.97	23573
880.097	23436
880.224	23398
880.351	23520
880.478	23227
880.605	23436
880.732	23326
880.859	23566
880.986	23337
881.112	23387
881.239	23334
881.366	23143
881.493	23044
881.619	22858
881.746	22904
881.872	22812
881.999	22850
882.125	22778
882.252	22911
882.378	22889
882.505	22847
882.631	22816
882.757	22653
882.883	22630
883.01	22523
883.136	22615
883.262	22557
883.388	22462
883.514	22634
883.64	22554
883.766	22542
883.892	22261
884.018	22413
884.143	22493
884.269	22668
884.395	22295
884.52	22242
884.646	22150
884.772	22154
884.897	22013
885.023	22284
885.148	22185
885.274	22375
885.399	22318
885.524	22287
885.65	22265
885.775	22169
885.9	22295
886.025	22261
886.15	22291
886.275	22200
886.4	22029
886.525	22169
886.65	22101
886.775	22101
886.9	22291
887.025	22360
887.149	21956
887.274	22093
887.399	21964
887.523	21934
887.648	21857
887.773	21838
887.897	22093
888.021	22063
888.146	21949
888.27	22021
888.395	22017
888.519	22032
888.643	22036
888.767	21941
888.891	21880
889.015	21679
889.139	21869
889.263	21880
889.387	21827
889.511	21812
889.635	21800
889.759	21785
889.883	21732
890.006	21759
890.13	21819
890.254	21755
890.377	21717
890.501	21481
890.624	21443
890.748	21450
890.871	21526
890.995	21222
891.118	21252
891.241	21321
891.364	21321
891.488	21443
891.611	21211
891.734	21207
891.857	21317
891.98	21329
892.103	21424
892.226	21336
892.349	21188
892.471	21119
892.594	21154
892.717	21135
892.839	21237
892.962	21355
893.085	21378
893.207	21199
893.33	21108
893.452	21043
893.575	21367
893.697	21161
893.819	21272
893.941	21504
894.064	21211
894.186	21055
894.308	21135
894.43	21317
894.552	21268
894.674	21233
894.796	21123
894.918	21298
895.04	21142
895.161	21173
895.283	21291
895.405	21112
895.526	21184
895.648	21077
895.769	21104
895.891	21245
896.012	21226
896.134	21173
896.255	21176
896.376	21051
896.498	21214
896.619	21317
896.74	21138
896.861	21222
896.982	21412
897.103	21637
897.224	21496
897.345	21397
897.466	21256
897.587	21363
897.708	21344
897.828	21397
897.949	21241
898.07	21142
898.19	21207
898.311	21477
898.431	21264
898.552	21481
898.672	21405
898.792	21454
898.913	21488
899.033	21268
899.153	21180
899.273	21047
899.393	21096
899.513	21070
899.633	21142
899.753	21123
899.873	21100
899.993	21211
900.113	20986
900.232	21028
900.352	20910
900.472	21001
900.591	20815
900.711	20910
900.83	20868
900.95	20876
901.069	20971
901.189	20651
901.308	20579
901.427	20393
901.546	20465
901.665	20495
901.784	20450
901.904	20256
902.023	20218
902.141	20005
902.26	19982
902.379	20103
902.498	19921
902.617	19902
902.735	19967
902.854	19894
902.973	19864
903.091	19639
903.21	19575
903.328	19643
903.446	19518
903.565	19392
903.683	19457
903.801	19274
903.919	19346
904.038	19381
904.156	19190
904.274	19266
904.392	19156
904.51	19103
904.627	19133
904.745	19240
904.863	19114
904.981	18943
905.098	18837
905.216	18802
905.334	18810
905.451	18764
905.569	18730
905.686	18901
905.803	18810
905.921	18673
906.038	18642
906.155	18700
906.272	18494
906.389	18521
906.506	18338
906.623	18361
906.74	18509
906.857	18197
906.974	18224
907.091	18418
907.208	18464
907.324	18376
907.441	18148
907.557	18026
907.674	18091
907.79	17988
907.907	18057
908.023	18045
908.139	18125
908.256	17935
908.372	17939
908.488	17901
908.604	17798
908.72	17783
908.836	17855
908.952	17718
909.068	17581
909.184	17836
909.3	17790
909.415	17764
909.531	17619
909.647	17440
909.762	17520
909.878	17448
909.993	17410
910.108	17406
910.224	17448
910.339	17406
910.454	17204
910.57	17246
910.685	17235
910.8	17410
910.915	17379
911.03	17406
911.145	17064
911.259	17006
911.374	17045
911.489	16911
911.604	16965
911.718	16831
911.833	16858
911.947	16752
912.062	16641
912.176	16786
912.291	16771
912.405	16721
912.519	16957
912.633	17041
912.748	16843
912.862	16847
912.976	16611
913.09	16424
913.204	16440
913.318	16645
913.431	16679
913.545	16538
913.659	16660
913.772	16466
913.886	16337
914	16344
914.113	16440
914.226	16512
914.34	16432
914.453	16360
914.566	16402
914.68	16120
914.793	16207
914.906	16051
915.019	15926
915.132	15953
915.245	16029
915.358	15918
915.47	15968
915.583	15983
915.696	15972
915.809	16044
915.921	15934
916.034	15800
916.146	15861
916.259	15819
916.371	16006
916.483	15998
916.595	15739
916.708	15842
916.82	15770
916.932	15781
917.044	15614
917.156	15739
917.268	15545
917.38	15629
917.491	15523
917.603	15682
917.715	15595
917.826	15648
917.938	15530
918.049	15340
918.161	15523
918.272	15686
918.384	15538
918.495	15496
918.606	15416
918.717	15116
918.828	15237
918.939	15279
919.05	15310
919.161	15325
919.272	15074
919.383	15203
919.494	15336
919.604	15473
919.715	15233
919.826	15127
919.936	15279
920.047	15389
920.157	15165
920.267	15401
920.378	15268
920.488	15298
920.598	15389
920.708	15492
920.818	15412
920.928	15412
921.038	15576
921.148	15545
921.258	15184
921.368	15085
921.477	14994
921.587	14960
921.697	14819
921.806	15020
921.916	14804
922.025	14541
922.134	14636
922.244	14556
922.353	14659
922.462	14495
922.571	14412
922.68	14305
922.789	14282
922.898	14267
923.007	14191
923.116	14275
923.224	14278
923.333	14225
923.442	14012
923.55	14054
923.659	14043
923.767	14115
923.876	14035
923.984	14073
924.092	13974
924.201	13997
924.309	14046
924.417	13997
924.525	13849
924.633	13894
924.741	14716
924.849	13670
924.956	13784
925.064	13639
925.172	13525
925.279	13594
925.387	13677
925.494	13567
925.602	13795
925.709	13616
925.816	13563
925.924	13578
926.031	13658
926.138	13487
926.245	13552
926.352	13480
926.459	13552
926.566	13674
926.673	13537
926.779	13373
926.886	13369
926.993	13175
927.099	13145
927.206	13107
927.312	13179
927.419	13145
927.525	13168
927.631	13179
927.737	13061
927.843	12989
927.95	12932
928.056	13091
928.162	12966
928.267	12973
928.373	13628
928.479	13027
928.585	12859
928.69	12962
928.796	12939
928.901	12856
929.007	12703
929.112	12848
929.218	12791
929.323	12741
929.428	12635
929.533	12814
929.638	12631
929.743	12631
929.848	12700
929.953	12623
930.058	12593
930.163	12361
930.267	12300
930.372	12517
930.477	12285
930.581	12517
930.685	12353
930.79	12167
930.894	12197
930.998	12262
931.103	12376
931.207	11965
931.311	11939
931.415	11794
931.519	11562
931.623	11668
