Data from test_V78500241_1114.txt Node
Date: Fri Mar 25 15:49:31 CST 2022
User: usil
Spectrometer: V785-0024
Trigger mode: 0
Integration Time (sec): 4.000000E-1
Scans to average: 1
Nonlinearity correction enabled: false
Boxcar width: 0
Storing dark spectrum: false
XAxis mode: Wavelengths
Number of Pixels in Spectrum: 1024
>>>>>Begin Spectral Data<<<<<
801.071	28626
801.214	28596
801.356	28432
801.499	28276
801.641	28185
801.783	28051
801.926	28173
802.068	28246
802.211	27987
802.353	28078
802.496	27903
802.638	27838
802.78	27854
802.923	27850
803.065	27724
803.208	27781
803.35	27918
803.492	27975
803.635	27907
803.777	27914
803.919	28128
804.061	28333
804.204	28147
804.346	28040
804.488	27945
804.63	28093
804.773	27968
804.915	28196
805.057	28124
805.199	27998
805.341	27994
805.483	28268
805.626	28299
805.768	28105
805.91	28276
806.052	28303
806.194	28131
806.336	28443
806.478	28268
806.62	28325
806.762	28299
806.904	28489
807.046	28759
807.188	28729
807.33	28660
807.472	28820
807.614	28763
807.756	28672
807.898	28694
808.04	28523
808.182	28538
808.324	28603
808.465	28649
808.607	28759
808.749	28877
808.891	29022
809.033	29079
809.174	29025
809.316	28904
809.458	28908
809.6	28778
809.741	29052
809.883	29151
810.025	29220
810.166	29197
810.308	29185
810.45	29197
810.591	29181
810.733	29079
810.875	28904
811.016	28923
811.158	28862
811.299	29117
811.441	29071
811.582	29174
811.724	28946
811.865	28923
812.007	28953
812.148	29170
812.29	28923
812.431	29079
812.573	29356
812.714	29501
812.855	29512
812.997	29737
813.138	29680
813.279	29551
813.421	29493
813.562	29429
813.703	29250
813.845	29277
813.986	29029
814.127	28854
814.268	28782
814.41	28710
814.551	28577
814.692	28835
814.833	28626
814.974	28569
815.115	28694
815.256	28504
815.397	28466
815.539	28382
815.68	28481
815.821	28478
815.962	28375
816.103	28519
816.244	28428
816.385	28329
816.526	28249
816.666	28120
816.807	27926
816.948	27983
817.089	28166
817.23	28048
817.371	27899
817.512	27979
817.653	28025
817.793	28013
817.934	28139
818.075	28090
818.216	28109
818.356	27800
818.497	27873
818.638	27759
818.778	27648
818.919	27823
819.06	27759
819.2	27876
819.341	28055
819.481	27991
819.622	28158
819.762	28363
819.903	28242
820.043	28234
820.184	28257
820.324	28169
820.465	28268
820.605	28211
820.746	28246
820.886	28070
821.026	28131
821.167	28093
821.307	28181
821.447	28059
821.588	28032
821.728	27724
821.868	27660
822.008	27507
822.149	27367
822.289	27447
822.429	27397
822.569	27161
822.709	27108
822.849	27100
822.99	27032
823.13	26956
823.27	26982
823.41	26830
823.55	26670
823.69	26883
823.83	26929
823.97	26796
824.11	26537
824.25	26514
824.389	26598
824.529	26625
824.669	26682
824.809	26883
824.949	26731
825.089	26868
825.228	26724
825.368	26503
825.508	26533
825.648	26453
825.787	26678
825.927	26590
826.067	26377
826.206	26590
826.346	26503
826.485	26617
826.625	26473
826.765	26674
826.904	26465
827.044	26301
827.183	26366
827.323	26298
827.462	26362
827.601	26309
827.741	26142
827.88	26351
828.02	26073
828.159	26225
828.298	26065
828.437	26259
828.577	26180
828.716	26172
828.855	26229
828.994	25932
829.134	25982
829.273	25902
829.412	25993
829.551	25875
829.69	25989
829.829	26069
829.968	26024
830.107	25932
830.246	25974
830.385	25959
830.524	25864
830.663	25830
830.802	25655
830.941	25525
831.08	25548
831.219	25567
831.357	25613
831.496	25795
831.635	25457
831.774	25544
831.913	25449
832.051	25476
832.19	25228
832.329	25445
832.467	25274
832.606	25099
832.744	25217
832.883	25183
833.022	25228
833.16	25263
833.299	25179
833.437	25274
833.576	25266
833.714	25274
833.852	25304
833.991	25282
834.129	25301
834.267	25403
834.406	25171
834.544	25392
834.682	25263
834.821	25293
834.959	25320
835.097	25251
835.235	25362
835.373	25247
835.511	25247
835.65	25118
835.788	25080
835.926	25057
836.064	24848
836.202	24958
836.34	25133
836.478	25179
836.615	25031
836.753	25065
836.891	25145
837.029	24977
837.167	25084
837.305	24939
837.443	24913
837.58	24886
837.718	25042
837.856	24909
837.993	24886
838.131	24909
838.269	24719
838.406	24916
838.544	24654
838.681	24559
838.819	24547
838.956	24338
839.094	24315
839.231	24460
839.369	24467
839.506	24753
839.643	24555
839.781	24380
839.918	24452
840.055	24433
840.193	24346
840.33	24376
840.467	24372
840.604	24395
840.742	24589
840.879	24174
841.016	24304
841.153	24235
841.29	24365
841.427	24407
841.564	24281
841.701	24262
841.838	24163
841.975	24216
842.112	24194
842.249	24068
842.385	23984
842.522	24273
842.659	24266
842.796	24133
842.933	24022
843.069	23992
843.206	23901
843.343	24041
843.479	23912
843.616	23996
843.752	23859
843.889	23840
844.025	23946
844.162	23851
844.298	23897
844.435	23908
844.571	23756
844.708	23874
844.844	24030
844.98	23885
845.117	23798
845.253	23687
845.389	23729
845.525	23714
845.661	23661
845.798	23543
845.934	23608
846.07	23592
846.206	23680
846.342	23630
846.478	23478
846.614	23395
846.75	23147
846.886	23136
847.022	23433
847.158	23269
847.294	23337
847.429	23376
847.565	23280
847.701	23551
847.837	22991
847.972	22953
848.108	23044
848.244	22999
848.379	22942
848.515	22869
848.65	22843
848.786	22866
848.921	22866
849.057	23044
849.192	23014
849.328	22961
849.463	22831
849.598	22748
849.734	22721
849.869	22634
850.004	22744
850.14	22664
850.275	22607
850.41	22577
850.545	22504
850.68	22630
850.815	22675
850.95	22603
851.085	22702
851.22	22706
851.355	22603
851.49	22668
851.625	22626
851.76	22546
851.895	22580
852.03	22611
852.165	22611
852.299	22683
852.434	22672
852.569	22584
852.703	22550
852.838	22683
852.973	22603
853.107	22885
853.242	22565
853.376	22447
853.511	22341
853.645	22447
853.78	22569
853.914	22436
854.048	22280
854.183	22356
854.317	22356
854.451	22615
854.585	22447
854.72	22329
854.854	22535
854.988	22451
855.122	22424
855.256	22424
855.39	22398
855.524	22580
855.658	22497
855.792	22382
855.926	22379
856.06	22382
856.194	22626
856.327	22470
856.461	22405
856.595	22443
856.729	22348
856.862	22432
856.996	22474
857.13	22588
857.263	22618
857.397	22531
857.53	22325
857.664	22417
857.797	22500
857.931	22584
858.064	22478
858.197	22565
858.331	22394
858.464	22485
858.597	22295
858.731	22504
858.864	22287
858.997	22485
859.13	22432
859.263	22356
859.396	22550
859.529	22363
859.662	22447
859.795	22352
859.928	22489
860.061	22550
860.194	22618
860.327	22394
860.46	22542
860.592	22413
860.725	22580
860.858	22550
860.99	22405
861.123	22352
861.256	22341
861.388	22493
861.521	23216
861.653	22322
861.786	22223
861.918	22219
862.05	22185
862.183	22356
862.315	22344
862.447	22344
862.58	22348
862.712	22150
862.844	22185
862.976	22067
863.108	22238
863.24	22744
863.372	22032
863.504	22101
863.636	22116
863.768	22158
863.9	22226
864.032	22234
864.164	22051
864.296	22173
864.428	22124
864.559	22226
864.691	22135
864.823	22124
864.954	22112
865.086	22078
865.217	21998
865.349	21892
865.48	22063
865.612	22010
865.743	22162
865.875	22036
866.006	22048
866.137	22055
866.269	21975
866.4	21956
866.531	21991
866.662	21964
866.793	21937
866.924	21956
867.055	22070
867.186	22006
867.317	21975
867.448	21789
867.579	21835
867.71	21800
867.841	21911
867.972	21911
868.103	21964
868.233	21819
868.364	21964
868.495	22017
868.625	22211
868.756	22230
868.886	22055
869.017	22105
869.147	22295
869.278	22398
869.408	22181
869.539	22196
869.669	22348
869.799	22265
869.929	22417
870.06	22295
870.19	22478
870.32	22402
870.45	22508
870.58	22573
870.71	22736
870.84	22527
870.97	22519
871.1	22531
871.23	22694
871.36	22824
871.489	22740
871.619	22748
871.749	22725
871.879	22839
872.008	22919
872.138	22710
872.267	22847
872.397	22713
872.526	22626
872.656	22630
872.785	22603
872.915	22904
873.044	22889
873.173	22797
873.303	22778
873.432	22862
873.561	22881
873.69	22831
873.819	22850
873.948	22889
874.077	22873
874.206	22793
874.335	22660
874.464	22923
874.593	23071
874.722	22942
874.851	22949
874.979	23083
875.108	23056
875.237	22987
875.365	22828
875.494	23052
875.623	23094
875.751	22946
875.88	22980
876.008	23155
876.136	23056
876.265	23410
876.393	23539
876.521	23448
876.65	23463
876.778	23436
876.906	23315
877.034	23364
877.162	23376
877.29	23200
877.418	23258
877.546	23387
877.674	23436
877.802	23345
877.93	23337
878.058	23395
878.185	23170
878.313	23284
878.441	23261
878.568	23117
878.696	23212
878.824	23299
878.951	23467
879.079	23589
879.206	23676
879.333	23592
879.461	23265
879.588	23501
879.715	23501
879.842	23665
879.97	23345
880.097	23212
880.224	23102
880.351	23181
880.478	23181
880.605	23166
880.732	23223
880.859	23337
880.986	23273
881.112	23083
881.239	23052
881.366	22877
881.493	22801
881.619	22767
881.746	22713
881.872	22824
881.999	22637
882.125	22656
882.252	22698
882.378	22767
882.505	22748
882.631	22630
882.757	22535
882.883	22432
883.01	22379
883.136	22424
883.262	22295
883.388	22116
883.514	22318
883.64	22375
883.766	22268
883.892	22093
884.018	22234
884.143	22318
884.269	22409
884.395	22055
884.52	22101
884.646	22067
884.772	21941
884.897	21941
885.023	22086
885.148	22162
885.274	22230
885.399	22128
885.524	22044
885.65	22029
885.775	22025
885.9	22048
886.025	22116
886.15	22105
886.275	21964
886.4	21911
886.525	22097
886.65	21964
886.775	21968
886.9	22078
887.025	22226
887.149	21922
887.274	21854
887.399	21717
887.523	21846
887.648	21751
887.773	21736
887.897	21800
888.021	21819
888.146	21747
888.27	21880
888.395	21903
888.519	21804
888.643	21808
888.767	21892
888.891	21797
889.015	21770
889.139	21561
889.263	21576
889.387	21629
889.511	21778
889.635	21633
889.759	21599
889.883	21538
890.006	21542
890.13	21625
890.254	21500
890.377	21412
890.501	21454
890.624	21264
890.748	21283
890.871	21203
890.995	21127
891.118	21294
891.241	21062
891.364	21131
891.488	21291
891.611	21203
891.734	21192
891.857	21161
891.98	21138
892.103	21176
892.226	21093
892.349	21036
892.471	20986
892.594	21005
892.717	20990
892.839	21077
892.962	21077
893.085	21138
893.207	20967
893.33	20849
893.452	20864
893.575	21085
893.697	20971
893.819	21138
893.941	21161
894.064	21150
894.186	20998
894.308	20895
894.43	21192
894.552	21142
894.674	21005
894.796	20861
894.918	21009
895.04	20899
895.161	21100
895.283	21142
895.405	20902
895.526	20990
895.648	20960
895.769	20982
895.891	21005
896.012	21028
896.134	21089
896.255	21055
896.376	20933
896.498	20971
896.619	21032
896.74	20960
896.861	21184
896.982	21348
897.103	21443
897.224	21237
897.345	21195
897.466	21180
897.587	21157
897.708	21348
897.828	21287
897.949	21245
898.07	21039
898.19	21104
898.311	21230
898.431	21211
898.552	21169
898.672	21222
898.792	21306
898.913	21294
899.033	21062
899.153	21028
899.273	20914
899.393	20937
899.513	20994
899.633	20887
899.753	20963
899.873	20948
899.993	21009
900.113	20811
900.232	20826
900.352	20895
900.472	20781
900.591	20549
900.711	20746
900.83	20648
900.95	20758
901.069	20777
901.189	20617
901.308	20343
901.427	20320
901.546	20229
901.665	20385
901.784	20282
901.904	20119
902.023	20024
902.141	19868
902.26	19788
902.379	19955
902.498	19731
902.617	19788
902.735	19837
902.854	19738
902.973	19670
903.091	19407
903.21	19377
903.328	19346
903.446	19384
903.565	19274
903.683	19236
903.801	19133
903.919	19244
904.038	19168
904.156	19042
904.274	19133
904.392	19065
904.51	18973
904.627	19023
904.745	18989
904.863	19012
904.981	18837
905.098	18684
905.216	18601
905.334	18738
905.451	18696
905.569	18620
905.686	18608
905.803	18779
905.921	18460
906.038	18570
906.155	18525
906.272	18296
906.389	18315
906.506	18213
906.623	18235
906.74	18205
906.857	18125
906.974	18121
907.091	18273
907.208	18243
907.324	18247
907.441	18053
907.557	17878
907.674	17897
907.79	17828
907.907	17889
908.023	17836
908.139	17889
908.256	17946
908.372	17843
908.488	17710
908.604	17668
908.72	17497
908.836	17783
908.952	17490
909.068	17661
909.184	17809
909.3	17532
909.415	17592
909.531	17634
909.647	17376
909.762	17326
909.878	17284
909.993	17280
910.108	17368
910.224	17299
910.339	17353
910.454	17086
910.57	17159
910.685	17022
910.8	17296
910.915	17280
911.03	17117
911.145	17037
911.259	16976
911.374	16904
911.489	16843
911.604	16660
911.718	16630
911.833	16717
911.947	16523
912.062	16519
912.176	16656
912.291	16755
912.405	16611
912.519	16877
912.633	16744
912.748	16618
912.862	16603
912.976	16436
913.09	16219
913.204	16398
913.318	16565
913.431	16615
913.545	16577
913.659	16402
913.772	16436
913.886	16295
914	16238
914.113	16325
914.226	16417
914.34	16314
914.453	16017
914.566	16211
914.68	16169
914.793	16124
914.906	15911
915.019	15846
915.132	15766
915.245	15736
915.358	15785
915.47	15819
915.583	15835
915.696	15785
915.809	15895
915.921	15972
916.034	15759
916.146	15728
916.259	15633
916.371	15816
916.483	15709
916.595	15656
916.708	15709
916.82	15644
916.932	15622
917.044	15614
917.156	15488
917.268	15462
917.38	15485
917.491	15447
917.603	15431
917.715	15576
917.826	15572
917.938	15351
918.049	15230
918.161	15367
918.272	15542
918.384	15523
918.495	15405
918.606	15329
918.717	15138
918.828	15188
918.939	15199
919.05	15116
919.161	15161
919.272	14975
919.383	15055
919.494	15112
919.604	15370
919.715	15123
919.826	15020
919.936	15077
920.047	15104
920.157	15085
920.267	15199
920.378	15203
920.488	15127
920.598	15249
920.708	15367
920.818	15336
920.928	15252
921.038	15458
921.148	15370
921.258	15161
921.368	14971
921.477	14929
921.587	14842
921.697	14807
921.806	14899
921.916	14686
922.025	14686
922.134	14484
922.244	14434
922.353	14484
922.462	14423
922.571	14324
922.68	14153
922.789	14138
922.898	14214
923.007	14103
923.116	14081
923.224	14016
923.333	14103
923.442	14016
923.55	13932
923.659	13921
923.767	14039
923.876	13879
923.984	13967
924.092	13837
924.201	13875
924.309	13845
924.417	13864
924.525	13738
924.633	13727
924.741	14629
924.849	13597
924.956	13727
925.064	13590
925.172	13377
925.279	13464
925.387	13632
925.494	13514
925.602	13647
925.709	13563
925.816	13422
925.924	13312
926.031	13609
926.138	13460
926.245	13464
926.352	13354
926.459	13434
926.566	13499
926.673	13441
926.779	13316
926.886	13228
926.993	13187
927.099	13122
927.206	13069
927.312	13023
927.419	13088
927.525	13019
927.631	13069
927.737	12939
927.843	12966
927.95	12817
928.056	12916
928.162	12829
928.267	12924
928.373	13415
928.479	13015
928.585	12707
928.69	12859
928.796	12894
928.901	12772
929.007	12604
929.112	12658
929.218	12650
929.323	12639
929.428	12578
929.533	12707
929.638	12467
929.743	12521
929.848	12544
929.953	12635
930.058	12448
930.163	12155
930.267	12243
930.372	12388
930.477	12159
930.581	12403
930.685	12235
930.79	12072
930.894	12304
930.998	12098
931.103	12201
931.207	11961
931.311	11779
931.415	11661
931.519	11474
931.623	11528
