Data from test_V78500241_1959.txt Node
Date: Fri Mar 25 15:55:22 CST 2022
User: usil
Spectrometer: V785-0024
Trigger mode: 0
Integration Time (sec): 4.000000E-1
Scans to average: 1
Nonlinearity correction enabled: false
Boxcar width: 0
Storing dark spectrum: false
XAxis mode: Wavelengths
Number of Pixels in Spectrum: 1024
>>>>>Begin Spectral Data<<<<<
801.071	28546
801.214	28611
801.356	28401
801.499	28238
801.641	28139
801.783	28147
801.926	28200
802.068	28303
802.211	28120
802.353	28017
802.496	27907
802.638	27808
802.78	27930
802.923	27751
803.065	27766
803.208	27835
803.35	27922
803.492	28048
803.635	28093
803.777	27968
803.919	28284
804.061	28440
804.204	28147
804.346	28044
804.488	27972
804.63	28147
804.773	27949
804.915	28314
805.057	28219
805.199	28215
805.341	28265
805.483	28234
805.626	28238
805.768	28211
805.91	28295
806.052	28204
806.194	28200
806.336	28504
806.478	28280
806.62	28299
806.762	28550
806.904	28611
807.046	28778
807.188	28858
807.33	28729
807.472	28866
807.614	28721
807.756	28702
807.898	28542
808.04	28565
808.182	28546
808.324	28573
808.465	28565
808.607	28847
808.749	28729
808.891	29025
809.033	29181
809.174	29086
809.316	28938
809.458	29052
809.6	28987
809.741	28991
809.883	29075
810.025	29029
810.166	29265
810.308	29379
810.45	29128
810.591	29296
810.733	28919
810.875	28866
811.016	28892
811.158	29022
811.299	28949
811.441	29102
811.582	29067
811.724	29003
811.865	28946
812.007	28923
812.148	29079
812.29	29010
812.431	29041
812.573	29318
812.714	29368
812.855	29448
812.997	29554
813.138	29668
813.279	29646
813.421	29478
813.562	29372
813.703	29471
813.845	29254
813.986	28854
814.127	28778
814.268	28656
814.41	28733
814.551	28672
814.692	28641
814.833	28702
814.974	28588
815.115	28721
815.256	28481
815.397	28516
815.539	28588
815.68	28561
815.821	28394
815.962	28550
816.103	28668
816.244	28360
816.385	28337
816.526	28181
816.666	28044
816.807	28032
816.948	28025
817.089	28013
817.23	28032
817.371	27926
817.512	27941
817.653	27812
817.793	27869
817.934	27994
818.075	27838
818.216	28063
818.356	27949
818.497	27895
818.638	27709
818.778	27812
818.919	27873
819.06	27770
819.2	27937
819.341	28090
819.481	28109
819.622	28154
819.762	28318
819.903	28249
820.043	28310
820.184	28185
820.324	28188
820.465	28078
820.605	28128
820.746	28063
820.886	27949
821.026	28105
821.167	28109
821.307	28070
821.447	28128
821.588	27827
821.728	27732
821.868	27648
822.008	27519
822.149	27500
822.289	27492
822.429	27313
822.569	27188
822.709	27146
822.849	26998
822.99	27009
823.13	26792
823.27	26845
823.41	26765
823.55	26765
823.69	26891
823.83	26754
823.97	26750
824.11	26560
824.25	26609
824.389	26568
824.529	26667
824.669	26629
824.809	26640
824.949	26552
825.089	26773
825.228	26834
825.368	26495
825.508	26465
825.648	26530
825.787	26545
825.927	26594
826.067	26503
826.206	26549
826.346	26492
826.485	26621
826.625	26571
826.765	26648
826.904	26587
827.044	26252
827.183	26271
827.323	26267
827.462	26309
827.601	26252
827.741	26202
827.88	26252
828.02	26191
828.159	26218
828.298	26218
828.437	26423
828.577	26119
828.716	26195
828.855	26054
828.994	25799
829.134	26043
829.273	26100
829.412	25917
829.551	25871
829.69	25879
829.829	25928
829.968	25947
830.107	25879
830.246	25928
830.385	25772
830.524	25814
830.663	25738
830.802	25518
830.941	25468
831.08	25468
831.219	25624
831.357	25552
831.496	25784
831.635	25430
831.774	25441
831.913	25297
832.051	25403
832.19	25221
832.329	25133
832.467	25114
832.606	25190
832.744	25126
832.883	25278
833.022	25206
833.16	25255
833.299	25236
833.437	25171
833.576	25320
833.714	25270
833.852	25343
833.991	25232
834.129	25403
834.267	25179
834.406	25183
834.544	25164
834.682	25190
834.821	25255
834.959	25438
835.097	25202
835.235	25225
835.373	25240
835.511	25110
835.65	24977
835.788	25034
835.926	24962
836.064	24806
836.202	24856
836.34	25069
836.478	25046
836.615	24939
836.753	24947
836.891	25080
837.029	25080
837.167	25069
837.305	24909
837.443	25088
837.58	24821
837.718	24973
837.856	24909
837.993	24776
838.131	24848
838.269	24734
838.406	24734
838.544	24681
838.681	24528
838.819	24502
838.956	24395
839.094	24357
839.231	24346
839.369	24513
839.506	24764
839.643	24597
839.781	24300
839.918	24467
840.055	24426
840.193	24361
840.33	24232
840.467	24353
840.604	24422
840.742	24635
840.879	24182
841.016	24228
841.153	24182
841.29	24300
841.427	24262
841.564	24407
841.701	24201
841.838	24251
841.975	24148
842.112	24285
842.249	24133
842.385	24163
842.522	24254
842.659	24076
842.796	23973
842.933	24117
843.069	24003
843.206	23912
843.343	24076
843.479	23950
843.616	24095
843.752	23817
843.889	23786
844.025	23893
844.162	23680
844.298	23874
844.435	23775
844.571	23672
844.708	23714
844.844	23969
844.98	23901
845.117	23904
845.253	23752
845.389	23623
845.525	23687
845.661	23615
845.798	23425
845.934	23558
846.07	23501
846.206	23524
846.342	23714
846.478	23436
846.614	23349
846.75	23235
846.886	23178
847.022	23220
847.158	23334
847.294	23227
847.429	23242
847.565	23174
847.701	23520
847.837	22972
847.972	22900
848.108	22953
848.244	23033
848.379	22824
848.515	22725
848.65	22839
848.786	22729
848.921	22710
849.057	22873
849.192	22900
849.328	22877
849.463	22847
849.598	22778
849.734	22630
849.869	22656
850.004	22637
850.14	22767
850.275	22672
850.41	22615
850.545	22447
850.68	22557
850.815	22565
850.95	22398
851.085	22706
851.22	22793
851.355	22538
851.49	22653
851.625	22626
851.76	22618
851.895	22546
852.03	22535
852.165	22580
852.299	22656
852.434	22618
852.569	22546
852.703	22489
852.838	22679
852.973	22691
853.107	22736
853.242	22580
853.376	22462
853.511	22352
853.645	22360
853.78	22413
853.914	22436
854.048	22382
854.183	22440
854.317	22485
854.451	22626
854.585	22344
854.72	22295
854.854	22497
854.988	22386
855.122	22333
855.256	22116
855.39	22329
855.524	22508
855.658	22390
855.792	22398
855.926	22436
856.06	22390
856.194	22615
856.327	22360
856.461	22462
856.595	22409
856.729	22204
856.862	22546
856.996	22402
857.13	22493
857.263	22592
857.397	22478
857.53	22375
857.664	22432
857.797	22535
857.931	22497
858.064	22432
858.197	22634
858.331	22440
858.464	22382
858.597	22230
858.731	22379
858.864	22440
858.997	22337
859.13	22424
859.263	22504
859.396	22599
859.529	22382
859.662	22356
859.795	22284
859.928	22432
860.061	22596
860.194	22694
860.327	22500
860.46	22497
860.592	22417
860.725	22569
860.858	22451
860.99	22512
861.123	22261
861.256	22306
861.388	22333
861.521	23124
861.653	22348
861.786	22310
861.918	22215
862.05	22276
862.183	22322
862.315	22299
862.447	22356
862.58	22249
862.712	22120
862.844	22051
862.976	22063
863.108	22120
863.24	22611
863.372	22128
863.504	22013
863.636	22093
863.768	22223
863.9	22226
864.032	22070
864.164	22196
864.296	22029
864.428	22219
864.559	22162
864.691	22253
864.823	22105
864.954	22063
865.086	22044
865.217	22059
865.349	21960
865.48	22002
865.612	21915
865.743	22002
865.875	22021
866.006	21861
866.137	21941
866.269	22040
866.4	22040
866.531	21956
866.662	21892
866.793	21892
866.924	21953
867.055	21850
867.186	22029
867.317	21987
867.448	21785
867.579	21899
867.71	21728
867.841	21774
867.972	21930
868.103	21823
868.233	21899
868.364	21892
868.495	21964
868.625	22268
868.756	22226
868.886	22055
869.017	21994
869.147	22249
869.278	22268
869.408	22181
869.539	22002
869.669	22333
869.799	22078
869.929	22303
870.06	22276
870.19	22421
870.32	22443
870.45	22344
870.58	22580
870.71	22702
870.84	22664
870.97	22508
871.1	22451
871.23	22889
871.36	22668
871.489	22516
871.619	22706
871.749	22717
871.879	22839
872.008	22824
872.138	22835
872.267	22793
872.397	22645
872.526	22569
872.656	22592
872.785	22519
872.915	22672
873.044	22900
873.173	22752
873.303	22900
873.432	22831
873.561	22736
873.69	22847
873.819	22729
873.948	22698
874.077	22896
874.206	22752
874.335	22824
874.464	22938
874.593	23109
874.722	22961
874.851	23041
874.979	23117
875.108	22900
875.237	22900
875.365	22759
875.494	22946
875.623	22965
875.751	22892
875.88	22900
876.008	23064
876.136	23086
876.265	23398
876.393	23490
876.521	23349
876.65	23482
876.778	23406
876.906	23360
877.034	23395
877.162	23318
877.29	23220
877.418	23299
877.546	23402
877.674	23379
877.802	23330
877.93	23208
878.058	23292
878.185	23277
878.313	23162
878.441	23307
878.568	23174
878.696	23231
878.824	23311
878.951	23284
879.079	23482
879.206	23604
879.333	23436
879.461	23292
879.588	23391
879.715	23482
879.842	23604
879.97	23250
880.097	23273
880.224	23094
880.351	23090
880.478	23223
880.605	23143
880.732	23060
880.859	23349
880.986	23140
881.112	23254
881.239	22927
881.366	22854
881.493	22812
881.619	22694
881.746	22698
881.872	22771
881.999	22717
882.125	22516
882.252	22752
882.378	22763
882.505	22828
882.631	22481
882.757	22462
882.883	22485
883.01	22398
883.136	22295
883.262	22265
883.388	22215
883.514	22379
883.64	22470
883.766	22265
883.892	22238
884.018	22234
884.143	22287
884.269	22386
884.395	22017
884.52	21998
884.646	22063
884.772	22051
884.897	21964
885.023	22044
885.148	22063
885.274	22234
885.399	22010
885.524	21960
885.65	22055
885.775	22013
885.9	21964
886.025	22135
886.15	22082
886.275	21972
886.4	22025
886.525	22025
886.65	21949
886.775	21869
886.9	22166
887.025	22192
887.149	21991
887.274	21812
887.399	21698
887.523	21728
887.648	21698
887.773	21641
887.897	21888
888.021	21736
888.146	21671
888.27	21903
888.395	21816
888.519	21800
888.643	21743
888.767	21838
888.891	21595
889.015	21553
889.139	21580
889.263	21572
889.387	21671
889.511	21865
889.635	21587
889.759	21488
889.883	21583
890.006	21534
890.13	21568
890.254	21576
890.377	21492
890.501	21275
890.624	21264
890.748	21363
890.871	21310
890.995	21112
891.118	20990
891.241	21203
891.364	21131
891.488	21287
891.611	21051
891.734	21123
891.857	21218
891.98	21100
892.103	21077
892.226	21176
892.349	21039
892.471	20914
892.594	21047
892.717	20975
892.839	21051
892.962	21070
893.085	21100
893.207	20868
893.33	20849
893.452	20910
893.575	21074
893.697	20960
893.819	21096
893.941	21176
894.064	21100
894.186	20918
894.308	20979
894.43	21150
894.552	21169
894.674	21112
894.796	20845
894.918	20960
895.04	21096
895.161	21036
895.283	20914
895.405	20834
895.526	20937
895.648	20910
895.769	21066
895.891	21096
896.012	21100
896.134	21066
896.255	21062
896.376	20921
896.498	20872
896.619	21047
896.74	20937
896.861	20982
896.982	21264
897.103	21370
897.224	21226
897.345	21287
897.466	21051
897.587	21188
897.708	21340
897.828	21256
897.949	21108
898.07	21074
898.19	21142
898.311	21218
898.431	21180
898.552	21211
898.672	21321
898.792	21279
898.913	21116
899.033	21211
899.153	21058
899.273	20880
899.393	20910
899.513	20975
899.633	20944
899.753	20952
899.873	20864
899.993	20887
900.113	20948
900.232	20834
900.352	20765
900.472	20777
900.591	20617
900.711	20689
900.83	20720
900.95	20762
901.069	20765
901.189	20648
901.308	20267
901.427	20339
901.546	20221
901.665	20298
901.784	20278
901.904	20134
902.023	20046
902.141	19814
902.26	19849
902.379	19974
902.498	19708
902.617	19662
902.735	19753
902.854	19616
902.973	19597
903.091	19510
903.21	19495
903.328	19346
903.446	19434
903.565	19331
903.683	19255
903.801	19050
903.919	19259
904.038	19232
904.156	19012
904.274	18932
904.392	19061
904.51	18894
904.627	18970
904.745	19012
904.863	19027
904.981	18749
905.098	18642
905.216	18665
905.334	18582
905.451	18585
905.569	18646
905.686	18677
905.803	18658
905.921	18384
906.038	18570
906.155	18471
906.272	18380
906.389	18357
906.506	18330
906.623	18220
906.74	18102
906.857	18041
906.974	18091
907.091	18190
907.208	18186
907.324	18174
907.441	18129
907.557	17874
907.674	17893
907.79	17817
907.907	17843
908.023	17863
908.139	17828
908.256	17828
908.372	17790
908.488	17805
908.604	17691
908.72	17566
908.836	17608
908.952	17642
909.068	17604
909.184	17703
909.3	17551
909.415	17566
909.531	17547
909.647	17376
909.762	17360
909.878	17242
909.993	17315
910.108	17296
910.224	17277
910.339	17261
910.454	17155
910.57	17098
910.685	16984
910.8	17356
910.915	17250
911.03	17105
911.145	16892
911.259	16885
911.374	16858
911.489	16881
911.604	16805
911.718	16588
911.833	16554
911.947	16500
912.062	16538
912.176	16573
912.291	16588
912.405	16618
912.519	16702
912.633	16812
912.748	16649
912.862	16561
912.976	16440
913.09	16325
913.204	16371
913.318	16481
913.431	16599
913.545	16554
913.659	16516
913.772	16390
913.886	16291
914	16188
914.113	16291
914.226	16310
914.34	16360
914.453	16192
914.566	16257
914.68	16158
914.793	15998
914.906	15850
915.019	15755
915.132	15747
915.245	15778
915.358	15861
915.47	15816
915.583	15781
915.696	15785
915.809	15804
915.921	15975
916.034	15675
916.146	15717
916.259	15633
916.371	15724
916.483	15736
916.595	15675
916.708	15648
916.82	15625
916.932	15526
917.044	15523
917.156	15500
917.268	15431
917.38	15443
917.491	15386
917.603	15389
917.715	15473
917.826	15545
917.938	15313
918.049	15260
918.161	15439
918.272	15606
918.384	15523
918.495	15321
918.606	15310
918.717	15146
918.828	15233
918.939	15272
919.05	15070
919.161	15142
919.272	15017
919.383	15017
919.494	15169
919.604	15370
919.715	15112
919.826	15013
919.936	15123
920.047	15199
920.157	15081
920.267	15359
920.378	15055
920.488	15077
920.598	15302
920.708	15374
920.818	15230
920.928	15222
921.038	15435
921.148	15241
921.258	15036
921.368	14994
921.477	14781
921.587	14868
921.697	14735
921.806	14876
921.916	14746
922.025	14549
922.134	14533
922.244	14541
922.353	14552
922.462	14366
922.571	14252
922.68	14077
922.789	14043
922.898	14153
923.007	14077
923.116	14100
923.224	14153
923.333	14050
923.442	13959
923.55	13879
923.659	13982
923.767	14005
923.876	13807
923.984	13936
924.092	13795
924.201	13772
924.309	13780
924.417	13833
924.525	13746
924.633	13761
924.741	14632
924.849	13632
924.956	13693
925.064	13521
925.172	13506
925.279	13559
925.387	13491
925.494	13426
925.602	13605
925.709	13537
925.816	13362
925.924	13419
926.031	13567
926.138	13441
926.245	13419
926.352	13324
926.459	13537
926.566	13483
926.673	13350
926.779	13228
926.886	13278
926.993	13091
927.099	13061
927.206	13004
927.312	13015
927.419	13023
927.525	12977
927.631	13114
927.737	13019
927.843	12909
927.95	12795
928.056	12920
928.162	12875
928.267	12947
928.373	13559
928.479	12882
928.585	12642
928.69	12783
928.796	12886
928.901	12745
929.007	12582
929.112	12711
929.218	12646
929.323	12650
929.428	12486
929.533	12604
929.638	12525
929.743	12506
929.848	12570
929.953	12422
930.058	12308
930.163	12213
930.267	12251
930.372	12407
930.477	12239
930.581	12414
930.685	12273
930.79	12106
930.894	12194
930.998	12011
931.103	12247
931.207	11912
931.311	11802
931.415	11695
931.519	11490
931.623	11463
