Data from test_V78500241_3519.txt Node
Date: Fri Mar 25 16:06:10 CST 2022
User: usil
Spectrometer: V785-0024
Trigger mode: 0
Integration Time (sec): 4.000000E-1
Scans to average: 1
Nonlinearity correction enabled: false
Boxcar width: 0
Storing dark spectrum: false
XAxis mode: Wavelengths
Number of Pixels in Spectrum: 1024
>>>>>Begin Spectral Data<<<<<
801.071	28866
801.214	28755
801.356	28550
801.499	28371
801.641	28386
801.783	28379
801.926	28436
802.068	28405
802.211	28299
802.353	28325
802.496	28261
802.638	28048
802.78	28063
802.923	27979
803.065	27918
803.208	28002
803.35	28036
803.492	28261
803.635	28207
803.777	28398
803.919	28143
804.061	28622
804.204	28432
804.346	28242
804.488	28230
804.63	28341
804.773	28287
804.915	28318
805.057	28451
805.199	28363
805.341	28497
805.483	28455
805.626	28455
805.768	28325
805.91	28561
806.052	28428
806.194	28371
806.336	28592
806.478	28565
806.62	28516
806.762	28660
806.904	28786
807.046	28949
807.188	28869
807.33	28896
807.472	29117
807.614	28793
807.756	28866
807.898	28733
808.04	28702
808.182	28767
808.324	28850
808.465	28915
808.607	28968
808.749	29189
808.891	29364
809.033	29307
809.174	29102
809.316	29208
809.458	29273
809.6	29117
809.741	29296
809.883	29349
810.025	29535
810.166	29486
810.308	29444
810.45	29330
810.591	29410
810.733	29284
810.875	29246
811.016	29159
811.158	29265
811.299	29318
811.441	29429
811.582	29254
811.724	29387
811.865	29197
812.007	29121
812.148	29280
812.29	29200
812.431	29349
812.573	29665
812.714	29570
812.855	29672
812.997	29798
813.138	29904
813.279	29908
813.421	29589
813.562	29714
813.703	29615
813.845	29379
813.986	29159
814.127	29067
814.268	29033
814.41	28923
814.551	29041
814.692	29071
814.833	28763
814.974	28961
815.115	28885
815.256	28763
815.397	28778
815.539	28748
815.68	28801
815.821	28748
815.962	28824
816.103	28717
816.244	28573
816.385	28500
816.526	28573
816.666	28303
816.807	28306
816.948	28253
817.089	28371
817.23	28207
817.371	28325
817.512	28211
817.653	28280
817.793	28226
817.934	28147
818.075	28257
818.216	28375
818.356	28253
818.497	28143
818.638	28093
818.778	28025
818.919	28006
819.06	28036
819.2	28109
819.341	28139
819.481	28192
819.622	28367
819.762	28630
819.903	28481
820.043	28656
820.184	28390
820.324	28306
820.465	28489
820.605	28390
820.746	28223
820.886	28238
821.026	28318
821.167	28443
821.307	28478
821.447	28074
821.588	28230
821.728	28025
821.868	27926
822.008	27762
822.149	27755
822.289	27660
822.429	27450
822.569	27306
822.709	27443
822.849	27317
822.99	27214
823.13	27161
823.27	27024
823.41	27112
823.55	26895
823.69	27207
823.83	27070
823.97	27036
824.11	26838
824.25	26754
824.389	26807
824.529	26910
824.669	26830
824.809	26971
824.949	27089
825.089	26861
825.228	26906
825.368	26655
825.508	26777
825.648	26819
825.787	26883
825.927	26758
826.067	26785
826.206	26708
826.346	26724
826.485	26853
826.625	26845
826.765	26967
826.904	26796
827.044	26514
827.183	26663
827.323	26533
827.462	26560
827.601	26602
827.741	26465
827.88	26564
828.02	26358
828.159	26484
828.298	26552
828.437	26564
828.577	26495
828.716	26575
828.855	26438
828.994	26206
829.134	26199
829.273	26263
829.412	26237
829.551	26229
829.69	26237
829.829	26267
829.968	26210
830.107	26221
830.246	26168
830.385	26244
830.524	26126
830.663	26081
830.802	26031
830.941	25966
831.08	25757
831.219	26008
831.357	25944
831.496	26016
831.635	25719
831.774	25670
831.913	25670
832.051	25578
832.19	25628
832.329	25559
832.467	25502
832.606	25411
832.744	25400
832.883	25540
833.022	25483
833.16	25643
833.299	25609
833.437	25453
833.576	25502
833.714	25563
833.852	25563
833.991	25666
834.129	25765
834.267	25685
834.406	25578
834.544	25738
834.682	25464
834.821	25464
834.959	25791
835.097	25457
835.235	25605
835.373	25495
835.511	25582
835.65	25434
835.788	25426
835.926	25327
836.064	25206
836.202	25228
836.34	25415
836.478	25438
836.615	25354
836.753	25415
836.891	25430
837.029	25445
837.167	25266
837.305	25255
837.443	25164
837.58	25270
837.718	25080
837.856	25187
837.993	25179
838.131	25072
838.269	25050
838.406	25034
838.544	25019
838.681	24833
838.819	24829
838.956	24582
839.094	24688
839.231	24574
839.369	24844
839.506	25190
839.643	24791
839.781	24772
839.918	24513
840.055	24684
840.193	24616
840.33	24388
840.467	24536
840.604	24475
840.742	24829
840.879	24479
841.016	24517
841.153	24410
841.29	24544
841.427	24551
841.564	24490
841.701	24509
841.838	24490
841.975	24486
842.112	24357
842.249	24308
842.385	24315
842.522	24536
842.659	24384
842.796	24441
842.933	24342
843.069	24163
843.206	24338
843.343	24456
843.479	24384
843.616	24330
843.752	24144
843.889	24095
844.025	24277
844.162	23969
844.298	24121
844.435	24068
844.571	24174
844.708	24091
844.844	24228
844.98	24224
845.117	24346
845.253	24136
845.389	24018
845.525	23977
845.661	23965
845.798	23809
845.934	23863
846.07	23741
846.206	23821
846.342	23946
846.478	23901
846.614	23615
846.75	23509
846.886	23535
847.022	23611
847.158	23611
847.294	23592
847.429	23566
847.565	23528
847.701	23661
847.837	23265
847.972	23231
848.108	23417
848.244	23337
848.379	23193
848.515	23159
848.65	23079
848.786	23056
848.921	23174
849.057	23235
849.192	23227
849.328	23037
849.463	23083
849.598	22972
849.734	23235
849.869	23014
850.004	22850
850.14	22965
850.275	22816
850.41	22862
850.545	22809
850.68	22873
850.815	23025
850.95	22759
851.085	23033
851.22	23071
851.355	23006
851.49	22869
851.625	22763
851.76	22968
851.895	22793
852.03	22812
852.165	22968
852.299	22889
852.434	22984
852.569	22995
852.703	22923
852.838	22923
852.973	22999
853.107	22927
853.242	22801
853.376	22782
853.511	22675
853.645	22774
853.78	22850
853.914	22736
854.048	22744
854.183	22702
854.317	22790
854.451	22938
854.585	22698
854.72	22778
854.854	22824
854.988	22752
855.122	22755
855.256	22607
855.39	22607
855.524	22866
855.658	22649
855.792	22740
855.926	22713
856.06	22679
856.194	22828
856.327	22713
856.461	22645
856.595	22691
856.729	22687
856.862	22858
856.996	22672
857.13	22752
857.263	22755
857.397	22873
857.53	22691
857.664	22698
857.797	22835
857.931	22843
858.064	22615
858.197	22854
858.331	22797
858.464	22626
858.597	22694
858.731	22691
858.864	22656
858.997	22630
859.13	22713
859.263	22721
859.396	22801
859.529	22725
859.662	22603
859.795	22717
859.928	22687
860.061	22900
860.194	22911
860.327	22672
860.46	22725
860.592	22885
860.725	22812
860.858	22752
860.99	22698
861.123	22706
861.256	22675
861.388	22675
861.521	23406
861.653	22664
861.786	22500
861.918	22561
862.05	22516
862.183	22653
862.315	22698
862.447	22755
862.58	22599
862.712	22474
862.844	22310
862.976	22428
863.108	22557
863.24	22805
863.372	22352
863.504	22371
863.636	22459
863.768	22500
863.9	22538
864.032	22356
864.164	22405
864.296	22462
864.428	22584
864.559	22493
864.691	22569
864.823	22459
864.954	22390
865.086	22417
865.217	22272
865.349	22185
865.48	22405
865.612	22382
865.743	22386
865.875	22402
866.006	22363
866.137	22382
866.269	22215
866.4	22268
866.531	22230
866.662	22219
866.793	22257
866.924	22329
867.055	22367
867.186	22253
867.317	22143
867.448	22188
867.579	22204
867.71	22158
867.841	22166
867.972	22249
868.103	22097
868.233	22185
868.364	22215
868.495	22367
868.625	22436
868.756	22523
868.886	22360
869.017	22527
869.147	22630
869.278	22607
869.408	22607
869.539	22382
869.669	22656
869.799	22421
869.929	22516
870.06	22508
870.19	22843
870.32	22710
870.45	22744
870.58	22736
870.71	22953
870.84	22995
870.97	22824
871.1	22919
871.23	23048
871.36	23136
871.489	23067
871.619	23090
871.749	23056
871.879	23018
872.008	23132
872.138	23048
872.267	23037
872.397	22968
872.526	22889
872.656	22790
872.785	22991
872.915	23098
873.044	23079
873.173	23128
873.303	23166
873.432	23083
873.561	23128
873.69	23048
873.819	23052
873.948	23151
874.077	23193
874.206	22999
874.335	22968
874.464	23227
874.593	23398
874.722	23269
874.851	23368
874.979	23307
875.108	23376
875.237	23269
875.365	23159
875.494	23326
875.623	23341
875.751	23345
875.88	23360
876.008	23387
876.136	23436
876.265	23543
876.393	23824
876.521	23741
876.65	23703
876.778	23726
876.906	23646
877.034	23570
877.162	23847
877.29	23505
877.418	23596
877.546	23714
877.674	23710
877.802	23592
877.93	23684
878.058	23516
878.185	23592
878.313	23623
878.441	23600
878.568	23379
878.696	23436
878.824	23634
878.951	23760
879.079	23802
879.206	23954
879.333	23840
879.461	23691
879.588	23729
879.715	23657
879.842	23992
879.97	23767
880.097	23573
880.224	23467
880.351	23493
880.478	23391
880.605	23467
880.732	23410
880.859	23668
880.986	23524
881.112	23497
881.239	23303
881.366	23086
881.493	23090
881.619	23083
881.746	22938
881.872	22976
881.999	22987
882.125	22866
882.252	22934
882.378	22953
882.505	23178
882.631	22896
882.757	22634
882.883	22637
883.01	22733
883.136	22702
883.262	22538
883.388	22538
883.514	22702
883.64	22729
883.766	22618
883.892	22436
884.018	22459
884.143	22626
884.269	22611
884.395	22409
884.52	22306
884.646	22322
884.772	22230
884.897	22280
885.023	22413
885.148	22306
885.274	22341
885.399	22527
885.524	22238
885.65	22280
885.775	22242
885.9	22268
886.025	22303
886.15	22474
886.275	22211
886.4	22215
886.525	22272
886.65	22169
886.775	22143
886.9	22390
887.025	22504
887.149	22223
887.274	22063
887.399	22078
887.523	22021
887.648	22032
887.773	21972
887.897	22090
888.021	22128
888.146	21926
888.27	22143
888.395	22230
888.519	22173
888.643	22150
888.767	22116
888.891	22086
889.015	21846
889.139	21838
889.263	21892
889.387	21930
889.511	22010
889.635	21975
889.759	21823
889.883	21994
890.006	21835
890.13	21861
890.254	21823
890.377	21823
890.501	21534
890.624	21564
890.748	21743
890.871	21458
890.995	21298
891.118	21275
891.241	21344
891.364	21329
891.488	21515
891.611	21424
891.734	21378
891.857	21443
891.98	21424
892.103	21526
892.226	21374
892.349	21268
892.471	21142
892.594	21310
892.717	21237
892.839	21207
892.962	21310
893.085	21348
893.207	21241
893.33	21047
893.452	21146
893.575	21359
893.697	21260
893.819	21458
893.941	21515
894.064	21298
894.186	21070
894.308	21157
894.43	21321
894.552	21401
894.674	21336
894.796	21241
894.918	21230
895.04	21298
895.161	21302
895.283	21252
895.405	21195
895.526	21260
895.648	21317
895.769	21294
895.891	21283
896.012	21386
896.134	21310
896.255	21173
896.376	21199
896.498	21306
896.619	21222
896.74	21146
896.861	21294
896.982	21488
897.103	21701
897.224	21545
897.345	21466
897.466	21359
897.587	21481
897.708	21679
897.828	21534
897.949	21450
898.07	21325
898.19	21378
898.311	21416
898.431	21340
898.552	21389
898.672	21454
898.792	21447
898.913	21488
899.033	21359
899.153	21275
899.273	21074
899.393	21032
899.513	21203
899.633	21138
899.753	21150
899.873	21142
899.993	21127
900.113	21009
900.232	21173
900.352	21043
900.472	21108
900.591	20853
900.711	20849
900.83	20929
900.95	20994
901.069	21074
901.189	20864
901.308	20575
901.427	20473
901.546	20522
901.665	20594
901.784	20537
901.904	20415
902.023	20157
902.141	20073
902.26	19936
902.379	20202
902.498	20126
902.617	20058
902.735	20016
902.854	20012
902.973	19883
903.091	19715
903.21	19662
903.328	19559
903.446	19590
903.565	19457
903.683	19483
903.801	19422
903.919	19403
904.038	19297
904.156	19217
904.274	19282
904.392	19198
904.51	19137
904.627	19137
904.745	19282
904.863	19278
904.981	19152
905.098	18913
905.216	18924
905.334	18935
905.451	18863
905.569	18935
905.686	18894
905.803	18928
905.921	18620
906.038	18852
906.155	18650
906.272	18506
906.389	18578
906.506	18433
906.623	18445
906.74	18391
906.857	18315
906.974	18277
907.091	18403
907.208	18437
907.324	18460
907.441	18369
907.557	18155
907.674	18110
907.79	18030
907.907	17977
908.023	18197
908.139	18133
908.256	18057
908.372	18011
908.488	17961
908.604	17840
908.72	17840
908.836	17954
908.952	17786
909.068	17920
909.184	17920
909.3	17737
909.415	17847
909.531	17885
909.647	17539
909.762	17615
909.878	17547
909.993	17551
910.108	17448
910.224	17486
910.339	17505
910.454	17395
910.57	17265
910.685	17102
910.8	17486
910.915	17414
911.03	17250
911.145	17121
911.259	17185
911.374	16957
911.489	17014
911.604	16968
911.718	16847
911.833	16854
911.947	16858
912.062	16736
912.176	16881
912.291	16911
912.405	16824
912.519	16972
912.633	17052
912.748	16961
912.862	16805
912.976	16653
913.09	16516
913.204	16550
913.318	16679
913.431	16790
913.545	16653
913.659	16733
913.772	16569
913.886	16462
914	16443
914.113	16577
914.226	16542
914.34	16497
914.453	16363
914.566	16466
914.68	16303
914.793	16375
914.906	16082
915.019	15949
915.132	16013
915.245	15994
915.358	16071
915.47	15975
915.583	15911
915.696	15975
915.809	16086
915.921	16105
916.034	15972
916.146	15907
916.259	15911
916.371	15979
916.483	15979
916.595	15926
916.708	15842
916.82	15846
916.932	15736
917.044	15743
917.156	15781
917.268	15587
917.38	15610
917.491	15610
917.603	15652
917.715	15633
917.826	15648
917.938	15610
918.049	15504
918.161	15568
918.272	15739
918.384	15660
918.495	15557
918.606	15443
918.717	15374
918.828	15363
918.939	15386
919.05	15313
919.161	15233
919.272	15218
919.383	15157
919.494	15382
919.604	15515
919.715	15336
919.826	15214
919.936	15245
920.047	15412
920.157	15363
920.267	15481
920.378	15431
920.488	15211
920.598	15526
920.708	15644
920.818	15412
920.928	15351
921.038	15481
921.148	15610
921.258	15275
921.368	15176
921.477	15085
921.587	15036
921.697	14929
921.806	15020
921.916	14906
922.025	14651
922.134	14705
922.244	14571
922.353	14712
922.462	14640
922.571	14511
922.68	14419
922.789	14286
922.898	14301
923.007	14259
923.116	14454
923.224	14256
923.333	14298
923.442	14111
923.55	14271
923.659	14183
923.767	14206
923.876	14115
923.984	14111
924.092	14005
924.201	13974
924.309	14024
924.417	14012
924.525	13967
924.633	13921
924.741	14838
924.849	13670
924.956	13974
925.064	13742
925.172	13597
925.279	13753
925.387	13689
925.494	13681
925.602	13696
925.709	13723
925.816	13502
925.924	13628
926.031	13708
926.138	13605
926.245	13632
926.352	13514
926.459	13681
926.566	13666
926.673	13426
926.779	13426
926.886	13407
926.993	13263
927.099	13236
927.206	13202
927.312	13217
927.419	13221
927.525	13236
927.631	13179
927.737	13126
927.843	13034
927.95	12958
928.056	13069
928.162	13050
928.267	13107
928.373	13586
928.479	13042
928.585	12897
928.69	12947
928.796	13046
928.901	12852
929.007	12749
929.112	12859
929.218	12798
929.323	12798
929.428	12696
929.533	12821
929.638	12673
929.743	12597
929.848	12707
929.953	12707
930.058	12563
930.163	12414
930.267	12490
930.372	12585
930.477	12350
930.581	12604
930.685	12437
930.79	12239
930.894	12239
930.998	12296
931.103	12300
931.207	12003
931.311	11942
931.415	11783
931.519	11665
931.623	11714
