Data from test_V78500241_2452.txt Node
Date: Fri Mar 25 15:58:47 CST 2022
User: usil
Spectrometer: V785-0024
Trigger mode: 0
Integration Time (sec): 4.000000E-1
Scans to average: 1
Nonlinearity correction enabled: false
Boxcar width: 0
Storing dark spectrum: false
XAxis mode: Wavelengths
Number of Pixels in Spectrum: 1024
>>>>>Begin Spectral Data<<<<<
801.071	28957
801.214	28755
801.356	28767
801.499	28656
801.641	28527
801.783	28615
801.926	28451
802.068	28485
802.211	28360
802.353	28432
802.496	28177
802.638	28143
802.78	28162
802.923	28082
803.065	28105
803.208	28162
803.35	28303
803.492	28360
803.635	28417
803.777	28284
803.919	28371
804.061	28733
804.204	28504
804.346	28363
804.488	28413
804.63	28538
804.773	28413
804.915	28382
805.057	28672
805.199	28455
805.341	28561
805.483	28626
805.626	28584
805.768	28508
805.91	28607
806.052	28641
806.194	28561
806.336	28869
806.478	28557
806.62	28736
806.762	28835
806.904	28892
807.046	29128
807.188	28892
807.33	29044
807.472	28999
807.614	29010
807.756	29140
807.898	28919
808.04	28820
808.182	29022
808.324	28949
808.465	28942
808.607	29155
808.749	29254
808.891	29334
809.033	29547
809.174	29375
809.316	29383
809.458	29117
809.6	29250
809.741	29395
809.883	29429
810.025	29684
810.166	29573
810.308	29471
810.45	29490
810.591	29482
810.733	29296
810.875	29292
811.016	29170
811.158	29227
811.299	29387
811.441	29334
811.582	29463
811.724	29353
811.865	29395
812.007	29372
812.148	29337
812.29	29296
812.431	29638
812.573	29687
812.714	29733
812.855	29817
812.997	29851
813.138	30186
813.279	29988
813.421	29897
813.562	29783
813.703	29570
813.845	29528
813.986	29220
814.127	29117
814.268	28995
814.41	29029
814.551	28995
814.692	29067
814.833	28980
814.974	29041
815.115	29090
815.256	28915
815.397	28793
815.539	28877
815.68	28698
815.821	28771
815.962	28752
816.103	28801
816.244	28820
816.385	28634
816.526	28596
816.666	28550
816.807	28246
816.948	28371
817.089	28447
817.23	28341
817.371	28447
817.512	28447
817.653	28219
817.793	28382
817.934	28287
818.075	28371
818.216	28497
818.356	28341
818.497	28135
818.638	28093
818.778	28040
818.919	28124
819.06	28204
819.2	28318
819.341	28341
819.481	28413
819.622	28546
819.762	28694
819.903	28588
820.043	28516
820.184	28508
820.324	28417
820.465	28531
820.605	28500
820.746	28451
820.886	28230
821.026	28481
821.167	28447
821.307	28409
821.447	28504
821.588	28360
821.728	28215
821.868	28017
822.008	27941
822.149	27907
822.289	27888
822.429	27549
822.569	27515
822.709	27481
822.849	27325
822.99	27283
823.13	27245
823.27	27226
823.41	27230
823.55	27001
823.69	27142
823.83	27302
823.97	26940
824.11	26910
824.25	26952
824.389	26914
824.529	27036
824.669	26940
824.809	27218
824.949	26994
825.089	27081
825.228	27039
825.368	26876
825.508	26819
825.648	26857
825.787	26876
825.927	26895
826.067	26826
826.206	26857
826.346	26872
826.485	26937
826.625	26830
826.765	26963
826.904	26906
827.044	26705
827.183	26644
827.323	26590
827.462	26659
827.601	26708
827.741	26617
827.88	26579
828.02	26385
828.159	26617
828.298	26609
828.437	26522
828.577	26526
828.716	26609
828.855	26450
828.994	26214
829.134	26180
829.273	26267
829.412	26210
829.551	26130
829.69	26290
829.829	26336
829.968	26385
830.107	26332
830.246	26271
830.385	26263
830.524	26134
830.663	26046
830.802	25966
830.941	25833
831.08	25833
831.219	25966
831.357	25852
831.496	26073
831.635	25856
831.774	25761
831.913	25841
832.051	25582
832.19	25624
832.329	25563
832.467	25544
832.606	25518
832.744	25548
832.883	25369
833.022	25457
833.16	25411
833.299	25559
833.437	25613
833.576	25693
833.714	25563
833.852	25685
833.991	25689
834.129	25556
834.267	25666
834.406	25677
834.544	25605
834.682	25578
834.821	25483
834.959	25696
835.097	25472
835.235	25696
835.373	25643
835.511	25445
835.65	25297
835.788	25438
835.926	25343
836.064	25213
836.202	25343
836.34	25365
836.478	25453
836.615	25266
836.753	25434
836.891	25472
837.029	25533
837.167	25293
837.305	25282
837.443	25297
837.58	25312
837.718	25407
837.856	25187
837.993	25175
838.131	25316
838.269	25061
838.406	25141
838.544	25057
838.681	24973
838.819	24882
838.956	24745
839.094	24673
839.231	24829
839.369	24764
839.506	25179
839.643	25065
839.781	24791
839.918	24532
840.055	24658
840.193	24677
840.33	24578
840.467	24551
840.604	24589
840.742	24806
840.879	24547
841.016	24532
841.153	24525
841.29	24688
841.427	24570
841.564	24528
841.701	24521
841.838	24467
841.975	24502
842.112	24486
842.249	24342
842.385	24464
842.522	24505
842.659	24502
842.796	24376
842.933	24350
843.069	24308
843.206	24330
843.343	24372
843.479	24296
843.616	24273
843.752	24289
843.889	24228
844.025	24220
844.162	24072
844.298	24174
844.435	24102
844.571	24068
844.708	24190
844.844	24342
844.98	24148
845.117	24213
845.253	24022
845.389	23999
845.525	24022
845.661	23992
845.798	23893
845.934	23832
846.07	23901
846.206	23961
846.342	23950
846.478	23840
846.614	23718
846.75	23630
846.886	23608
847.022	23653
847.158	23566
847.294	23608
847.429	23493
847.565	23581
847.701	23741
847.837	23292
847.972	23376
848.108	23448
848.244	23376
848.379	23341
848.515	23231
848.65	23159
848.786	23189
848.921	23193
849.057	23364
849.192	23216
849.328	23235
849.463	23174
849.598	23250
849.734	22999
849.869	22984
850.004	22999
850.14	22949
850.275	23022
850.41	22965
850.545	22885
850.68	22885
850.815	23010
850.95	22938
851.085	23113
851.22	23041
851.355	22858
851.49	22809
851.625	22835
851.76	22949
851.895	22790
852.03	22923
852.165	22991
852.299	23075
852.434	23090
852.569	22965
852.703	22858
852.838	23018
852.973	23052
853.107	23033
853.242	22919
853.376	22786
853.511	22580
853.645	22691
853.78	22873
853.914	22748
854.048	22733
854.183	22828
854.317	22782
854.451	23003
854.585	22820
854.72	22679
854.854	22744
854.988	22702
855.122	22710
855.256	22683
855.39	22656
855.524	22790
855.658	22793
855.792	22733
855.926	22801
856.06	22782
856.194	22847
856.327	22763
856.461	22698
856.595	22668
856.729	22748
856.862	22790
856.996	22664
857.13	22717
857.263	22877
857.397	22835
857.53	22736
857.664	22843
857.797	22820
857.931	22778
858.064	22748
858.197	22835
858.331	22850
858.464	22744
858.597	22607
858.731	22626
858.864	22702
858.997	22656
859.13	22675
859.263	22786
859.396	22824
859.529	22736
859.662	22611
859.795	22786
859.928	22755
860.061	22877
860.194	22877
860.327	22797
860.46	22713
860.592	22850
860.725	22869
860.858	22824
860.99	22763
861.123	22527
861.256	22839
861.388	22664
861.521	23570
861.653	22599
861.786	22634
861.918	22584
862.05	22622
862.183	22569
862.315	22694
862.447	22664
862.58	22637
862.712	22512
862.844	22436
862.976	22375
863.108	22611
863.24	22801
863.372	22284
863.504	22440
863.636	22447
863.768	22519
863.9	22447
864.032	22375
864.164	22424
864.296	22462
864.428	22493
864.559	22459
864.691	22459
864.823	22360
864.954	22421
865.086	22344
865.217	22322
865.349	22265
865.48	22329
865.612	22344
865.743	22531
865.875	22382
866.006	22333
866.137	22257
866.269	22413
866.4	22386
866.531	22238
866.662	22185
866.793	22207
866.924	22287
867.055	22272
867.186	22253
867.317	22162
867.448	22207
867.579	22166
867.71	22097
867.841	22215
867.972	22276
868.103	22185
868.233	22265
868.364	22246
868.495	22257
868.625	22527
868.756	22672
868.886	22504
869.017	22493
869.147	22542
869.278	22466
869.408	22474
869.539	22394
869.669	22485
869.799	22512
869.929	22645
870.06	22565
870.19	22721
870.32	22729
870.45	22923
870.58	22801
870.71	23025
870.84	22953
870.97	22858
871.1	22869
871.23	23094
871.36	23136
871.489	22904
871.619	23010
871.749	22999
871.879	23105
872.008	23067
872.138	23132
872.267	23246
872.397	22889
872.526	22934
872.656	22877
872.785	23022
872.915	22953
873.044	23204
873.173	23090
873.303	23200
873.432	23162
873.561	23246
873.69	23197
873.819	23037
873.948	23124
874.077	23086
874.206	23060
874.335	23128
874.464	23208
874.593	23292
874.722	23299
874.851	23307
874.979	23250
875.108	23410
875.237	23258
875.365	23235
875.494	23258
875.623	23436
875.751	23265
875.88	23410
876.008	23353
876.136	23501
876.265	23828
876.393	23851
876.521	23840
876.65	23885
876.778	23665
876.906	23596
877.034	23596
877.162	23524
877.29	23516
877.418	23547
877.546	23699
877.674	23630
877.802	23592
877.93	23627
878.058	23570
878.185	23551
878.313	23570
878.441	23592
878.568	23395
878.696	23558
878.824	23760
878.951	23760
879.079	23863
879.206	23916
879.333	23809
879.461	23619
879.588	23809
879.715	23737
879.842	23897
879.97	23775
880.097	23501
880.224	23414
880.351	23497
880.478	23615
880.605	23383
880.732	23512
880.859	23653
880.986	23444
881.112	23417
881.239	23345
881.366	23140
881.493	23166
881.619	22980
881.746	22946
881.872	23075
881.999	23041
882.125	22987
882.252	23003
882.378	22965
882.505	23166
882.631	22759
882.757	22729
882.883	22790
883.01	22675
883.136	22634
883.262	22637
883.388	22569
883.514	22717
883.64	22786
883.766	22618
883.892	22398
884.018	22489
884.143	22618
884.269	22641
884.395	22493
884.52	22280
884.646	22409
884.772	22299
884.897	22200
885.023	22306
885.148	22417
885.274	22443
885.399	22554
885.524	22356
885.65	22238
885.775	22405
885.9	22253
886.025	22402
886.15	22402
886.275	22325
886.4	22341
886.525	22314
886.65	22291
886.775	22162
886.9	22455
887.025	22485
887.149	22291
887.274	22105
887.399	22086
887.523	22124
887.648	22097
887.773	22040
887.897	22013
888.021	22116
888.146	21983
888.27	22116
888.395	22032
888.519	22105
888.643	22169
888.767	22124
888.891	21907
889.015	21895
889.139	21968
889.263	21911
889.387	21956
889.511	22090
889.635	21949
889.759	21770
889.883	21755
890.006	21934
890.13	22002
890.254	21789
890.377	21804
890.501	21428
890.624	21530
890.748	21717
890.871	21580
890.995	21523
891.118	21367
891.241	21378
891.364	21367
891.488	21553
891.611	21325
891.734	21447
891.857	21488
891.98	21412
892.103	21424
892.226	21397
892.349	21370
892.471	21230
892.594	21256
892.717	21272
892.839	21359
892.962	21336
893.085	21370
893.207	21313
893.33	21252
893.452	21150
893.575	21431
893.697	21283
893.819	21428
893.941	21454
894.064	21549
894.186	21256
894.308	21157
894.43	21283
894.552	21545
894.674	21454
894.796	21214
894.918	21321
895.04	21165
895.161	21370
895.283	21195
895.405	21264
895.526	21241
895.648	21367
895.769	21283
895.891	21325
896.012	21355
896.134	21374
896.255	21252
896.376	21207
896.498	21180
896.619	21264
896.74	21161
896.861	21298
896.982	21507
897.103	21785
897.224	21428
897.345	21637
897.466	21317
897.587	21519
897.708	21568
897.828	21583
897.949	21363
898.07	21279
898.19	21439
898.311	21595
898.431	21435
898.552	21583
898.672	21481
898.792	21553
898.913	21382
899.033	21370
899.153	21378
899.273	21203
899.393	21195
899.513	21222
899.633	21230
899.753	21188
899.873	21104
899.993	21214
900.113	21203
900.232	21100
900.352	21074
900.472	21100
900.591	21001
900.711	20986
900.83	20910
900.95	20986
901.069	21020
901.189	20963
901.308	20689
901.427	20526
901.546	20625
901.665	20499
901.784	20476
901.904	20427
902.023	20290
902.141	20130
902.26	20054
902.379	20214
902.498	20073
902.617	20111
902.735	20039
902.854	19951
902.973	19978
903.091	19616
903.21	19712
903.328	19693
903.446	19643
903.565	19594
903.683	19525
903.801	19502
903.919	19422
904.038	19373
904.156	19263
904.274	19400
904.392	19304
904.51	19293
904.627	19175
904.745	19335
904.863	19282
904.981	19084
905.098	18871
905.216	18920
905.334	18939
905.451	18901
905.569	18829
905.686	18928
905.803	18791
905.921	18719
906.038	18814
906.155	18730
906.272	18589
906.389	18616
906.506	18407
906.623	18456
906.74	18441
906.857	18365
906.974	18311
907.091	18551
907.208	18601
907.324	18509
907.441	18372
907.557	18083
907.674	18182
907.79	18102
907.907	18098
908.023	18140
908.139	18186
908.256	18136
908.372	17977
908.488	18011
908.604	17893
908.72	17817
908.836	17889
908.952	17836
909.068	17863
909.184	17973
909.3	17920
909.415	17866
909.531	17771
909.647	17566
909.762	17547
909.878	17532
909.993	17547
910.108	17611
910.224	17486
910.339	17448
910.454	17395
910.57	17356
910.685	17315
910.8	17490
910.915	17585
911.03	17337
911.145	17109
911.259	17052
911.374	17098
911.489	17010
911.604	17018
911.718	16816
911.833	16828
911.947	16896
912.062	16649
912.176	16816
912.291	16805
912.405	16915
912.519	16995
912.633	17006
912.748	16835
912.862	16771
912.976	16649
913.09	16596
913.204	16637
913.318	16656
913.431	16835
913.545	16664
913.659	16691
913.772	16554
913.886	16512
914	16447
914.113	16440
914.226	16603
914.34	16500
914.453	16371
914.566	16462
914.68	16379
914.793	16299
914.906	16131
915.019	16029
915.132	16063
915.245	16017
915.358	16002
915.47	16097
915.583	15895
915.696	16025
915.809	16105
915.921	16200
916.034	15945
916.146	15899
916.259	15857
916.371	15979
916.483	15956
916.595	15888
916.708	15850
916.82	15892
916.932	15732
917.044	15854
917.156	15823
917.268	15667
917.38	15633
917.491	15595
917.603	15545
917.715	15618
917.826	15679
917.938	15591
918.049	15469
918.161	15618
918.272	15846
918.384	15739
918.495	15610
918.606	15500
918.717	15336
918.828	15386
918.939	15405
919.05	15351
919.161	15401
919.272	15085
919.383	15214
919.494	15458
919.604	15549
919.715	15310
919.826	15222
919.936	15340
920.047	15389
920.157	15363
920.267	15450
920.378	15332
920.488	15298
920.598	15367
920.708	15618
920.818	15351
920.928	15386
921.038	15644
921.148	15584
921.258	15211
921.368	15252
921.477	15047
921.587	15062
921.697	14979
921.806	15047
921.916	14906
922.025	14834
922.134	14632
922.244	14640
922.353	14682
922.462	14545
922.571	14396
922.68	14419
922.789	14320
922.898	14317
923.007	14278
923.116	14320
923.224	14343
923.333	14267
923.442	14161
923.55	14183
923.659	14172
923.767	14267
923.876	14088
923.984	14126
924.092	14020
924.201	13997
924.309	13989
924.417	13986
924.525	13993
924.633	13970
924.741	14636
924.849	13666
924.956	13894
925.064	13765
925.172	13632
925.279	13723
925.387	13655
925.494	13693
925.602	13879
925.709	13780
925.816	13575
925.924	13643
926.031	13689
926.138	13616
926.245	13624
926.352	13613
926.459	13647
926.566	13738
926.673	13609
926.779	13510
926.886	13453
926.993	13266
927.099	13206
927.206	13213
927.312	13232
927.419	13221
927.525	13221
927.631	13327
927.737	13160
927.843	12981
927.95	12989
928.056	13080
928.162	13107
928.267	13065
928.373	13704
928.479	13114
928.585	12817
928.69	13023
928.796	12993
928.901	12867
929.007	12806
929.112	12871
929.218	12814
929.323	12901
929.428	12692
929.533	12833
929.638	12703
929.743	12662
929.848	12738
929.953	12696
930.058	12563
930.163	12346
930.267	12437
930.372	12544
930.477	12338
930.581	12677
930.685	12464
930.79	12315
930.894	12300
930.998	12300
931.103	12471
931.207	12072
931.311	11992
931.415	11931
931.519	11638
931.623	11676
