Data from test_V78500241_398.txt Node
Date: Fri Mar 25 15:44:33 CST 2022
User: usil
Spectrometer: V785-0024
Trigger mode: 0
Integration Time (sec): 4.000000E-1
Scans to average: 1
Nonlinearity correction enabled: false
Boxcar width: 0
Storing dark spectrum: false
XAxis mode: Wavelengths
Number of Pixels in Spectrum: 1024
>>>>>Begin Spectral Data<<<<<
801.071	28873
801.214	28812
801.356	28721
801.499	28721
801.641	28432
801.783	28485
801.926	28481
802.068	28440
802.211	28314
802.353	28390
802.496	28109
802.638	27994
802.78	28101
802.923	27956
803.065	28090
803.208	27884
803.35	28105
803.492	28196
803.635	28131
803.777	28006
803.919	28242
804.061	28592
804.204	28318
804.346	28284
804.488	28181
804.63	28268
804.773	28219
804.915	28284
805.057	28272
805.199	28055
805.341	28299
805.483	28299
805.626	28318
805.768	28314
805.91	28436
806.052	28257
806.194	28299
806.336	28607
806.478	28268
806.62	28318
806.762	28417
806.904	28656
807.046	28942
807.188	28831
807.33	28839
807.472	28820
807.614	28679
807.756	28824
807.898	28645
808.04	28531
808.182	28847
808.324	28664
808.465	28618
808.607	28919
808.749	28896
808.891	29044
809.033	29181
809.174	29220
809.316	29105
809.458	29208
809.6	28976
809.741	29132
809.883	29223
810.025	29398
810.166	29189
810.308	29296
810.45	29368
810.591	29242
810.733	29128
810.875	28858
811.016	28759
811.158	28980
811.299	28987
811.441	29071
811.582	29143
811.724	28968
811.865	28991
812.007	29003
812.148	28968
812.29	28968
812.431	29155
812.573	29322
812.714	29398
812.855	29600
812.997	29623
813.138	29676
813.279	29836
813.421	29425
813.562	29509
813.703	29349
813.845	29299
813.986	28915
814.127	28660
814.268	28748
814.41	28649
814.551	28683
814.692	28763
814.833	28557
814.974	28523
815.115	28622
815.256	28497
815.397	28432
815.539	28584
815.68	28523
815.821	28344
815.962	28542
816.103	28352
816.244	28200
816.385	28192
816.526	28295
816.666	28044
816.807	27835
816.948	27998
817.089	27968
817.23	27964
817.371	27934
817.512	27945
817.653	27857
817.793	27816
817.934	27785
818.075	27743
818.216	27972
818.356	27663
818.497	27709
818.638	27591
818.778	27561
818.919	27644
819.06	27694
819.2	27724
819.341	27895
819.481	27804
819.622	28029
819.762	28120
819.903	28112
820.043	27979
820.184	28029
820.324	27926
820.465	28051
820.605	27953
820.746	28055
820.886	27808
821.026	27945
821.167	27888
821.307	27956
821.447	27880
821.588	27751
821.728	27542
821.868	27488
822.008	27329
822.149	27249
822.289	27287
822.429	27070
822.569	27020
822.709	26967
822.849	26754
822.99	26940
823.13	26785
823.27	26807
823.41	26716
823.55	26583
823.69	26667
823.83	26845
823.97	26621
824.11	26434
824.25	26374
824.389	26412
824.529	26362
824.669	26336
824.809	26499
824.949	26469
825.089	26408
825.228	26408
825.368	26320
825.508	26275
825.648	26282
825.787	26183
825.927	26358
826.067	26214
826.206	26275
826.346	26225
826.485	26256
826.625	26161
826.765	26385
826.904	26168
827.044	26119
827.183	25951
827.323	25818
827.462	25837
827.601	25871
827.741	25811
827.88	25982
828.02	25833
828.159	25849
828.298	25917
828.437	25951
828.577	25788
828.716	26210
828.855	25841
828.994	25487
829.134	25670
829.273	25795
829.412	25597
829.551	25476
829.69	25624
829.829	25677
829.968	25594
830.107	25685
830.246	25738
830.385	25594
830.524	25479
830.663	25563
830.802	25316
830.941	25266
831.08	25289
831.219	25221
831.357	25320
831.496	25285
831.635	25202
831.774	25065
831.913	25129
832.051	25042
832.19	24958
832.329	25027
832.467	24882
832.606	24886
832.744	24768
832.883	24878
833.022	24890
833.16	24825
833.299	24715
833.437	24928
833.576	24829
833.714	24814
833.852	24821
833.991	24954
834.129	24954
834.267	25000
834.406	24871
834.544	24966
834.682	24871
834.821	24962
834.959	25031
835.097	24875
835.235	24886
835.373	24722
835.511	24741
835.65	24749
835.788	24688
835.926	24566
836.064	24505
836.202	24525
836.34	24768
836.478	24802
836.615	24646
836.753	24722
836.891	24665
837.029	24711
837.167	24612
837.305	24692
837.443	24585
837.58	24525
837.718	24589
837.856	24494
837.993	24467
838.131	24475
838.269	24292
838.406	24498
838.544	24342
838.681	24220
838.819	24114
838.956	23969
839.094	24030
839.231	23977
839.369	24083
839.506	24266
839.643	24102
839.781	24072
839.918	23908
840.055	23878
840.193	23798
840.33	23965
840.467	23889
840.604	23893
840.742	24167
840.879	23786
841.016	23893
841.153	23767
841.29	23935
841.427	23954
841.564	23923
841.701	23752
841.838	23634
841.975	23824
842.112	23676
842.249	23684
842.385	23634
842.522	23794
842.659	23623
842.796	23474
842.933	23539
843.069	23493
843.206	23566
843.343	23611
843.479	23478
843.616	23600
843.752	23311
843.889	23341
844.025	23471
844.162	23311
844.298	23452
844.435	23337
844.571	23147
844.708	23299
844.844	23334
844.98	23452
845.117	23410
845.253	23216
845.389	23128
845.525	23113
845.661	23094
845.798	23140
845.934	22980
846.07	22995
846.206	23025
846.342	23162
846.478	23006
846.614	22752
846.75	22767
846.886	22672
847.022	22774
847.158	22702
847.294	22675
847.429	22774
847.565	22793
847.701	22896
847.837	22512
847.972	22409
848.108	22489
848.244	22485
848.379	22363
848.515	22348
848.65	22325
848.786	22314
848.921	22379
849.057	22348
849.192	22402
849.328	22344
849.463	22268
849.598	22246
849.734	22173
849.869	22303
850.004	22044
850.14	22124
850.275	22044
850.41	22044
850.545	22082
850.68	21918
850.815	22063
850.95	22135
851.085	22147
851.22	22131
851.355	22116
851.49	21975
851.625	21979
851.76	21972
851.895	21926
852.03	22036
852.165	21949
852.299	22051
852.434	22158
852.569	22116
852.703	22059
852.838	22166
852.973	22169
853.107	22105
853.242	21964
853.376	21816
853.511	21755
853.645	21922
853.78	22036
853.914	21873
854.048	21907
854.183	21812
854.317	21778
854.451	22021
854.585	21827
854.72	21892
854.854	21941
854.988	21778
855.122	21732
855.256	21789
855.39	21823
855.524	21903
855.658	22002
855.792	21812
855.926	21949
856.06	21835
856.194	21945
856.327	21918
856.461	21838
856.595	21770
856.729	21895
856.862	22029
856.996	21835
857.13	21846
857.263	21827
857.397	21964
857.53	21869
857.664	21869
857.797	21835
857.931	21888
858.064	21895
858.197	21941
858.331	21747
858.464	21808
858.597	21785
858.731	21823
858.864	21743
858.997	21816
859.13	21793
859.263	21850
859.396	21842
859.529	21808
859.662	21876
859.795	21633
859.928	21899
860.061	21998
860.194	22029
860.327	21880
860.46	21717
860.592	21968
860.725	21941
860.858	21991
860.99	21808
861.123	21671
861.256	21713
861.388	21861
861.521	22485
861.653	21682
861.786	21614
861.918	21644
862.05	21713
862.183	21869
862.315	21827
862.447	21876
862.58	21827
862.712	21477
862.844	21477
862.976	21694
863.108	21644
863.24	21991
863.372	21603
863.504	21469
863.636	21526
863.768	21568
863.9	21507
864.032	21386
864.164	21447
864.296	21572
864.428	21625
864.559	21610
864.691	21572
864.823	21397
864.954	21439
865.086	21439
865.217	21545
865.349	21378
865.48	21359
865.612	21428
865.743	21428
865.875	21382
866.006	21260
866.137	21336
866.269	21401
866.4	21416
866.531	21306
866.662	21420
866.793	21363
866.924	21351
867.055	21450
867.186	21420
867.317	21249
867.448	21211
867.579	21310
867.71	21283
867.841	21150
867.972	21321
868.103	21325
868.233	21439
868.364	21363
868.495	21439
868.625	21595
868.756	21751
868.886	21580
869.017	21492
869.147	21538
869.278	21625
869.408	21553
869.539	21496
869.669	21557
869.799	21614
869.929	21762
870.06	21667
870.19	21800
870.32	21800
870.45	21812
870.58	21934
870.71	22044
870.84	21991
870.97	21865
871.1	21937
871.23	21994
871.36	22051
871.489	22029
871.619	22124
871.749	22147
871.879	22185
872.008	22268
872.138	22238
872.267	22082
872.397	22070
872.526	21918
872.656	22070
872.785	22032
872.915	22120
873.044	22234
873.173	22097
873.303	22204
873.432	22291
873.561	22257
873.69	22192
873.819	22116
873.948	22131
874.077	22177
874.206	22181
874.335	22215
874.464	22284
874.593	22371
874.722	22424
874.851	22329
874.979	22588
875.108	22375
875.237	22386
875.365	22253
875.494	22314
875.623	22466
875.751	22322
875.88	22493
876.008	22519
876.136	22683
876.265	22778
876.393	22965
876.521	22782
876.65	22889
876.778	22816
876.906	22725
877.034	22611
877.162	22786
877.29	22679
877.418	22725
877.546	22793
877.674	22824
877.802	22797
877.93	22782
878.058	22702
878.185	22565
878.313	22759
878.441	22828
878.568	22561
878.696	22641
878.824	22740
878.951	22717
879.079	22881
879.206	23155
879.333	22946
879.461	22866
879.588	22942
879.715	22987
879.842	23041
879.97	22801
880.097	22630
880.224	22557
880.351	22596
880.478	22569
880.605	22596
880.732	22523
880.859	22816
880.986	22516
881.112	22550
881.239	22428
881.366	22348
881.493	22303
881.619	22128
881.746	22234
881.872	22169
881.999	22055
882.125	22074
882.252	22188
882.378	22063
882.505	22154
882.631	21968
882.757	21903
882.883	21739
883.01	21835
883.136	21823
883.262	21800
883.388	21698
883.514	21892
883.64	21876
883.766	21663
883.892	21713
884.018	21583
884.143	21816
884.269	21854
884.395	21545
884.52	21591
884.646	21488
884.772	21351
884.897	21317
885.023	21466
885.148	21614
885.274	21599
885.399	21545
885.524	21599
885.65	21439
885.775	21382
885.9	21488
886.025	21523
886.15	21614
886.275	21435
886.4	21450
886.525	21447
886.65	21325
886.775	21374
886.9	21557
887.025	21633
887.149	21401
887.274	21245
887.399	21245
887.523	21207
887.648	21184
887.773	21081
887.897	21275
888.021	21272
888.146	21142
888.27	21310
888.395	21306
888.519	21264
888.643	21195
888.767	21264
888.891	21116
889.015	20899
889.139	21024
889.263	21032
889.387	21055
889.511	21260
889.635	21112
889.759	21039
889.883	20963
890.006	21009
890.13	21142
890.254	20902
890.377	20910
890.501	20765
890.624	20807
890.748	20792
890.871	20682
890.995	20469
891.118	20629
891.241	20571
891.364	20670
891.488	20796
891.611	20549
891.734	20640
891.857	20640
891.98	20594
892.103	20609
892.226	20454
892.349	20530
892.471	20355
892.594	20598
892.717	20442
892.839	20495
892.962	20518
893.085	20587
893.207	20511
893.33	20343
893.452	20305
893.575	20442
893.697	20393
893.819	20640
893.941	20701
894.064	20621
894.186	20431
894.308	20366
894.43	20545
894.552	20598
894.674	20560
894.796	20317
894.918	20427
895.04	20385
895.161	20507
895.283	20552
895.405	20336
895.526	20339
895.648	20503
895.769	20530
895.891	20499
896.012	20480
896.134	20446
896.255	20442
896.376	20461
896.498	20370
896.619	20621
896.74	20336
896.861	20625
896.982	20758
897.103	21001
897.224	20705
897.345	20609
897.466	20636
897.587	20575
897.708	20807
897.828	20701
897.949	20537
898.07	20522
898.19	20636
898.311	20716
898.431	20651
898.552	20720
898.672	20701
898.792	20842
898.913	20678
899.033	20499
899.153	20552
899.273	20286
899.393	20423
899.513	20362
899.633	20438
899.753	20431
899.873	20347
899.993	20377
900.113	20400
900.232	20431
900.352	20225
900.472	20183
900.591	20077
900.711	20187
900.83	20157
900.95	20396
901.069	20206
901.189	20020
901.308	19837
901.427	19742
901.546	19784
901.665	19765
901.784	19769
901.904	19712
902.023	19521
902.141	19331
902.26	19270
902.379	19426
902.498	19430
902.617	19198
902.735	19308
902.854	19221
902.973	19027
903.091	18985
903.21	19038
903.328	19008
903.446	18821
903.565	18806
903.683	18639
903.801	18642
903.919	18639
904.038	18764
904.156	18551
904.274	18574
904.392	18414
904.51	18448
904.627	18464
904.745	18517
904.863	18426
904.981	18216
905.098	18110
905.216	18224
905.334	18133
905.451	18114
905.569	18186
905.686	18194
905.803	18190
905.921	17946
906.038	17984
906.155	17828
906.272	17790
906.389	17866
906.506	17684
906.623	17703
906.74	17649
906.857	17532
906.974	17627
907.091	17847
907.208	17771
907.324	17726
907.441	17577
907.557	17436
907.674	17402
907.79	17277
907.907	17356
908.023	17398
908.139	17349
908.256	17303
908.372	17204
908.488	17204
908.604	17052
908.72	17018
908.836	17083
908.952	16927
909.068	17064
909.184	17128
909.3	17067
909.415	17048
909.531	17029
909.647	16729
909.762	16725
909.878	16831
909.993	16694
910.108	16725
910.224	16649
910.339	16763
910.454	16672
910.57	16611
910.685	16580
910.8	16713
910.915	16824
911.03	16554
911.145	16447
911.259	16371
911.374	16341
911.489	16261
911.604	16223
911.718	16150
911.833	16177
911.947	16071
912.062	15930
912.176	16185
912.291	16051
912.405	16131
912.519	16234
912.633	16249
912.748	16101
912.862	16021
912.976	15880
913.09	15838
913.204	15816
913.318	15873
913.431	15968
913.545	15880
913.659	15922
913.772	15816
913.886	15705
914	15580
914.113	15713
914.226	15751
914.34	15705
914.453	15553
914.566	15690
914.68	15511
914.793	15454
914.906	15408
915.019	15264
915.132	15207
915.245	15332
915.358	15298
915.47	15378
915.583	15302
915.696	15310
915.809	15500
915.921	15473
916.034	15249
916.146	15207
916.259	15127
916.371	15237
916.483	15245
916.595	15112
916.708	15108
916.82	15093
916.932	15070
917.044	15146
917.156	15013
917.268	14925
917.38	15013
917.491	14956
917.603	14990
917.715	15055
917.826	15039
917.938	14895
918.049	14731
918.161	14960
918.272	15039
918.384	14956
918.495	14800
918.606	14693
918.717	14625
918.828	14659
918.939	14765
919.05	14568
919.161	14705
919.272	14457
919.383	14594
919.494	14712
919.604	14918
919.715	14674
919.826	14625
919.936	14602
920.047	14644
920.157	14629
920.267	14842
920.378	14590
920.488	14571
920.598	14842
920.708	15005
920.818	14807
920.928	14739
921.038	14876
921.148	14933
921.258	14579
921.368	14476
921.477	14427
921.587	14385
921.697	14286
921.806	14343
921.916	14298
922.025	14164
922.134	14005
922.244	13906
922.353	14039
922.462	13936
922.571	13822
922.68	13639
922.789	13666
922.898	13719
923.007	13643
923.116	13750
923.224	13510
923.333	13620
923.442	13487
923.55	13506
923.659	13499
923.767	13476
923.876	13400
923.984	13487
924.092	13297
924.201	13426
924.309	13354
924.417	13419
924.525	13331
924.633	13350
924.741	13970
924.849	13072
924.956	13194
925.064	13095
925.172	13095
925.279	13000
925.387	13160
925.494	13019
925.602	13122
925.709	13137
925.816	12916
925.924	13053
926.031	13164
926.138	12920
926.245	13012
926.352	12939
926.459	13099
926.566	13031
926.673	12901
926.779	12734
926.886	12810
926.993	12639
927.099	12589
927.206	12563
927.312	12555
927.419	12692
927.525	12585
927.631	12662
927.737	12517
927.843	12426
927.95	12273
928.056	12414
928.162	12445
928.267	12460
928.373	13152
928.479	12521
928.585	12277
928.69	12395
928.796	12471
928.901	12330
929.007	12175
929.112	12376
929.218	12194
929.323	12232
929.428	12114
929.533	12262
929.638	12110
929.743	12064
929.848	12178
929.953	12121
930.058	11923
930.163	11874
930.267	11863
930.372	12087
930.477	11802
930.581	12007
930.685	11954
930.79	11695
930.894	11726
930.998	11668
931.103	11828
931.207	11486
931.311	11410
931.415	11258
931.519	11121
931.623	11090
