Data from test_V78500241_745.txt Node
Date: Fri Mar 25 15:46:57 CST 2022
User: usil
Spectrometer: V785-0024
Trigger mode: 0
Integration Time (sec): 4.000000E-1
Scans to average: 1
Nonlinearity correction enabled: false
Boxcar width: 0
Storing dark spectrum: false
XAxis mode: Wavelengths
Number of Pixels in Spectrum: 1024
>>>>>Begin Spectral Data<<<<<
801.071	27972
801.214	27937
801.356	27629
801.499	27682
801.641	27458
801.783	27587
801.926	27595
802.068	27553
802.211	27386
802.353	27386
802.496	27138
802.638	27093
802.78	27302
802.923	27180
803.065	27230
803.208	27165
803.35	27207
803.492	27310
803.635	27389
803.777	27180
803.919	27458
804.061	27507
804.204	27481
804.346	27367
804.488	27424
804.63	27416
804.773	27313
804.915	27523
805.057	27580
805.199	27435
805.341	27401
805.483	27534
805.626	27542
805.768	27553
805.91	27561
806.052	27701
806.194	27530
806.336	27766
806.478	27492
806.62	27469
806.762	27774
806.904	27816
807.046	28093
807.188	28006
807.33	27953
807.472	28017
807.614	27934
807.756	27968
807.898	27968
808.04	27720
808.182	27701
808.324	27743
808.465	27857
808.607	28055
808.749	28128
808.891	28207
809.033	28493
809.174	28310
809.316	28234
809.458	28246
809.6	28158
809.741	28386
809.883	28497
810.025	28626
810.166	28683
810.308	28455
810.45	28554
810.591	28436
810.733	28242
810.875	28337
811.016	28265
811.158	28177
811.299	28367
811.441	28363
811.582	28474
811.724	28257
811.865	28226
812.007	28223
812.148	28223
812.29	28249
812.431	28466
812.573	28421
812.714	28710
812.855	28641
812.997	28782
813.138	28991
813.279	28869
813.421	28733
813.562	28782
813.703	28694
813.845	28428
813.986	28211
814.127	28067
814.268	27835
814.41	27934
814.551	27983
814.692	28055
814.833	27846
814.974	27914
815.115	27968
815.256	27781
815.397	27800
815.539	27873
815.68	27709
815.821	27580
815.962	27785
816.103	27686
816.244	27629
816.385	27686
816.526	27641
816.666	27378
816.807	27116
816.948	27351
817.089	27477
817.23	27237
817.371	27165
817.512	27207
817.653	27214
817.793	27081
817.934	27195
818.075	27100
818.216	27218
818.356	27165
818.497	27074
818.638	26963
818.778	26982
818.919	26906
819.06	26979
819.2	27222
819.341	27245
819.481	27317
819.622	27268
819.762	27572
819.903	27405
820.043	27450
820.184	27310
820.324	27386
820.465	27443
820.605	27534
820.746	27344
820.886	27165
821.026	27332
821.167	27294
821.307	27386
821.447	27237
821.588	27313
821.728	26937
821.868	26967
822.008	26773
822.149	26735
822.289	26735
822.429	26412
822.569	26423
822.709	26294
822.849	26328
822.99	26191
823.13	26206
823.27	26100
823.41	25970
823.55	25883
823.69	26172
823.83	26046
823.97	25974
824.11	25845
824.25	25883
824.389	25769
824.529	25928
824.669	25898
824.809	25925
824.949	26005
825.089	25890
825.228	25928
825.368	25670
825.508	25795
825.648	25811
825.787	25769
825.927	25799
826.067	25635
826.206	25689
826.346	25780
826.485	25822
826.625	25578
826.765	25864
826.904	25693
827.044	25411
827.183	25419
827.323	25339
827.462	25495
827.601	25388
827.741	25293
827.88	25430
828.02	25369
828.159	25422
828.298	25392
828.437	25491
828.577	25373
828.716	25540
828.855	25327
828.994	25152
829.134	25164
829.273	25187
829.412	25122
829.551	25103
829.69	25110
829.829	25190
829.968	25324
830.107	25171
830.246	25084
830.385	25095
830.524	24962
830.663	25000
830.802	24837
830.941	24707
831.08	24566
831.219	24703
831.357	24806
831.496	24909
831.635	24688
831.774	24703
831.913	24650
832.051	24418
832.19	24448
832.329	24410
832.467	24380
832.606	24372
832.744	24350
832.883	24342
833.022	24361
833.16	24460
833.299	24513
833.437	24540
833.576	24452
833.714	24395
833.852	24456
833.991	24574
834.129	24544
834.267	24505
834.406	24395
834.544	24494
834.682	24547
834.821	24502
834.959	24711
835.097	24365
835.235	24544
835.373	24532
835.511	24437
835.65	24399
835.788	24266
835.926	24174
836.064	24144
836.202	24076
836.34	24235
836.478	24251
836.615	24270
836.753	24315
836.891	24232
837.029	24220
837.167	24296
837.305	24224
837.443	24201
837.58	24072
837.718	24190
837.856	24114
837.993	24129
838.131	24098
838.269	23969
838.406	24174
838.544	23840
838.681	23687
838.819	23767
838.956	23573
839.094	23630
839.231	23592
839.369	23832
839.506	24064
839.643	23824
839.781	23745
839.918	23577
840.055	23562
840.193	23608
840.33	23520
840.467	23474
840.604	23577
840.742	23863
840.879	23486
841.016	23577
841.153	23356
841.29	23608
841.427	23551
841.564	23558
841.701	23433
841.838	23474
841.975	23535
842.112	23398
842.249	23322
842.385	23368
842.522	23512
842.659	23402
842.796	23292
842.933	23261
843.069	23239
843.206	23170
843.343	23292
843.479	23261
843.616	23208
843.752	23143
843.889	23105
844.025	23132
844.162	22991
844.298	23113
844.435	23105
844.571	23018
844.708	23231
844.844	23254
844.98	23193
845.117	23162
845.253	23018
845.389	22953
845.525	23105
845.661	22919
845.798	22774
845.934	22740
846.07	22797
846.206	22930
846.342	22930
846.478	22752
846.614	22637
846.75	22478
846.886	22523
847.022	22637
847.158	22645
847.294	22455
847.429	22523
847.565	22535
847.701	22733
847.837	22158
847.972	22223
848.108	22234
848.244	22265
848.379	22158
848.515	22078
848.65	22078
848.786	22143
848.921	22143
849.057	22169
849.192	22249
849.328	22280
849.463	22177
849.598	22051
849.734	22036
849.869	21930
850.004	21918
850.14	21895
850.275	21800
850.41	21835
850.545	21876
850.68	21899
850.815	21960
850.95	21800
851.085	22112
851.22	22128
851.355	22036
851.49	21842
851.625	21766
851.76	21816
851.895	21804
852.03	21774
852.165	21835
852.299	21941
852.434	21915
852.569	21968
852.703	21915
852.838	22002
852.973	21991
853.107	22048
853.242	21827
853.376	21717
853.511	21614
853.645	21553
853.78	21816
853.914	21641
854.048	21774
854.183	21625
854.317	21835
854.451	21915
854.585	21789
854.72	21717
854.854	21774
854.988	21614
855.122	21694
855.256	21644
855.39	21641
855.524	21743
855.658	21644
855.792	21686
855.926	21774
856.06	21667
856.194	21781
856.327	21656
856.461	21701
856.595	21538
856.729	21587
856.862	21705
856.996	21701
857.13	21759
857.263	21816
857.397	21823
857.53	21823
857.664	21675
857.797	21789
857.931	21781
858.064	21800
858.197	21869
858.331	21675
858.464	21538
858.597	21648
858.731	21671
858.864	21671
858.997	21644
859.13	21648
859.263	21770
859.396	21720
859.529	21564
859.662	21808
859.795	21671
859.928	21679
860.061	21850
860.194	21800
860.327	21732
860.46	21770
860.592	21850
860.725	21892
860.858	21846
860.99	21675
861.123	21572
861.256	21622
861.388	21633
861.521	22440
861.653	21542
861.786	21481
861.918	21481
862.05	21587
862.183	21641
862.315	21629
862.447	21675
862.58	21667
862.712	21416
862.844	21481
862.976	21538
863.108	21397
863.24	21960
863.372	21317
863.504	21454
863.636	21374
863.768	21553
863.9	21458
864.032	21443
864.164	21306
864.296	21443
864.428	21625
864.559	21363
864.691	21481
864.823	21458
864.954	21397
865.086	21397
865.217	21351
865.349	21218
865.48	21378
865.612	21393
865.743	21515
865.875	21241
866.006	21203
866.137	21264
866.269	21237
866.4	21348
866.531	21272
866.662	21138
866.793	21211
866.924	21207
867.055	21325
867.186	21310
867.317	21237
867.448	21112
867.579	21237
867.71	21165
867.841	21123
867.972	21135
868.103	21218
868.233	21119
868.364	21325
868.495	21386
868.625	21511
868.756	21492
868.886	21382
869.017	21431
869.147	21587
869.278	21591
869.408	21492
869.539	21397
869.669	21618
869.799	21462
869.929	21496
870.06	21549
870.19	21827
870.32	21679
870.45	21823
870.58	21842
870.71	21850
870.84	21892
870.97	21907
871.1	21854
871.23	22173
871.36	21994
871.489	21899
871.619	22040
871.749	21964
871.879	22032
872.008	22188
872.138	22196
872.267	22093
872.397	21846
872.526	21835
872.656	21823
872.785	21876
872.915	22169
873.044	22139
873.173	22090
873.303	22166
873.432	22181
873.561	22223
873.69	22109
873.819	22154
873.948	21991
874.077	22040
874.206	22044
874.335	22013
874.464	22147
874.593	22421
874.722	22211
874.851	22306
874.979	22413
875.108	22421
875.237	22257
875.365	22265
875.494	22322
875.623	22299
875.751	22226
875.88	22382
876.008	22481
876.136	22459
876.265	22672
876.393	22824
876.521	22698
876.65	22782
876.778	22649
876.906	22706
877.034	22607
877.162	22577
877.29	22565
877.418	22641
877.546	22653
877.674	22759
877.802	22721
877.93	22596
878.058	22630
878.185	22615
878.313	22573
878.441	22588
878.568	22485
878.696	22500
878.824	22626
878.951	22812
879.079	22748
879.206	23029
879.333	22820
879.461	22664
879.588	22869
879.715	22869
879.842	22919
879.97	22588
880.097	22531
880.224	22531
880.351	22424
880.478	22421
880.605	22500
880.732	22417
880.859	22702
880.986	22466
881.112	22466
881.239	22276
881.366	22226
881.493	22097
881.619	22200
881.746	22101
881.872	22021
881.999	21972
882.125	21937
882.252	22124
882.378	21953
882.505	22207
882.631	21941
882.757	21736
882.883	21937
883.01	21736
883.136	21698
883.262	21603
883.388	21698
883.514	21736
883.64	21751
883.766	21637
883.892	21557
884.018	21618
884.143	21709
884.269	21709
884.395	21473
884.52	21386
884.646	21378
884.772	21359
884.897	21310
885.023	21488
885.148	21416
885.274	21587
885.399	21443
885.524	21397
885.65	21393
885.775	21329
885.9	21249
886.025	21496
886.15	21405
886.275	21287
886.4	21207
886.525	21321
886.65	21222
886.775	21313
886.9	21477
887.025	21549
887.149	21325
887.274	21249
887.399	21081
887.523	21131
887.648	21112
887.773	21112
887.897	21173
888.021	21237
888.146	21104
888.27	21245
888.395	21233
888.519	21245
888.643	21154
888.767	21188
888.891	21036
889.015	20994
889.139	20948
889.263	20857
889.387	20986
889.511	21230
889.635	21154
889.759	20864
889.883	20872
890.006	21020
890.13	21043
890.254	20826
890.377	20868
890.501	20682
890.624	20754
890.748	20716
890.871	20629
890.995	20400
891.118	20434
891.241	20549
891.364	20514
891.488	20625
891.611	20587
891.734	20511
891.857	20461
891.98	20556
892.103	20682
892.226	20465
892.349	20480
892.471	20282
892.594	20404
892.717	20434
892.839	20374
892.962	20370
893.085	20446
893.207	20465
893.33	20298
893.452	20305
893.575	20530
893.697	20446
893.819	20533
893.941	20545
894.064	20492
894.186	20374
894.308	20248
894.43	20507
894.552	20484
894.674	20366
894.796	20396
894.918	20332
895.04	20320
895.161	20450
895.283	20503
895.405	20320
895.526	20393
895.648	20351
895.769	20393
895.891	20423
896.012	20434
896.134	20389
896.255	20442
896.376	20385
896.498	20415
896.619	20355
896.74	20408
896.861	20590
896.982	20705
897.103	20853
897.224	20583
897.345	20735
897.466	20613
897.587	20648
897.708	20670
897.828	20693
897.949	20571
898.07	20442
898.19	20575
898.311	20739
898.431	20484
898.552	20587
898.672	20560
898.792	20640
898.913	20682
899.033	20530
899.153	20434
899.273	20320
899.393	20290
899.513	20476
899.633	20419
899.753	20320
899.873	20256
899.993	20389
900.113	20358
900.232	20374
900.352	20286
900.472	20301
900.591	20176
900.711	20161
900.83	20145
900.95	20275
901.069	20244
901.189	20001
901.308	19852
901.427	19734
901.546	19757
901.665	19731
901.784	19655
901.904	19563
902.023	19521
902.141	19316
902.26	19324
902.379	19430
902.498	19266
902.617	19156
902.735	19183
902.854	19156
902.973	19072
903.091	18905
903.21	18947
903.328	18886
903.446	18814
903.565	18730
903.683	18635
903.801	18582
903.919	18681
904.038	18631
904.156	18578
904.274	18494
904.392	18410
904.51	18407
904.627	18418
904.745	18490
904.863	18494
904.981	18190
905.098	18121
905.216	18072
905.334	18213
905.451	18041
905.569	18098
905.686	18194
905.803	18091
905.921	17874
906.038	18057
906.155	17870
906.272	17923
906.389	17920
906.506	17729
906.623	17627
906.74	17627
906.857	17547
906.974	17630
907.091	17684
907.208	17779
907.324	17649
907.441	17566
907.557	17414
907.674	17417
907.79	17330
907.907	17322
908.023	17341
908.139	17433
908.256	17269
908.372	17239
908.488	17242
908.604	17151
908.72	17121
908.836	17121
908.952	17128
909.068	17029
909.184	17181
909.3	17037
909.415	17166
909.531	17010
909.647	16824
909.762	16721
909.878	16710
909.993	16744
910.108	16748
910.224	16653
910.339	16820
910.454	16580
910.57	16599
910.685	16519
910.8	16824
910.915	16736
911.03	16535
911.145	16375
911.259	16306
911.374	16367
911.489	16219
911.604	16257
911.718	16082
911.833	16086
911.947	16021
912.062	16105
912.176	16135
912.291	16177
912.405	16207
912.519	16360
912.633	16249
912.748	16211
912.862	16013
912.976	15953
913.09	15831
913.204	15899
913.318	15918
913.431	16006
913.545	16131
913.659	16013
913.772	15911
913.886	15873
914	15705
914.113	15911
914.226	15816
914.34	15743
914.453	15629
914.566	15759
914.68	15595
914.793	15572
914.906	15378
915.019	15260
915.132	15298
915.245	15264
915.358	15408
915.47	15393
915.583	15291
915.696	15382
915.809	15443
915.921	15466
916.034	15275
916.146	15237
916.259	15275
916.371	15218
916.483	15165
916.595	15104
916.708	15100
916.82	15138
916.932	14963
917.044	15093
917.156	15058
917.268	15017
917.38	15070
917.491	15028
917.603	14914
917.715	15074
917.826	15032
917.938	14891
918.049	14739
918.161	14819
918.272	15085
918.384	14998
918.495	14937
918.606	14777
918.717	14579
918.828	14743
918.939	14727
919.05	14674
919.161	14689
919.272	14606
919.383	14564
919.494	14834
919.604	14895
919.715	14746
919.826	14724
919.936	14659
920.047	14826
920.157	14712
920.267	14819
920.378	14716
920.488	14621
920.598	14960
920.708	15017
920.818	14872
920.928	14750
921.038	15013
921.148	14861
921.258	14667
921.368	14587
921.477	14469
921.587	14469
921.697	14351
921.806	14461
921.916	14256
922.025	14134
922.134	14168
922.244	14096
922.353	14084
922.462	13947
922.571	13936
922.68	13769
922.789	13670
922.898	13708
923.007	13578
923.116	13830
923.224	13658
923.333	13715
923.442	13518
923.55	13441
923.659	13620
923.767	13514
923.876	13457
923.984	13502
924.092	13407
924.201	13464
924.309	13441
924.417	13472
924.525	13362
924.633	13464
924.741	14237
924.849	13263
924.956	13289
925.064	13190
925.172	13061
925.279	13072
925.387	13110
925.494	13152
925.602	13278
925.709	13164
925.816	13015
925.924	13034
926.031	13053
926.138	13008
926.245	13103
926.352	13023
926.459	13053
926.566	13164
926.673	13004
926.779	12791
926.886	12806
926.993	12795
927.099	12757
927.206	12544
927.312	12585
927.419	12715
927.525	12692
927.631	12741
927.737	12555
927.843	12494
927.95	12422
928.056	12589
928.162	12532
928.267	12566
928.373	13072
928.479	12608
928.585	12334
928.69	12471
928.796	12471
928.901	12342
929.007	12254
929.112	12369
929.218	12281
929.323	12228
929.428	12205
929.533	12361
929.638	12148
929.743	12155
929.848	12224
929.953	12148
930.058	12060
930.163	11870
930.267	11904
930.372	12041
930.477	11832
930.581	12152
930.685	11980
930.79	11741
930.894	11809
930.998	11832
931.103	11950
931.207	11562
931.311	11558
931.415	11368
931.519	11223
931.623	11147
