Data from test_V78500241_1205.txt Node
Date: Fri Mar 25 15:50:08 CST 2022
User: usil
Spectrometer: V785-0024
Trigger mode: 0
Integration Time (sec): 4.000000E-1
Scans to average: 1
Nonlinearity correction enabled: false
Boxcar width: 0
Storing dark spectrum: false
XAxis mode: Wavelengths
Number of Pixels in Spectrum: 1024
>>>>>Begin Spectral Data<<<<<
801.071	28687
801.214	28493
801.356	28474
801.499	28459
801.641	28204
801.783	28284
801.926	28401
802.068	28211
802.211	28246
802.353	28029
802.496	27972
802.638	28036
802.78	27964
802.923	27800
803.065	27892
803.208	27972
803.35	27972
803.492	28078
803.635	28185
803.777	27972
803.919	28082
804.061	28390
804.204	28223
804.346	28322
804.488	28036
804.63	28086
804.773	28162
804.915	28166
805.057	28329
805.199	28200
805.341	28352
805.483	28356
805.626	28230
805.768	28257
805.91	28371
806.052	28341
806.194	28295
806.336	28500
806.478	28459
806.62	28318
806.762	28474
806.904	28580
807.046	28915
807.188	28706
807.33	28778
807.472	28919
807.614	28733
807.756	28755
807.898	28580
808.04	28748
808.182	28649
808.324	28698
808.465	28740
808.607	28965
808.749	29136
808.891	29151
809.033	29117
809.174	29155
809.316	29098
809.458	29071
809.6	29083
809.741	29048
809.883	29200
810.025	29414
810.166	29486
810.308	29391
810.45	29258
810.591	29162
810.733	29083
810.875	28987
811.016	28942
811.158	28991
811.299	29197
811.441	29277
811.582	29166
811.724	29193
811.865	29060
812.007	29033
812.148	29037
812.29	29105
812.431	29166
812.573	29402
812.714	29524
812.855	29657
812.997	29653
813.138	29882
813.279	29790
813.421	29608
813.562	29501
813.703	29375
813.845	29258
813.986	29117
814.127	28881
814.268	28812
814.41	28725
814.551	28736
814.692	28915
814.833	28748
814.974	28641
815.115	28828
815.256	28569
815.397	28672
815.539	28618
815.68	28599
815.821	28538
815.962	28687
816.103	28565
816.244	28398
816.385	28363
816.526	28295
816.666	28226
816.807	28177
816.948	28090
817.089	28177
817.23	28112
817.371	27994
817.512	28086
817.653	28219
817.793	28013
817.934	28086
818.075	28097
818.216	28181
818.356	28002
818.497	27975
818.638	27926
818.778	28070
818.919	27800
819.06	28029
819.2	27968
819.341	28101
819.481	28177
819.622	28329
819.762	28497
819.903	28322
820.043	28249
820.184	28177
820.324	28280
820.465	28143
820.605	28219
820.746	28230
820.886	28029
821.026	28223
821.167	28150
821.307	28207
821.447	28135
821.588	27983
821.728	27808
821.868	27698
822.008	27667
822.149	27736
822.289	27637
822.429	27412
822.569	27199
822.709	27287
822.849	27188
822.99	27009
823.13	27001
823.27	27032
823.41	27051
823.55	26746
823.69	26921
823.83	26887
823.97	26910
824.11	26823
824.25	26705
824.389	26552
824.529	26792
824.669	26754
824.809	26838
824.949	26815
825.089	27001
825.228	26762
825.368	26583
825.508	26826
825.648	26522
825.787	26670
825.927	26560
826.067	26545
826.206	26632
826.346	26678
826.485	26807
826.625	26655
826.765	26731
826.904	26511
827.044	26339
827.183	26412
827.323	26389
827.462	26499
827.601	26320
827.741	26290
827.88	26343
828.02	26275
828.159	26218
828.298	26431
828.437	26457
828.577	26389
828.716	26381
828.855	26267
828.994	26050
829.134	26122
829.273	26157
829.412	26062
829.551	26012
829.69	26035
829.829	26035
829.968	26221
830.107	26092
830.246	26111
830.385	25902
830.524	26001
830.663	25868
830.802	25719
830.941	25708
831.08	25571
831.219	25772
831.357	25731
831.496	25883
831.635	25651
831.774	25529
831.913	25639
832.051	25575
832.19	25525
832.329	25445
832.467	25384
832.606	25339
832.744	25213
832.883	25350
833.022	25301
833.16	25289
833.299	25434
833.437	25441
833.576	25381
833.714	25441
833.852	25434
833.991	25476
834.129	25441
834.267	25510
834.406	25434
834.544	25438
834.682	25373
834.821	25407
834.959	25453
835.097	25369
835.235	25381
835.373	25415
835.511	25392
835.65	25164
835.788	25304
835.926	24924
836.064	24951
836.202	25069
836.34	25251
836.478	25198
836.615	25221
836.753	25263
836.891	25255
837.029	25225
837.167	25209
837.305	25019
837.443	24973
837.58	25034
837.718	25099
837.856	25129
837.993	24916
838.131	25027
838.269	24935
838.406	24977
838.544	24825
838.681	24578
838.819	24772
838.956	24395
839.094	24608
839.231	24696
839.369	24696
839.506	25012
839.643	24711
839.781	24532
839.918	24365
840.055	24555
840.193	24410
840.33	24456
840.467	24403
840.604	24460
840.742	24661
840.879	24296
841.016	24395
841.153	24213
841.29	24441
841.427	24426
841.564	24418
841.701	24292
841.838	24353
841.975	24277
842.112	24429
842.249	24251
842.385	24155
842.522	24407
842.659	24262
842.796	24163
842.933	24034
843.069	24102
843.206	24034
843.343	24171
843.479	24186
843.616	24235
843.752	23980
843.889	23950
844.025	24038
844.162	23794
844.298	24121
844.435	23984
844.571	23912
844.708	24064
844.844	24015
844.98	24060
845.117	23992
845.253	23745
845.389	23737
845.525	23752
845.661	23923
845.798	23733
845.934	23642
846.07	23764
846.206	23722
846.342	23710
846.478	23707
846.614	23482
846.75	23341
846.886	23402
847.022	23444
847.158	23512
847.294	23368
847.429	23353
847.565	23387
847.701	23581
847.837	23220
847.972	23041
848.108	23292
848.244	23220
848.379	23029
848.515	22923
848.65	23006
848.786	22965
848.921	22923
849.057	23090
849.192	23181
849.328	23006
849.463	22904
849.598	22980
849.734	22774
849.869	22736
850.004	22717
850.14	22854
850.275	22767
850.41	22767
850.545	22679
850.68	22653
850.815	22778
850.95	22736
851.085	22980
851.22	22729
851.355	22710
851.49	22603
851.625	22767
851.76	22626
851.895	22622
852.03	22569
852.165	22706
852.299	22805
852.434	22691
852.569	22862
852.703	22809
852.838	22656
852.973	22908
853.107	22862
853.242	22656
853.376	22725
853.511	22432
853.645	22413
853.78	22489
853.914	22626
854.048	22519
854.183	22519
854.317	22546
854.451	22759
854.585	22618
854.72	22611
854.854	22649
854.988	22557
855.122	22542
855.256	22333
855.39	22504
855.524	22557
855.658	22637
855.792	22542
855.926	22592
856.06	22577
856.194	22702
856.327	22573
856.461	22371
856.595	22592
856.729	22577
856.862	22649
856.996	22538
857.13	22656
857.263	22634
857.397	22713
857.53	22516
857.664	22538
857.797	22672
857.931	22637
858.064	22531
858.197	22580
858.331	22538
858.464	22497
858.597	22394
858.731	22573
858.864	22485
858.997	22394
859.13	22554
859.263	22508
859.396	22683
859.529	22516
859.662	22497
859.795	22603
859.928	22497
860.061	22599
860.194	22778
860.327	22561
860.46	22516
860.592	22694
860.725	22782
860.858	22607
860.99	22527
861.123	22481
861.256	22440
861.388	22554
861.521	23269
861.653	22314
861.786	22234
861.918	22440
862.05	22474
862.183	22485
862.315	22531
862.447	22481
862.58	22489
862.712	22253
862.844	22200
862.976	22246
863.108	22375
863.24	22649
863.372	22238
863.504	22348
863.636	22211
863.768	22204
863.9	22356
864.032	22105
864.164	22318
864.296	22185
864.428	22299
864.559	22200
864.691	22287
864.823	22371
864.954	22147
865.086	22219
865.217	22204
865.349	22112
865.48	22192
865.612	22158
865.743	22128
865.875	22268
866.006	22105
866.137	22207
866.269	22120
866.4	22169
866.531	22116
866.662	22025
866.793	22070
866.924	21953
867.055	22105
867.186	22124
867.317	22090
867.448	21915
867.579	22078
867.71	21911
867.841	21941
867.972	22131
868.103	22032
868.233	21960
868.364	22055
868.495	22143
868.625	22329
868.756	22443
868.886	22131
869.017	22299
869.147	22413
869.278	22344
869.408	22341
869.539	22280
869.669	22417
869.799	22424
869.929	22500
870.06	22443
870.19	22618
870.32	22573
870.45	22645
870.58	22675
870.71	22778
870.84	22881
870.97	22767
871.1	22702
871.23	22752
871.36	22949
871.489	22858
871.619	22896
871.749	22824
871.879	22987
872.008	22946
872.138	22961
872.267	22972
872.397	22763
872.526	22580
872.656	22736
872.785	22668
872.915	23071
873.044	22961
873.173	22881
873.303	22987
873.432	22919
873.561	23022
873.69	22984
873.819	22938
873.948	22923
874.077	22847
874.206	22835
874.335	22885
874.464	23056
874.593	23204
874.722	23162
874.851	23208
874.979	23269
875.108	23284
875.237	22961
875.365	22999
875.494	23041
875.623	23044
875.751	23109
875.88	23162
876.008	23311
876.136	23318
876.265	23448
876.393	23531
876.521	23615
876.65	23600
876.778	23356
876.906	23395
877.034	23528
877.162	23512
877.29	23433
877.418	23273
877.546	23459
877.674	23364
877.802	23372
877.93	23421
878.058	23410
878.185	23254
878.313	23395
878.441	23497
878.568	23356
878.696	23337
878.824	23516
878.951	23486
879.079	23551
879.206	23783
879.333	23535
879.461	23448
879.588	23387
879.715	23589
879.842	23691
879.97	23551
880.097	23216
880.224	23402
880.351	23223
880.478	23307
880.605	23242
880.732	23178
880.859	23471
880.986	23349
881.112	23315
881.239	23239
881.366	23033
881.493	22999
881.619	22847
881.746	22908
881.872	22767
881.999	22759
882.125	22744
882.252	22744
882.378	22710
882.505	22805
882.631	22782
882.757	22554
882.883	22603
883.01	22493
883.136	22398
883.262	22333
883.388	22360
883.514	22451
883.64	22409
883.766	22440
883.892	22230
884.018	22303
884.143	22554
884.269	22508
884.395	22139
884.52	21979
884.646	22090
884.772	22105
884.897	21998
885.023	22192
885.148	22242
885.274	22284
885.399	22124
885.524	22276
885.65	22124
885.775	22181
885.9	22185
886.025	22352
886.15	22074
886.275	22078
886.4	22032
886.525	21998
886.65	22063
886.775	22002
886.9	22219
887.025	22211
887.149	22059
887.274	21953
887.399	21838
887.523	21903
887.648	21842
887.773	21755
887.897	22029
888.021	21979
888.146	21903
888.27	21869
888.395	21922
888.519	21937
888.643	21835
888.767	21991
888.891	21842
889.015	21827
889.139	21637
889.263	21618
889.387	21686
889.511	21972
889.635	21804
889.759	21572
889.883	21675
890.006	21812
890.13	21812
890.254	21576
890.377	21663
890.501	21420
890.624	21443
890.748	21435
890.871	21370
890.995	21317
891.118	21154
891.241	21393
891.364	21256
891.488	21321
891.611	21188
891.734	21233
891.857	21485
891.98	21222
892.103	21260
892.226	21287
892.349	21192
892.471	21028
892.594	21195
892.717	21176
892.839	21093
892.962	21161
893.085	21138
893.207	21142
893.33	21070
893.452	21009
893.575	21272
893.697	21119
893.819	21173
893.941	21287
894.064	21287
894.186	21051
894.308	20998
894.43	21195
894.552	21154
894.674	21298
894.796	20967
894.918	21085
895.04	20944
895.161	21104
895.283	21074
895.405	21039
895.526	21058
895.648	21096
895.769	21020
895.891	21195
896.012	21150
896.134	21165
896.255	21062
896.376	21074
896.498	21070
896.619	21161
896.74	21100
896.861	21169
896.982	21412
897.103	21580
897.224	21249
897.345	21340
897.466	21173
897.587	21313
897.708	21435
897.828	21386
897.949	21279
898.07	21039
898.19	21203
898.311	21241
898.431	21302
898.552	21264
898.672	21313
898.792	21275
898.913	21199
899.033	21077
899.153	21157
899.273	20990
899.393	21066
899.513	21074
899.633	20967
899.753	21036
899.873	20910
899.993	21047
900.113	20960
900.232	20849
900.352	20967
900.472	20830
900.591	20796
900.711	20754
900.83	20823
900.95	20933
901.069	21005
901.189	20609
901.308	20408
901.427	20434
901.546	20290
901.665	20309
901.784	20328
901.904	20237
902.023	20142
902.141	19875
902.26	19894
902.379	19921
902.498	19772
902.617	19738
902.735	19814
902.854	19807
902.973	19700
903.091	19460
903.21	19419
903.328	19518
903.446	19403
903.565	19327
903.683	19358
903.801	19209
903.919	19441
904.038	19266
904.156	19012
904.274	19160
904.392	19072
904.51	19091
904.627	19027
904.745	19160
904.863	19164
904.981	18886
905.098	18722
905.216	18852
905.334	18814
905.451	18730
905.569	18738
905.686	18779
905.803	18700
905.921	18509
906.038	18578
906.155	18604
906.272	18426
906.389	18380
906.506	18194
906.623	18304
906.74	18251
906.857	18186
906.974	18155
907.091	18334
907.208	18376
907.324	18441
907.441	18114
907.557	18041
907.674	17973
907.79	17927
907.907	17980
908.023	17984
908.139	17920
908.256	17980
908.372	17756
908.488	17847
908.604	17828
908.72	17649
908.836	17657
908.952	17570
909.068	17748
909.184	17786
909.3	17752
909.415	17581
909.531	17596
909.647	17452
909.762	17410
909.878	17364
909.993	17353
910.108	17254
910.224	17299
910.339	17360
910.454	17140
910.57	17189
910.685	17094
910.8	17364
910.915	17322
911.03	17151
911.145	17018
911.259	16991
911.374	16911
911.489	16915
911.604	16812
911.718	16691
911.833	16660
911.947	16542
912.062	16531
912.176	16774
912.291	16675
912.405	16793
912.519	16881
912.633	16927
912.748	16721
912.862	16702
912.976	16592
913.09	16527
913.204	16493
913.318	16558
913.431	16626
913.545	16569
913.659	16668
913.772	16428
913.886	16386
914	16238
914.113	16318
914.226	16443
914.34	16314
914.453	16177
914.566	16272
914.68	16185
914.793	16207
914.906	16029
915.019	15926
915.132	15888
915.245	15941
915.358	15895
915.47	15861
915.583	15930
915.696	15892
915.809	15956
915.921	15960
916.034	15739
916.146	15816
916.259	15766
916.371	15770
916.483	15819
916.595	15644
916.708	15720
916.82	15732
916.932	15606
917.044	15743
917.156	15652
917.268	15477
917.38	15591
917.491	15454
917.603	15584
917.715	15622
917.826	15568
917.938	15450
918.049	15332
918.161	15473
918.272	15576
918.384	15610
918.495	15389
918.606	15268
918.717	15249
918.828	15222
918.939	15279
919.05	15207
919.161	15237
919.272	14937
919.383	15017
919.494	15325
919.604	15408
919.715	15268
919.826	15192
919.936	15104
920.047	15272
920.157	15214
920.267	15416
920.378	15211
920.488	15252
920.598	15405
920.708	15466
920.818	15332
920.928	15252
921.038	15523
921.148	15492
921.258	15169
921.368	15005
921.477	14937
921.587	14876
921.697	14708
921.806	14941
921.916	14868
922.025	14564
922.134	14625
922.244	14518
922.353	14606
922.462	14381
922.571	14358
922.68	14199
922.789	14233
922.898	14123
923.007	14153
923.116	14263
923.224	14153
923.333	14115
923.442	14039
923.55	13997
923.659	14020
923.767	14035
923.876	13967
923.984	14001
924.092	13932
924.201	13925
924.309	13860
924.417	13856
924.525	13772
924.633	13860
924.741	14640
924.849	13571
924.956	13757
925.064	13636
925.172	13426
925.279	13537
925.387	13476
925.494	13552
925.602	13681
925.709	13632
925.816	13460
925.924	13529
926.031	13578
926.138	13518
926.245	13567
926.352	13384
926.459	13521
926.566	13552
926.673	13422
926.779	13274
926.886	13274
926.993	13225
927.099	13152
927.206	13183
927.312	13023
927.419	13171
927.525	13076
927.631	13179
927.737	12966
927.843	12958
927.95	12814
928.056	12840
928.162	13042
928.267	12973
928.373	13670
928.479	12935
928.585	12749
928.69	12810
928.796	12935
928.901	12791
929.007	12578
929.112	12833
929.218	12688
929.323	12642
929.428	12639
929.533	12734
929.638	12563
929.743	12589
929.848	12665
929.953	12585
930.058	12452
930.163	12224
930.267	12338
930.372	12479
930.477	12323
930.581	12536
930.685	12403
930.79	12209
930.894	12258
930.998	12140
931.103	12209
931.207	11946
931.311	11870
931.415	11775
931.519	11509
931.623	11623
