Data from test_V78500241_1688.txt Node
Date: Fri Mar 25 15:53:29 CST 2022
User: usil
Spectrometer: V785-0024
Trigger mode: 0
Integration Time (sec): 4.000000E-1
Scans to average: 1
Nonlinearity correction enabled: false
Boxcar width: 0
Storing dark spectrum: false
XAxis mode: Wavelengths
Number of Pixels in Spectrum: 1024
>>>>>Begin Spectral Data<<<<<
801.071	28318
801.214	28356
801.356	28013
801.499	28021
801.641	27937
801.783	27888
801.926	27934
802.068	28010
802.211	27759
802.353	27827
802.496	27603
802.638	27515
802.78	27408
802.923	27656
803.065	27378
803.208	27652
803.35	27401
803.492	27530
803.635	27759
803.777	27557
803.919	27770
804.061	28116
804.204	27842
804.346	27728
804.488	27690
804.63	27808
804.773	27603
804.915	27808
805.057	27869
805.199	27675
805.341	27964
805.483	27819
805.626	27899
805.768	27857
805.91	27903
806.052	27781
806.194	27994
806.336	28059
806.478	27953
806.62	27968
806.762	28128
806.904	28048
807.046	28268
807.188	28367
807.33	28348
807.472	28398
807.614	28314
807.756	28268
807.898	28207
808.04	28063
808.182	28105
808.324	28207
808.465	28234
808.607	28428
808.749	28569
808.891	28561
809.033	28672
809.174	28615
809.316	28668
809.458	28497
809.6	28603
809.741	28733
809.883	28668
810.025	28809
810.166	28850
810.308	28820
810.45	28839
810.591	28645
810.733	28653
810.875	28561
811.016	28455
811.158	28489
811.299	28592
811.441	28668
811.582	28679
811.724	28516
811.865	28584
812.007	28580
812.148	28664
812.29	28519
812.431	28691
812.573	28839
812.714	28938
812.855	29159
812.997	29189
813.138	29254
813.279	29102
813.421	29136
813.562	29105
813.703	28957
813.845	28698
813.986	28554
814.127	28348
814.268	28280
814.41	28325
814.551	28352
814.692	28276
814.833	28166
814.974	28158
815.115	28462
815.256	28177
815.397	28192
815.539	28021
815.68	28150
815.821	28036
815.962	28097
816.103	28120
816.244	27972
816.385	27876
816.526	27869
816.666	27663
816.807	27553
816.948	27644
817.089	27701
817.23	27583
817.371	27622
817.512	27469
817.653	27481
817.793	27443
817.934	27576
818.075	27515
818.216	27511
818.356	27542
818.497	27431
818.638	27256
818.778	27374
818.919	27317
819.06	27340
819.2	27424
819.341	27595
819.481	27576
819.622	27751
819.762	27770
819.903	27876
820.043	27842
820.184	27747
820.324	27595
820.465	27671
820.605	27603
820.746	27728
820.886	27606
821.026	27690
821.167	27606
821.307	27720
821.447	27439
821.588	27466
821.728	27264
821.868	27214
822.008	27077
822.149	27150
822.289	27001
822.429	26864
822.569	26731
822.709	26743
822.849	26556
822.99	26522
823.13	26503
823.27	26484
823.41	26317
823.55	26339
823.69	26332
823.83	26210
823.97	26404
824.11	26119
824.25	26183
824.389	26206
824.529	26275
824.669	26122
824.809	26237
824.949	26328
825.089	26305
825.228	26294
825.368	26084
825.508	26077
825.648	26153
825.787	25966
825.927	26263
826.067	26119
826.206	26084
826.346	26119
826.485	26149
826.625	26054
826.765	26229
826.904	26050
827.044	25883
827.183	25879
827.323	25723
827.462	25868
827.601	25921
827.741	25894
827.88	25624
828.02	25643
828.159	25753
828.298	25780
828.437	25807
828.577	25693
828.716	25906
828.855	25601
828.994	25441
829.134	25445
829.273	25434
829.412	25483
829.551	25422
829.69	25499
829.829	25540
829.968	25567
830.107	25594
830.246	25396
830.385	25472
830.524	25377
830.663	25327
830.802	25194
830.941	25110
831.08	25129
831.219	25221
831.357	25247
831.496	25141
831.635	24996
831.774	25061
831.913	25042
832.051	24985
832.19	24852
832.329	24951
832.467	24768
832.606	24700
832.744	24673
832.883	24856
833.022	24856
833.16	24601
833.299	24814
833.437	24821
833.576	24878
833.714	24730
833.852	24939
833.991	24817
834.129	24875
834.267	24981
834.406	24909
834.544	24844
834.682	24856
834.821	24711
834.959	24981
835.097	24760
835.235	24840
835.373	24840
835.511	24806
835.65	24612
835.788	24745
835.926	24604
836.064	24426
836.202	24456
836.34	24684
836.478	24684
836.615	24620
836.753	24566
836.891	24658
837.029	24597
837.167	24585
837.305	24536
837.443	24593
837.58	24498
837.718	24589
837.856	24555
837.993	24517
838.131	24566
838.269	24327
838.406	24418
838.544	24414
838.681	24114
838.819	23942
838.956	23927
839.094	23988
839.231	23885
839.369	24079
839.506	24308
839.643	24197
839.781	23855
839.918	23965
840.055	23950
840.193	23885
840.33	23821
840.467	23855
840.604	23904
840.742	24251
840.879	23931
841.016	23771
841.153	23726
841.29	23973
841.427	23878
841.564	23882
841.701	23828
841.838	23802
841.975	23691
842.112	23786
842.249	23619
842.385	23566
842.522	23863
842.659	23661
842.796	23710
842.933	23680
843.069	23410
843.206	23596
843.343	23786
843.479	23634
843.616	23592
843.752	23440
843.889	23360
844.025	23558
844.162	23440
844.298	23356
844.435	23421
844.571	23398
844.708	23303
844.844	23417
844.98	23596
845.117	23509
845.253	23292
845.389	23151
845.525	23322
845.661	23216
845.798	23052
845.934	23189
846.07	23052
846.206	23014
846.342	23284
846.478	23083
846.614	22862
846.75	22740
846.886	22885
847.022	22930
847.158	23022
847.294	22885
847.429	22877
847.565	22869
847.701	23083
847.837	22569
847.972	22554
848.108	22660
848.244	22687
848.379	22436
848.515	22413
848.65	22481
848.786	22375
848.921	22337
849.057	22618
849.192	22443
849.328	22413
849.463	22424
849.598	22390
849.734	22322
849.869	22257
850.004	22249
850.14	22299
850.275	22158
850.41	22154
850.545	22169
850.68	22120
850.815	22219
850.95	22143
851.085	22284
851.22	22299
851.355	22207
851.49	22139
851.625	22048
851.76	22188
851.895	22051
852.03	22234
852.165	22261
852.299	22272
852.434	22253
852.569	22185
852.703	22207
852.838	22192
852.973	22318
853.107	22280
853.242	22177
853.376	22059
853.511	21911
853.645	21884
853.78	22200
853.914	22082
854.048	21953
854.183	22032
854.317	21987
854.451	22211
854.585	22097
854.72	22017
854.854	22090
854.988	21930
855.122	22013
855.256	21930
855.39	21972
855.524	22074
855.658	22070
855.792	22074
855.926	21998
856.06	22025
856.194	22017
856.327	22036
856.461	22105
856.595	22036
856.729	21903
856.862	22166
856.996	22112
857.13	22017
857.263	22063
857.397	22059
857.53	22013
857.664	22131
857.797	22036
857.931	22128
858.064	22070
858.197	22120
858.331	21975
858.464	21846
858.597	21911
858.731	21907
858.864	21930
858.997	21812
859.13	22086
859.263	22040
859.396	22181
859.529	21991
859.662	21964
859.795	21926
859.928	22055
860.061	22078
860.194	22268
860.327	22078
860.46	22063
860.592	22109
860.725	22204
860.858	22116
860.99	22063
861.123	21994
861.256	21960
861.388	22063
861.521	22774
861.653	21998
861.786	21865
861.918	21945
862.05	21869
862.183	21922
862.315	21972
862.447	21926
862.58	21880
862.712	21762
862.844	21641
862.976	21766
863.108	21785
863.24	22257
863.372	21591
863.504	21686
863.636	21682
863.768	21800
863.9	21755
864.032	21599
864.164	21739
864.296	21720
864.428	21884
864.559	21873
864.691	21804
864.823	21709
864.954	21717
865.086	21576
865.217	21698
865.349	21553
865.48	21618
865.612	21549
865.743	21774
865.875	21568
866.006	21606
866.137	21701
866.269	21622
866.4	21648
866.531	21561
866.662	21416
866.793	21420
866.924	21504
867.055	21568
867.186	21530
867.317	21492
867.448	21378
867.579	21408
867.71	21496
867.841	21473
867.972	21408
868.103	21458
868.233	21507
868.364	21610
868.495	21587
868.625	21755
868.756	21838
868.886	21724
869.017	21682
869.147	21785
869.278	21857
869.408	21865
869.539	21907
869.669	21819
869.799	21816
869.929	21915
870.06	21838
870.19	22090
870.32	22093
870.45	22150
870.58	22204
870.71	22257
870.84	22253
870.97	22177
871.1	22238
871.23	22310
871.36	22253
871.489	22207
871.619	22348
871.749	22390
871.879	22246
872.008	22417
872.138	22379
872.267	22314
872.397	22143
872.526	22169
872.656	22181
872.785	22150
872.915	22390
873.044	22405
873.173	22436
873.303	22436
873.432	22318
873.561	22417
873.69	22504
873.819	22272
873.948	22516
874.077	22379
874.206	22360
874.335	22291
874.464	22618
874.593	22607
874.722	22584
874.851	22649
874.979	22592
875.108	22630
875.237	22569
875.365	22409
875.494	22546
875.623	22622
875.751	22462
875.88	22607
876.008	22801
876.136	22828
876.265	23060
876.393	23151
876.521	23071
876.65	23170
876.778	22919
876.906	22946
877.034	22908
877.162	22942
877.29	22908
877.418	22980
877.546	22949
877.674	23022
877.802	22934
877.93	22991
878.058	22862
878.185	22824
878.313	22991
878.441	22904
878.568	22782
878.696	22831
878.824	22923
878.951	23124
879.079	23022
879.206	23227
879.333	23056
879.461	22972
879.588	23105
879.715	23102
879.842	23200
879.97	22930
880.097	22801
880.224	22687
880.351	22778
880.478	22835
880.605	22634
880.732	22748
880.859	22900
880.986	22862
881.112	22843
881.239	22649
881.366	22611
881.493	22443
881.619	22352
881.746	22382
881.872	22303
881.999	22230
882.125	22204
882.252	22428
882.378	22257
882.505	22386
882.631	22082
882.757	22029
882.883	22093
883.01	22055
883.136	22032
883.262	21953
883.388	21911
883.514	22105
883.64	22025
883.766	21778
883.892	21861
884.018	21903
884.143	21899
884.269	21987
884.395	21713
884.52	21587
884.646	21625
884.772	21587
884.897	21515
885.023	21713
885.148	21800
885.274	21808
885.399	21816
885.524	21698
885.65	21469
885.775	21679
885.9	21545
886.025	21717
886.15	21648
886.275	21648
886.4	21507
886.525	21580
886.65	21583
886.775	21648
886.9	21679
887.025	21922
887.149	21618
887.274	21367
887.399	21424
887.523	21466
887.648	21428
887.773	21351
887.897	21447
888.021	21401
888.146	21393
888.27	21447
888.395	21435
888.519	21530
888.643	21507
888.767	21488
888.891	21344
889.015	21245
889.139	21203
889.263	21211
889.387	21374
889.511	21412
889.635	21302
889.759	21135
889.883	21203
890.006	21252
890.13	21218
890.254	21093
890.377	21024
890.501	20975
890.624	20941
890.748	21005
890.871	20834
890.995	20674
891.118	20735
891.241	20754
891.364	20838
891.488	20948
891.611	20777
891.734	20792
891.857	20804
891.98	20773
892.103	20746
892.226	20746
892.349	20621
892.471	20514
892.594	20758
892.717	20697
892.839	20617
892.962	20667
893.085	20636
893.207	20667
893.33	20465
893.452	20583
893.575	20731
893.697	20663
893.819	20845
893.941	20853
894.064	20819
894.186	20575
894.308	20518
894.43	20754
894.552	20674
894.674	20716
894.796	20492
894.918	20651
895.04	20606
895.161	20648
895.283	20735
895.405	20484
895.526	20678
895.648	20609
895.769	20659
895.891	20674
896.012	20716
896.134	20663
896.255	20716
896.376	20609
896.498	20530
896.619	20651
896.74	20785
896.861	20765
896.982	20975
897.103	21055
897.224	20807
897.345	20857
897.466	20849
897.587	20819
897.708	21093
897.828	20826
897.949	20762
898.07	20819
898.19	20876
898.311	20902
898.431	20750
898.552	20785
898.672	20918
898.792	20887
898.913	20834
899.033	20720
899.153	20712
899.273	20590
899.393	20644
899.513	20708
899.633	20644
899.753	20571
899.873	20579
899.993	20609
900.113	20503
900.232	20537
900.352	20533
900.472	20438
900.591	20347
900.711	20355
900.83	20259
900.95	20469
901.069	20370
901.189	20362
901.308	20058
901.427	19959
901.546	20046
901.665	19959
901.784	20054
901.904	19719
902.023	19738
902.141	19514
902.26	19426
902.379	19548
902.498	19396
902.617	19312
902.735	19464
902.854	19533
902.973	19324
903.091	19050
903.21	19129
903.328	19080
903.446	19110
903.565	18970
903.683	18863
903.801	18791
903.919	18776
904.038	18802
904.156	18681
904.274	18779
904.392	18665
904.51	18604
904.627	18760
904.745	18829
904.863	18604
904.981	18456
905.098	18399
905.216	18456
905.334	18483
905.451	18304
905.569	18353
905.686	18323
905.803	18338
905.921	18060
906.038	18285
906.155	18163
906.272	17988
906.389	18117
906.506	17908
906.623	17855
906.74	17912
906.857	17726
906.974	17718
907.091	17916
907.208	17977
907.324	17824
907.441	17790
907.557	17691
907.674	17512
907.79	17520
907.907	17623
908.023	17646
908.139	17539
908.256	17505
908.372	17490
908.488	17444
908.604	17311
908.72	17246
908.836	17261
908.952	17273
909.068	17292
909.184	17429
909.3	17299
909.415	17227
909.531	17269
909.647	17102
909.762	17079
909.878	16885
909.993	16927
910.108	16980
910.224	16885
910.339	16900
910.454	16782
910.57	16831
910.685	16710
910.8	17029
910.915	17022
911.03	16729
911.145	16706
911.259	16542
911.374	16455
911.489	16489
911.604	16527
911.718	16287
911.833	16360
911.947	16272
912.062	16135
912.176	16272
912.291	16348
912.405	16367
912.519	16504
912.633	16443
912.748	16360
912.862	16318
912.976	16120
913.09	16071
913.204	16158
913.318	16200
913.431	16265
913.545	16280
913.659	16211
913.772	16067
913.886	16029
914	15956
914.113	15915
914.226	16002
914.34	16006
914.453	15812
914.566	16017
914.68	15732
914.793	15808
914.906	15576
915.019	15496
915.132	15450
915.245	15466
915.358	15603
915.47	15515
915.583	15534
915.696	15580
915.809	15507
915.921	15625
916.034	15439
916.146	15416
916.259	15447
916.371	15431
916.483	15561
916.595	15424
916.708	15408
916.82	15344
916.932	15287
917.044	15359
917.156	15294
917.268	15188
917.38	15264
917.491	15165
917.603	15131
917.715	15325
917.826	15207
917.938	15032
918.049	14918
918.161	15081
918.272	15211
918.384	15245
918.495	15157
918.606	14948
918.717	14769
918.828	14960
918.939	14967
919.05	14880
919.161	14963
919.272	14720
919.383	14686
919.494	14971
919.604	15165
919.715	14933
919.826	14834
919.936	14811
920.047	14902
920.157	14834
920.267	15039
920.378	14868
920.488	14804
920.598	14975
920.708	15123
920.818	14975
920.928	14975
921.038	15150
921.148	15047
921.258	14781
921.368	14743
921.477	14594
921.587	14484
921.697	14530
921.806	14632
921.916	14454
922.025	14183
922.134	14377
922.244	14248
922.353	14336
922.462	14145
922.571	14001
922.68	14001
922.789	13811
922.898	13970
923.007	13921
923.116	14001
923.224	13906
923.333	13868
923.442	13784
923.55	13708
923.659	13734
923.767	13696
923.876	13616
923.984	13712
924.092	13658
924.201	13636
924.309	13563
924.417	13613
924.525	13540
924.633	13540
924.741	14286
924.849	13335
924.956	13422
925.064	13384
925.172	13304
925.279	13240
925.387	13274
925.494	13293
925.602	13419
925.709	13304
925.816	13118
925.924	13198
926.031	13202
926.138	13194
926.245	13251
926.352	13088
926.459	13225
926.566	13206
926.673	13145
926.779	13046
926.886	12932
926.993	12954
927.099	12886
927.206	12810
927.312	12817
927.419	12844
927.525	12795
927.631	12947
927.737	12707
927.843	12772
927.95	12696
928.056	12612
928.162	12673
928.267	12616
928.373	13206
928.479	12703
928.585	12502
928.69	12570
928.796	12608
928.901	12563
929.007	12403
929.112	12517
929.218	12483
929.323	12441
929.428	12403
929.533	12464
929.638	12182
929.743	12350
929.848	12296
929.953	12350
930.058	12171
930.163	12022
930.267	12068
930.372	12239
930.477	11969
930.581	12251
930.685	12076
930.79	11893
930.894	11984
930.998	11840
931.103	12026
931.207	11661
931.311	11592
931.415	11376
931.519	11280
931.623	11265
