Data from test_V78500241_795.txt Node
Date: Fri Mar 25 15:47:18 CST 2022
User: usil
Spectrometer: V785-0024
Trigger mode: 0
Integration Time (sec): 4.000000E-1
Scans to average: 1
Nonlinearity correction enabled: false
Boxcar width: 0
Storing dark spectrum: false
XAxis mode: Wavelengths
Number of Pixels in Spectrum: 1024
>>>>>Begin Spectral Data<<<<<
801.071	27192
801.214	27287
801.356	26887
801.499	26944
801.641	26849
801.783	26830
801.926	26948
802.068	26834
802.211	26777
802.353	26632
802.496	26442
802.638	26453
802.78	26396
802.923	26347
803.065	26282
803.208	26298
803.35	26298
803.492	26419
803.635	26442
803.777	26552
803.919	26495
804.061	26838
804.204	26526
804.346	26450
804.488	26465
804.63	26412
804.773	26286
804.915	26552
805.057	26644
805.199	26564
805.341	26625
805.483	26648
805.626	26659
805.768	26511
805.91	26655
806.052	26731
806.194	26621
806.336	26944
806.478	26686
806.62	26640
806.762	26857
806.904	26929
807.046	27104
807.188	27161
807.33	26998
807.472	27169
807.614	27089
807.756	27013
807.898	26883
808.04	27009
808.182	26769
808.324	26826
808.465	27005
808.607	27047
808.749	27154
808.891	27424
809.033	27648
809.174	27431
809.316	27279
809.458	27310
809.6	27481
809.741	27477
809.883	27401
810.025	27648
810.166	27511
810.308	27622
810.45	27496
810.591	27389
810.733	27325
810.875	27279
811.016	27142
811.158	27203
811.299	27382
811.441	27481
811.582	27408
811.724	27264
811.865	27340
812.007	27203
812.148	27287
812.29	27359
812.431	27526
812.573	27682
812.714	27690
812.855	27914
812.997	27899
813.138	28242
813.279	27907
813.421	27743
813.562	27804
813.703	27701
813.845	27466
813.986	27252
814.127	27062
814.268	26944
814.41	26994
814.551	27058
814.692	27074
814.833	26868
814.974	26849
815.115	26857
815.256	26815
815.397	26861
815.539	26857
815.68	26716
815.821	26655
815.962	26720
816.103	26819
816.244	26587
816.385	26522
816.526	26564
816.666	26301
816.807	26210
816.948	26404
817.089	26343
817.23	26259
817.371	26233
817.512	26195
817.653	26119
817.793	26237
817.934	26244
818.075	26218
818.216	26172
818.356	26199
818.497	26088
818.638	25940
818.778	26039
818.919	25826
819.06	26084
819.2	25982
819.341	26256
819.481	26240
819.622	26381
819.762	26469
819.903	26469
820.043	26347
820.184	26336
820.324	26256
820.465	26385
820.605	26343
820.746	26320
820.886	26168
821.026	26267
821.167	26317
821.307	26446
821.447	26244
821.588	26122
821.728	26062
821.868	25769
822.008	25822
822.149	25632
822.289	25753
822.429	25453
822.569	25206
822.709	25335
822.849	25198
822.99	25289
823.13	25228
823.27	25168
823.41	25126
823.55	24913
823.69	25122
823.83	24966
823.97	24951
824.11	24901
824.25	24783
824.389	24631
824.529	24932
824.669	24840
824.809	24909
824.949	25000
825.089	25012
825.228	24806
825.368	24574
825.508	24620
825.648	24642
825.787	24730
825.927	24635
826.067	24646
826.206	24536
826.346	24760
826.485	24631
826.625	24631
826.765	24844
826.904	24665
827.044	24563
827.183	24422
827.323	24350
827.462	24418
827.601	24418
827.741	24433
827.88	24376
828.02	24228
828.159	24407
828.298	24399
828.437	24399
828.577	24330
828.716	24479
828.855	24270
828.994	24114
829.134	24136
829.273	24186
829.412	24053
829.551	24045
829.69	24034
829.829	24068
829.968	24174
830.107	24182
830.246	24152
830.385	24041
830.524	23901
830.663	24041
830.802	23821
830.941	23600
831.08	23695
831.219	23684
831.357	23840
831.496	23920
831.635	23680
831.774	23634
831.913	23604
832.051	23570
832.19	23433
832.329	23592
832.467	23288
832.606	23387
832.744	23356
832.883	23261
833.022	23414
833.16	23398
833.299	23505
833.437	23356
833.576	23398
833.714	23337
833.852	23505
833.991	23429
834.129	23509
834.267	23558
834.406	23467
834.544	23364
834.682	23471
834.821	23497
834.959	23627
835.097	23318
835.235	23349
835.373	23303
835.511	23452
835.65	23204
835.788	23193
835.926	23098
836.064	23033
836.202	23090
836.34	23307
836.478	23364
836.615	23204
836.753	23170
836.891	23402
837.029	23208
837.167	23181
837.305	23147
837.443	23193
837.58	23174
837.718	23128
837.856	23067
837.993	23014
838.131	23056
838.269	23052
838.406	23033
838.544	22812
838.681	22793
838.819	22694
838.956	22607
839.094	22478
839.231	22668
839.369	22580
839.506	22972
839.643	22748
839.781	22649
839.918	22382
840.055	22607
840.193	22634
840.33	22459
840.467	22508
840.604	22504
840.742	22816
840.879	22325
841.016	22470
841.153	22417
841.29	22668
841.427	22531
841.564	22550
841.701	22531
841.838	22481
841.975	22424
842.112	22379
842.249	22360
842.385	22204
842.522	22561
842.659	22299
842.796	22105
842.933	22261
843.069	22280
843.206	22257
843.343	22291
843.479	22325
843.616	22204
843.752	21911
843.889	22029
844.025	22162
844.162	21956
844.298	22116
844.435	22051
844.571	21991
844.708	22070
844.844	22158
844.98	22150
845.117	22158
845.253	21968
845.389	21945
845.525	21865
845.661	21911
845.798	21846
845.934	21922
846.07	21793
846.206	21713
846.342	21941
846.478	21850
846.614	21580
846.75	21534
846.886	21447
847.022	21610
847.158	21507
847.294	21485
847.429	21481
847.565	21469
847.701	21622
847.837	21222
847.972	21237
848.108	21325
848.244	21283
848.379	21173
848.515	21127
848.65	21127
848.786	21173
848.921	21150
849.057	21123
849.192	21142
849.328	21108
849.463	21028
849.598	21093
849.734	20986
849.869	21043
850.004	20872
850.14	20861
850.275	20933
850.41	20811
850.545	20868
850.68	20880
850.815	20880
850.95	20853
851.085	20960
851.22	21058
851.355	20785
851.49	20914
851.625	20807
851.76	20861
851.895	20823
852.03	20720
852.165	20891
852.299	20842
852.434	20990
852.569	20952
852.703	20830
852.838	21055
852.973	20967
853.107	21039
853.242	20800
853.376	20632
853.511	20606
853.645	20693
853.78	20731
853.914	20739
854.048	20617
854.183	20522
854.317	20712
854.451	20899
854.585	20686
854.72	20743
854.854	20731
854.988	20617
855.122	20621
855.256	20457
855.39	20655
855.524	20754
855.658	20667
855.792	20629
855.926	20708
856.06	20765
856.194	20804
856.327	20739
856.461	20651
856.595	20617
856.729	20648
856.862	20750
856.996	20746
857.13	20819
857.263	20777
857.397	20872
857.53	20644
857.664	20842
857.797	20815
857.931	20857
858.064	20804
858.197	20826
858.331	20743
858.464	20648
858.597	20667
858.731	20434
858.864	20648
858.997	20507
859.13	20644
859.263	20674
859.396	20792
859.529	20651
859.662	20651
859.795	20674
859.928	20644
860.061	20819
860.194	20849
860.327	20750
860.46	20697
860.592	20899
860.725	20788
860.858	20891
860.99	20701
861.123	20560
861.256	20590
861.388	20659
861.521	21332
861.653	20636
861.786	20446
861.918	20514
862.05	20465
862.183	20640
862.315	20560
862.447	20629
862.58	20609
862.712	20377
862.844	20427
862.976	20446
863.108	20454
863.24	20956
863.372	20336
863.504	20419
863.636	20358
863.768	20434
863.9	20366
864.032	20305
864.164	20396
864.296	20385
864.428	20499
864.559	20461
864.691	20438
864.823	20431
864.954	20309
865.086	20313
865.217	20275
865.349	20267
865.48	20339
865.612	20294
865.743	20511
865.875	20355
866.006	20218
866.137	20324
866.269	20324
866.4	20240
866.531	20183
866.662	20161
866.793	20233
866.924	20248
867.055	20370
867.186	20298
867.317	20271
867.448	20225
867.579	20111
867.71	20172
867.841	20210
867.972	20176
868.103	20176
868.233	20324
868.364	20301
868.495	20362
868.625	20400
868.756	20476
868.886	20412
869.017	20484
869.147	20552
869.278	20686
869.408	20533
869.539	20530
869.669	20590
869.799	20552
869.929	20587
870.06	20648
870.19	20834
870.32	20868
870.45	20804
870.58	20906
870.71	20914
870.84	20937
870.97	20899
871.1	20944
871.23	21005
871.36	21039
871.489	21055
871.619	21081
871.749	21051
871.879	21146
872.008	21249
872.138	21112
872.267	21028
872.397	20941
872.526	20918
872.656	20872
872.785	20944
872.915	21085
873.044	21302
873.173	21207
873.303	21138
873.432	21119
873.561	21180
873.69	21108
873.819	21135
873.948	21123
874.077	21123
874.206	21009
874.335	20994
874.464	21127
874.593	21363
874.722	21230
874.851	21329
874.979	21397
875.108	21370
875.237	21268
875.365	21214
875.494	21386
875.623	21504
875.751	21397
875.88	21287
876.008	21447
876.136	21511
876.265	21690
876.393	21842
876.521	21789
876.65	21865
876.778	21808
876.906	21724
877.034	21690
877.162	21759
877.29	21648
877.418	21770
877.546	21701
877.674	21682
877.802	21682
877.93	21717
878.058	21675
878.185	21637
878.313	21747
878.441	21690
878.568	21538
878.696	21622
878.824	21694
878.951	21766
879.079	21854
879.206	22006
879.333	21743
879.461	21762
879.588	21724
879.715	21956
879.842	21934
879.97	21793
880.097	21561
880.224	21542
880.351	21542
880.478	21447
880.605	21466
880.732	21462
880.859	21800
880.986	21549
881.112	21553
881.239	21397
881.366	21336
881.493	21264
881.619	21081
881.746	21051
881.872	21161
881.999	21077
882.125	20998
882.252	21211
882.378	21051
882.505	21241
882.631	20956
882.757	20826
882.883	20906
883.01	20804
883.136	20743
883.262	20781
883.388	20651
883.514	20815
883.64	20891
883.766	20743
883.892	20609
884.018	20583
884.143	20754
884.269	20773
884.395	20541
884.52	20488
884.646	20594
884.772	20415
884.897	20313
885.023	20377
885.148	20590
885.274	20636
885.399	20625
885.524	20389
885.65	20507
885.775	20549
885.9	20408
886.025	20606
886.15	20621
886.275	20415
886.4	20336
886.525	20355
886.65	20408
886.775	20320
886.9	20518
887.025	20621
887.149	20480
887.274	20294
887.399	20218
887.523	20275
887.648	20168
887.773	20103
887.897	20218
888.021	20252
888.146	20229
888.27	20282
888.395	20328
888.519	20240
888.643	20240
888.767	20351
888.891	20206
889.015	20172
889.139	20069
889.263	20027
889.387	20202
889.511	20237
889.635	20191
889.759	19982
889.883	20050
890.006	20039
890.13	20142
890.254	19925
890.377	20012
890.501	19769
890.624	19784
890.748	19852
890.871	19693
890.995	19506
891.118	19567
891.241	19677
891.364	19544
891.488	19830
891.611	19628
891.734	19677
891.857	19620
891.98	19632
892.103	19712
892.226	19586
892.349	19533
892.471	19464
892.594	19419
892.717	19643
892.839	19620
892.962	19533
893.085	19666
893.207	19609
893.33	19438
893.452	19365
893.575	19601
893.697	19521
893.819	19620
893.941	19712
894.064	19655
894.186	19407
894.308	19480
894.43	19578
894.552	19655
894.674	19628
894.796	19502
894.918	19575
895.04	19514
895.161	19639
895.283	19597
895.405	19419
895.526	19529
895.648	19540
895.769	19670
895.891	19613
896.012	19662
896.134	19567
896.255	19635
896.376	19578
896.498	19601
896.619	19556
896.74	19586
896.861	19681
896.982	19864
897.103	19967
897.224	19940
897.345	19776
897.466	19708
897.587	19849
897.708	20027
897.828	19833
897.949	19727
898.07	19628
898.19	19734
898.311	19951
898.431	19712
898.552	19799
898.672	19776
898.792	19860
898.913	19849
899.033	19674
899.153	19586
899.273	19552
899.393	19674
899.513	19499
899.633	19609
899.753	19476
899.873	19468
899.993	19495
900.113	19537
900.232	19537
900.352	19460
900.472	19495
900.591	19327
900.711	19346
900.83	19301
900.95	19407
901.069	19441
901.189	19236
901.308	19099
901.427	18913
901.546	18951
901.665	19000
901.784	18886
901.904	18738
902.023	18642
902.141	18661
902.26	18513
902.379	18498
902.498	18384
902.617	18350
902.735	18532
902.854	18384
902.973	18414
903.091	18034
903.21	18152
903.328	18102
903.446	18030
903.565	17870
903.683	17961
903.801	17824
903.919	17977
904.038	17878
904.156	17672
904.274	17771
904.392	17687
904.51	17589
904.627	17684
904.745	17733
904.863	17695
904.981	17547
905.098	17421
905.216	17299
905.334	17406
905.451	17440
905.569	17322
905.686	17398
905.803	17318
905.921	17220
906.038	17337
906.155	17166
906.272	17060
906.389	17052
906.506	17056
906.623	17029
906.74	16957
906.857	16835
906.974	16812
907.091	16900
907.208	17105
907.324	17006
907.441	16809
907.557	16626
907.674	16611
907.79	16508
907.907	16603
908.023	16611
908.139	16702
908.256	16698
908.372	16443
908.488	16535
908.604	16405
908.72	16268
908.836	16329
908.952	16352
909.068	16478
909.184	16466
909.3	16405
909.415	16443
909.531	16360
909.647	16188
909.762	16162
909.878	15998
909.993	16067
910.108	15998
910.224	16032
910.339	16055
910.454	15880
910.57	15934
910.685	15751
910.8	16192
910.915	16013
911.03	15808
911.145	15679
911.259	15682
911.374	15625
911.489	15610
911.604	15515
911.718	15428
911.833	15454
911.947	15310
912.062	15268
912.176	15454
912.291	15374
912.405	15439
912.519	15523
912.633	15572
912.748	15439
912.862	15332
912.976	15310
913.09	15150
913.204	15233
913.318	15165
913.431	15355
913.545	15313
913.659	15348
913.772	15264
913.886	15047
914	15104
914.113	15123
914.226	15237
914.34	15116
914.453	15013
914.566	15104
914.68	14952
914.793	14918
914.906	14750
915.019	14674
915.132	14594
915.245	14606
915.358	14720
915.47	14613
915.583	14731
915.696	14697
915.809	14697
915.921	14834
916.034	14663
916.146	14499
916.259	14476
916.371	14610
916.483	14613
916.595	14434
916.708	14533
916.82	14469
916.932	14503
917.044	14495
917.156	14438
917.268	14355
917.38	14351
917.491	14389
917.603	14336
917.715	14355
917.826	14370
917.938	14309
918.049	14157
918.161	14389
918.272	14412
918.384	14396
918.495	14286
918.606	14248
918.717	14065
918.828	14062
918.939	14195
919.05	14092
919.161	14130
919.272	13955
919.383	13909
919.494	14145
919.604	14328
919.715	14088
919.826	13913
919.936	14107
920.047	14176
920.157	14088
920.267	14248
920.378	14020
920.488	14012
920.598	14191
920.708	14393
920.818	14275
920.928	14271
921.038	14415
921.148	14343
921.258	14050
921.368	13951
921.477	13811
921.587	13841
921.697	13750
921.806	13906
921.916	13689
922.025	13548
922.134	13483
922.244	13453
922.353	13480
922.462	13266
922.571	13369
922.68	13187
922.789	13099
922.898	13114
923.007	13129
923.116	13126
923.224	13122
923.333	13099
923.442	13008
923.55	13004
923.659	12989
923.767	12947
923.876	12886
923.984	13008
924.092	12859
924.201	12878
924.309	12882
924.417	12806
924.525	12749
924.633	12821
924.741	13704
924.849	12707
924.956	12722
925.064	12582
925.172	12585
925.279	12570
925.387	12623
925.494	12570
925.602	12681
925.709	12623
925.816	12429
925.924	12582
926.031	12681
926.138	12585
926.245	12574
926.352	12338
926.459	12570
926.566	12623
926.673	12471
926.779	12266
926.886	12251
926.993	12182
927.099	12129
927.206	12125
927.312	12060
927.419	12155
927.525	12178
927.631	12262
927.737	12015
927.843	12045
927.95	11927
928.056	11999
928.162	12030
928.267	12041
928.373	12673
928.479	12083
928.585	11859
928.69	11958
928.796	12057
928.901	11847
929.007	11783
929.112	11805
929.218	11722
929.323	11733
929.428	11676
929.533	11805
929.638	11619
929.743	11684
929.848	11748
929.953	11649
930.058	11573
930.163	11429
930.267	11425
930.372	11558
930.477	11356
930.581	11539
930.685	11562
930.79	11307
930.894	11334
930.998	11277
931.103	11425
931.207	11094
931.311	10999
931.415	10904
931.519	10679
931.623	10664
