Data from test_V78500241_1887.txt Node
Date: Fri Mar 25 15:54:52 CST 2022
User: usil
Spectrometer: V785-0024
Trigger mode: 0
Integration Time (sec): 4.000000E-1
Scans to average: 1
Nonlinearity correction enabled: false
Boxcar width: 0
Storing dark spectrum: false
XAxis mode: Wavelengths
Number of Pixels in Spectrum: 1024
>>>>>Begin Spectral Data<<<<<
801.071	28615
801.214	28516
801.356	28223
801.499	28177
801.641	28124
801.783	28101
801.926	28185
802.068	28143
802.211	28044
802.353	28040
802.496	27770
802.638	27831
802.78	27918
802.923	27698
803.065	27701
803.208	27728
803.35	27838
803.492	27934
803.635	28044
803.777	27972
803.919	27934
804.061	28253
804.204	28158
804.346	28013
804.488	27808
804.63	28010
804.773	28036
804.915	28101
805.057	28093
805.199	28070
805.341	28048
805.483	28116
805.626	28166
805.768	28086
805.91	28090
806.052	28196
806.194	28036
806.336	28428
806.478	28211
806.62	28147
806.762	28310
806.904	28504
807.046	28649
807.188	28554
807.33	28755
807.472	28683
807.614	28535
807.756	28588
807.898	28398
808.04	28363
808.182	28550
808.324	28508
808.465	28542
808.607	28660
808.749	28862
808.891	28968
809.033	29109
809.174	28828
809.316	28790
809.458	28835
809.6	28778
809.741	28953
809.883	29014
810.025	29075
810.166	29193
810.308	29143
810.45	29003
810.591	29079
810.733	29006
810.875	28710
811.016	28888
811.158	28801
811.299	28972
811.441	29075
811.582	28965
811.724	28911
811.865	28672
812.007	28847
812.148	28790
812.29	28946
812.431	29098
812.573	29067
812.714	29246
812.855	29421
812.997	29493
813.138	29676
813.279	29566
813.421	29315
813.562	29326
813.703	29140
813.845	29064
813.986	28839
814.127	28755
814.268	28497
814.41	28603
814.551	28550
814.692	28569
814.833	28523
814.974	28485
815.115	28459
815.256	28386
815.397	28546
815.539	28405
815.68	28497
815.821	28284
815.962	28405
816.103	28405
816.244	28196
816.385	28177
816.526	28158
816.666	27987
816.807	27831
816.948	27918
817.089	28139
817.23	27918
817.371	27880
817.512	27770
817.653	27899
817.793	27766
817.934	27857
818.075	27835
818.216	27903
818.356	27869
818.497	27724
818.638	27507
818.778	27564
818.919	27568
819.06	27751
819.2	27762
819.341	27880
819.481	27903
819.622	27918
819.762	28200
819.903	28185
820.043	28101
820.184	28010
820.324	27998
820.465	28090
820.605	27895
820.746	27918
820.886	27762
821.026	27903
821.167	28025
821.307	27945
821.447	28025
821.588	27880
821.728	27526
821.868	27504
822.008	27382
822.149	27427
822.289	27302
822.429	27032
822.569	27009
822.709	26971
822.849	26826
822.99	26971
823.13	26895
823.27	26804
823.41	26632
823.55	26400
823.69	26693
823.83	26682
823.97	26564
824.11	26320
824.25	26423
824.389	26492
824.529	26556
824.669	26545
824.809	26530
824.949	26613
825.089	26598
825.228	26480
825.368	26480
825.508	26225
825.648	26385
825.787	26446
825.927	26530
826.067	26301
826.206	26301
826.346	26423
826.485	26385
826.625	26305
826.765	26362
826.904	26355
827.044	26149
827.183	26115
827.323	25849
827.462	26256
827.601	26084
827.741	26077
827.88	26111
828.02	25917
828.159	26077
828.298	26122
828.437	26168
828.577	26001
828.716	25997
828.855	26107
828.994	25712
829.134	25742
829.273	25765
829.412	25811
829.551	25723
829.69	25788
829.829	25795
829.968	25780
830.107	25860
830.246	25841
830.385	25616
830.524	25620
830.663	25548
830.802	25487
830.941	25346
831.08	25320
831.219	25499
831.357	25544
831.496	25685
831.635	25392
831.774	25434
831.913	25202
832.051	25080
832.19	25122
832.329	25183
832.467	25050
832.606	24935
832.744	24901
832.883	25168
833.022	25038
833.16	25076
833.299	25133
833.437	25065
833.576	25171
833.714	25209
833.852	25088
833.991	25289
834.129	25129
834.267	25156
834.406	25129
834.544	25114
834.682	25069
834.821	25050
834.959	25145
835.097	24878
835.235	25187
835.373	25129
835.511	25122
835.65	24977
835.788	25023
835.926	24901
836.064	24612
836.202	24745
836.34	25000
836.478	25091
836.615	25034
836.753	24924
836.891	25004
837.029	25099
837.167	24951
837.305	24897
837.443	24639
837.58	24833
837.718	24928
837.856	24875
837.993	24730
838.131	24661
838.269	24631
838.406	24654
838.544	24608
838.681	24460
838.819	24372
838.956	24178
839.094	24117
839.231	24452
839.369	24551
839.506	24734
839.643	24505
839.781	24410
839.918	24251
840.055	24247
840.193	24220
840.33	24334
840.467	24167
840.604	24194
840.742	24445
840.879	23969
841.016	24239
841.153	23969
841.29	24239
841.427	24140
841.564	24285
841.701	24209
841.838	24140
841.975	24129
842.112	24232
842.249	24022
842.385	23965
842.522	24152
842.659	24030
842.796	23958
842.933	23901
843.069	23859
843.206	23783
843.343	24018
843.479	23927
843.616	23977
843.752	23570
843.889	23707
844.025	23821
844.162	23802
844.298	23802
844.435	23680
844.571	23642
844.708	23775
844.844	23828
844.98	23809
845.117	23779
845.253	23611
845.389	23619
845.525	23551
845.661	23547
845.798	23406
845.934	23520
846.07	23360
846.206	23406
846.342	23459
846.478	23307
846.614	23151
846.75	23132
846.886	23128
847.022	23204
847.158	23174
847.294	23162
847.429	23178
847.565	23189
847.701	23292
847.837	22881
847.972	22904
848.108	23098
848.244	22991
848.379	22850
848.515	22698
848.65	22649
848.786	22706
848.921	22626
849.057	22984
849.192	22702
849.328	22816
849.463	22630
849.598	22710
849.734	22653
849.869	22592
850.004	22508
850.14	22497
850.275	22523
850.41	22470
850.545	22360
850.68	22489
850.815	22523
850.95	22379
851.085	22702
851.22	22649
851.355	22565
851.49	22440
851.625	22421
851.76	22481
851.895	22379
852.03	22462
852.165	22402
852.299	22565
852.434	22615
852.569	22577
852.703	22481
852.838	22580
852.973	22725
853.107	22607
853.242	22527
853.376	22360
853.511	22249
853.645	22238
853.78	22344
853.914	22466
854.048	22276
854.183	22177
854.317	22382
854.451	22523
854.585	22303
854.72	22379
854.854	22432
854.988	22291
855.122	22219
855.256	22348
855.39	22226
855.524	22348
855.658	22466
855.792	22417
855.926	22459
856.06	22360
856.194	22314
856.327	22424
856.461	22398
856.595	22242
856.729	22226
856.862	22360
856.996	22337
857.13	22322
857.263	22398
857.397	22375
857.53	22306
857.664	22382
857.797	22386
857.931	22356
858.064	22386
858.197	22447
858.331	22371
858.464	22303
858.597	22219
858.731	22409
858.864	22234
858.997	22169
859.13	22314
859.263	22379
859.396	22325
859.529	22352
859.662	22261
859.795	22230
859.928	22432
860.061	22546
860.194	22577
860.327	22443
860.46	22405
860.592	22405
860.725	22508
860.858	22447
860.99	22386
861.123	22276
861.256	22272
861.388	22211
861.521	23147
861.653	22105
861.786	22040
861.918	22230
862.05	22169
862.183	22188
862.315	22230
862.447	22284
862.58	22105
862.712	21972
862.844	21869
862.976	22017
863.108	22036
863.24	22462
863.372	22025
863.504	21949
863.636	22021
863.768	22063
863.9	22006
864.032	21880
864.164	21956
864.296	22006
864.428	22124
864.559	22067
864.691	22196
864.823	22082
864.954	22017
865.086	22048
865.217	21895
865.349	21789
865.48	21934
865.612	22048
865.743	22010
865.875	21899
866.006	21861
866.137	21884
866.269	21861
866.4	21915
866.531	21781
866.662	21713
866.793	21808
866.924	21873
867.055	21857
867.186	21797
867.317	21808
867.448	21648
867.579	21762
867.71	21747
867.841	21755
867.972	21960
868.103	21778
868.233	21819
868.364	21911
868.495	21998
868.625	22078
868.756	22188
868.886	22032
869.017	22124
869.147	22162
869.278	22002
869.408	22040
869.539	22059
869.669	22154
869.799	22192
869.929	22211
870.06	22131
870.19	22390
870.32	22310
870.45	22363
870.58	22470
870.71	22592
870.84	22569
870.97	22474
871.1	22428
871.23	22653
871.36	22710
871.489	22630
871.619	22618
871.749	22599
871.879	22717
872.008	22733
872.138	22660
872.267	22641
872.397	22398
872.526	22542
872.656	22459
872.785	22466
872.915	22607
873.044	22740
873.173	22862
873.303	22694
873.432	22786
873.561	22740
873.69	22755
873.819	22843
873.948	22915
874.077	22645
874.206	22721
874.335	22725
874.464	22774
874.593	22889
874.722	22904
874.851	22873
874.979	22984
875.108	22972
875.237	22881
875.365	22744
875.494	22915
875.623	22866
875.751	22801
875.88	22896
876.008	23025
876.136	22984
876.265	23368
876.393	23417
876.521	23288
876.65	23307
876.778	23307
876.906	23193
877.034	23231
877.162	23273
877.29	23231
877.418	23273
877.546	23265
877.674	23246
877.802	23223
877.93	23227
878.058	23071
878.185	23098
878.313	23277
878.441	23170
878.568	23075
878.696	23151
878.824	23273
878.951	23242
879.079	23383
879.206	23558
879.333	23356
879.461	23341
879.588	23341
879.715	23436
879.842	23535
879.97	23296
880.097	23018
880.224	23178
880.351	23071
880.478	23098
880.605	23060
880.732	23098
880.859	23292
880.986	22938
881.112	23048
881.239	23006
881.366	22816
881.493	22717
881.619	22645
881.746	22660
881.872	22622
881.999	22542
882.125	22481
882.252	22599
882.378	22653
882.505	22687
882.631	22440
882.757	22402
882.883	22329
883.01	22291
883.136	22253
883.262	22169
883.388	22040
883.514	22303
883.64	22440
883.766	22314
883.892	22128
884.018	22059
884.143	22306
884.269	22295
884.395	21983
884.52	21998
884.646	21918
884.772	21876
884.897	21876
885.023	21884
885.148	22036
885.274	22048
885.399	21873
885.524	21884
885.65	22021
885.775	21873
885.9	21850
886.025	22105
886.15	22139
886.275	21903
886.4	21827
886.525	21854
886.65	21831
886.775	21797
886.9	21899
887.025	22109
887.149	21949
887.274	21819
887.399	21793
887.523	21587
887.648	21622
887.773	21466
887.897	21838
888.021	21766
888.146	21652
888.27	21797
888.395	21755
888.519	21660
888.643	21705
888.767	21785
888.891	21591
889.015	21587
889.139	21568
889.263	21561
889.387	21610
889.511	21682
889.635	21564
889.759	21443
889.883	21397
890.006	21405
890.13	21568
890.254	21447
890.377	21435
890.501	21138
890.624	21165
890.748	21226
890.871	21058
890.995	21009
891.118	20952
891.241	21020
891.364	21070
891.488	21127
891.611	21017
891.734	21028
891.857	21157
891.98	21096
892.103	21058
892.226	21032
892.349	21017
892.471	20883
892.594	20864
892.717	20899
892.839	20819
892.962	20902
893.085	20956
893.207	20925
893.33	20807
893.452	20842
893.575	21001
893.697	20998
893.819	21047
893.941	21081
894.064	21055
894.186	20758
894.308	20868
894.43	20918
894.552	21028
894.674	20956
894.796	20834
894.918	20807
895.04	20941
895.161	20971
895.283	20975
895.405	21085
895.526	20937
895.648	20857
895.769	20826
895.891	21001
896.012	21017
896.134	21119
896.255	20868
896.376	20880
896.498	21047
896.619	21062
896.74	21005
896.861	20941
896.982	21203
897.103	21287
897.224	21294
897.345	21135
897.466	21043
897.587	21055
897.708	21386
897.828	21024
897.949	21036
898.07	20960
898.19	20998
898.311	21245
898.431	21017
898.552	21249
898.672	21195
898.792	21249
898.913	21039
899.033	20948
899.153	20956
899.273	20845
899.393	20967
899.513	20918
899.633	20887
899.753	20910
899.873	20769
899.993	20899
900.113	20686
900.232	20785
900.352	20800
900.472	20720
900.591	20579
900.711	20587
900.83	20522
900.95	20648
901.069	20712
901.189	20454
901.308	20168
901.427	20225
901.546	20122
901.665	20271
901.784	20161
901.904	19970
902.023	20046
902.141	19837
902.26	19772
902.379	19795
902.498	19753
902.617	19556
902.735	19734
902.854	19658
902.973	19601
903.091	19415
903.21	19259
903.328	19415
903.446	19270
903.565	19168
903.683	19160
903.801	18951
903.919	19164
904.038	19038
904.156	18973
904.274	18966
904.392	18863
904.51	18882
904.627	18916
904.745	18993
904.863	18916
904.981	18738
905.098	18536
905.216	18589
905.334	18696
905.451	18612
905.569	18498
905.686	18646
905.803	18540
905.921	18342
906.038	18357
906.155	18403
906.272	18205
906.389	18182
906.506	18045
906.623	18224
906.74	18079
906.857	17980
906.974	17992
907.091	18148
907.208	18235
907.324	18106
907.441	18007
907.557	17923
907.674	17813
907.79	17790
907.907	17866
908.023	17783
908.139	17942
908.256	17775
908.372	17790
908.488	17695
908.604	17558
908.72	17490
908.836	17562
908.952	17486
909.068	17592
909.184	17554
909.3	17608
909.415	17551
909.531	17535
909.647	17269
909.762	17246
909.878	17345
909.993	17250
910.108	17155
910.224	17109
910.339	17261
910.454	17197
910.57	17090
910.685	16995
910.8	17197
910.915	17079
911.03	16873
911.145	16771
911.259	16812
911.374	16790
911.489	16767
911.604	16702
911.718	16538
911.833	16577
911.947	16508
912.062	16405
912.176	16596
912.291	16584
912.405	16634
912.519	16782
912.633	16778
912.748	16535
912.862	16527
912.976	16306
913.09	16295
913.204	16337
913.318	16371
913.431	16356
913.545	16451
913.659	16440
913.772	16230
913.886	16169
914	16116
914.113	16211
914.226	16261
914.34	16287
914.453	16006
914.566	16242
914.68	16051
914.793	16090
914.906	15743
915.019	15838
915.132	15747
915.245	15701
915.358	15808
915.47	15732
915.583	15709
915.696	15728
915.809	15800
915.921	15831
916.034	15705
916.146	15587
916.259	15644
916.371	15720
916.483	15682
916.595	15576
916.708	15500
916.82	15629
916.932	15428
917.044	15405
917.156	15431
917.268	15367
917.38	15408
917.491	15355
917.603	15386
917.715	15428
917.826	15408
917.938	15264
918.049	15203
918.161	15370
918.272	15344
918.384	15291
918.495	15291
918.606	15161
918.717	15070
918.828	15237
918.939	15093
919.05	15013
919.161	15055
919.272	14941
919.383	14921
919.494	15195
919.604	15264
919.715	15081
919.826	14982
919.936	15001
920.047	15161
920.157	15005
920.267	15294
920.378	15051
920.488	15089
920.598	15180
920.708	15260
920.818	15199
920.928	15127
921.038	15332
921.148	15351
921.258	14990
921.368	14906
921.477	14849
921.587	14670
921.697	14746
921.806	14781
921.916	14678
922.025	14575
922.134	14495
922.244	14404
922.353	14503
922.462	14282
922.571	14275
922.68	14103
922.789	14043
922.898	14069
923.007	14065
923.116	14142
923.224	14043
923.333	14020
923.442	13849
923.55	13879
923.659	13917
923.767	14008
923.876	13868
923.984	13906
924.092	13734
924.201	13788
924.309	13932
924.417	13761
924.525	13734
924.633	13681
924.741	14469
924.849	13514
924.956	13643
925.064	13392
925.172	13400
925.279	13438
925.387	13419
925.494	13464
925.602	13628
925.709	13480
925.816	13335
925.924	13468
926.031	13430
926.138	13350
926.245	13400
926.352	13285
926.459	13445
926.566	13453
926.673	13183
926.779	13236
926.886	13053
926.993	13091
927.099	12894
927.206	12989
927.312	12901
927.419	12958
927.525	12951
927.631	12977
927.737	12814
927.843	12833
927.95	12757
928.056	12677
928.162	12798
928.267	12840
928.373	13480
928.479	12935
928.585	12684
928.69	12726
928.796	12821
928.901	12700
929.007	12441
929.112	12730
929.218	12669
929.323	12513
929.428	12445
929.533	12604
929.638	12528
929.743	12372
929.848	12521
929.953	12467
930.058	12273
930.163	12190
930.267	12304
930.372	12330
930.477	12121
930.581	12315
930.685	12220
930.79	12049
930.894	12091
930.998	12034
931.103	12159
931.207	11859
931.311	11779
931.415	11695
931.519	11520
931.623	11402
