Data from test_V78500241_826.txt Node
Date: Fri Mar 25 15:47:31 CST 2022
User: usil
Spectrometer: V785-0024
Trigger mode: 0
Integration Time (sec): 4.000000E-1
Scans to average: 1
Nonlinearity correction enabled: false
Boxcar width: 0
Storing dark spectrum: false
XAxis mode: Wavelengths
Number of Pixels in Spectrum: 1024
>>>>>Begin Spectral Data<<<<<
801.071	27880
801.214	27755
801.356	27587
801.499	27488
801.641	27306
801.783	27332
801.926	27355
802.068	27416
802.211	27313
802.353	27211
802.496	27058
802.638	26956
802.78	27150
802.923	27001
803.065	26929
803.208	26914
803.35	27024
803.492	27051
803.635	27241
803.777	27036
803.919	27192
804.061	27538
804.204	27218
804.346	27005
804.488	27112
804.63	27245
804.773	27192
804.915	27241
805.057	27260
805.199	27173
805.341	27325
805.483	27473
805.626	27367
805.768	27116
805.91	27237
806.052	27359
806.194	27294
806.336	27439
806.478	27386
806.62	27310
806.762	27553
806.904	27504
807.046	27994
807.188	27895
807.33	27789
807.472	27785
807.614	27671
807.756	27709
807.898	27504
808.04	27469
808.182	27534
808.324	27568
808.465	27705
808.607	27774
808.749	28029
808.891	27983
809.033	28242
809.174	28139
809.316	27914
809.458	27846
809.6	28036
809.741	28158
809.883	28139
810.025	28348
810.166	28150
810.308	28348
810.45	28310
810.591	28166
810.733	28166
810.875	27899
811.016	27953
811.158	27880
811.299	28105
811.441	28299
811.582	28078
811.724	28181
811.865	27903
812.007	27994
812.148	28044
812.29	28090
812.431	28139
812.573	28230
812.714	28531
812.855	28535
812.997	28516
813.138	28721
813.279	28717
813.421	28641
813.562	28424
813.703	28443
813.845	28200
813.986	27911
814.127	27762
814.268	27698
814.41	27641
814.551	27694
814.692	27720
814.833	27625
814.974	27625
815.115	27637
815.256	27561
815.397	27538
815.539	27485
815.68	27511
815.821	27401
815.962	27336
816.103	27538
816.244	27340
816.385	27264
816.526	27207
816.666	27119
816.807	26853
816.948	26956
817.089	27051
817.23	26982
817.371	27005
817.512	26921
817.653	27017
817.793	26876
817.934	26857
818.075	26899
818.216	26952
818.356	26937
818.497	26762
818.638	26689
818.778	26686
818.919	26727
819.06	26853
819.2	26849
819.341	26804
819.481	26986
819.622	27123
819.762	27226
819.903	27233
820.043	27252
820.184	27074
820.324	27188
820.465	27100
820.605	27150
820.746	26960
820.886	26982
821.026	27119
821.167	27157
821.307	26868
821.447	27119
821.588	26910
821.728	26895
821.868	26644
822.008	26476
822.149	26385
822.289	26461
822.429	26107
822.569	26183
822.709	26062
822.849	25868
822.99	25871
823.13	25959
823.27	25940
823.41	25670
823.55	25616
823.69	25742
823.83	25811
823.97	25685
824.11	25590
824.25	25468
824.389	25487
824.529	25647
824.669	25677
824.809	25738
824.949	25776
825.089	25632
825.228	25708
825.368	25464
825.508	25510
825.648	25445
825.787	25464
825.927	25582
826.067	25529
826.206	25559
826.346	25597
826.485	25624
826.625	25320
826.765	25571
826.904	25525
827.044	25232
827.183	25148
827.323	25160
827.462	25251
827.601	25160
827.741	25312
827.88	25152
828.02	24992
828.159	25133
828.298	25129
828.437	25141
828.577	25133
828.716	25217
828.855	25095
828.994	24886
829.134	24928
829.273	24916
829.412	24867
829.551	24821
829.69	24875
829.829	24897
829.968	25046
830.107	24943
830.246	24882
830.385	24810
830.524	24745
830.663	24719
830.802	24433
830.941	24422
831.08	24528
831.219	24551
831.357	24460
831.496	24688
831.635	24483
831.774	24395
831.913	24433
832.051	24235
832.19	24289
832.329	24330
832.467	24117
832.606	24091
832.744	23931
832.883	24213
833.022	24079
833.16	24174
833.299	24285
833.437	24076
833.576	24254
833.714	24216
833.852	24330
833.991	24235
834.129	24228
834.267	24338
834.406	24235
834.544	24262
834.682	24220
834.821	24106
834.959	24464
835.097	24205
835.235	24174
835.373	24186
835.511	24239
835.65	24072
835.788	24057
835.926	23942
836.064	23821
836.202	23764
836.34	24007
836.478	24117
836.615	24034
836.753	24087
836.891	23980
837.029	23977
837.167	23984
837.305	23935
837.443	24003
837.58	23961
837.718	24026
837.856	23817
837.993	23786
838.131	23855
838.269	23752
838.406	23847
838.544	23695
838.681	23497
838.819	23566
838.956	23425
839.094	23330
839.231	23467
839.369	23570
839.506	23729
839.643	23566
839.781	23417
839.918	23334
840.055	23299
840.193	23284
840.33	23269
840.467	23391
840.604	23235
840.742	23608
840.879	23212
841.016	23273
841.153	23200
841.29	23376
841.427	23102
841.564	23337
841.701	23227
841.838	23212
841.975	23159
842.112	23208
842.249	23086
842.385	23041
842.522	23105
842.659	23204
842.796	23025
842.933	22885
843.069	22934
843.206	23048
843.343	23010
843.479	22968
843.616	22976
843.752	22793
843.889	22755
844.025	22961
844.162	22748
844.298	22869
844.435	22786
844.571	22755
844.708	22900
844.844	22904
844.98	22915
845.117	22911
845.253	22706
845.389	22683
845.525	22755
845.661	22634
845.798	22531
845.934	22573
846.07	22550
846.206	22611
846.342	22683
846.478	22481
846.614	22390
846.75	22207
846.886	22169
847.022	22291
847.158	22257
847.294	22230
847.429	22284
847.565	22249
847.701	22440
847.837	22040
847.972	21983
848.108	22173
848.244	22086
848.379	21892
848.515	21854
848.65	21876
848.786	21846
848.921	21857
849.057	21975
849.192	21903
849.328	21812
849.463	21949
849.598	21819
849.734	21778
849.869	21698
850.004	21591
850.14	21629
850.275	21648
850.41	21450
850.545	21603
850.68	21473
850.815	21660
850.95	21667
851.085	21781
851.22	21785
851.355	21595
851.49	21652
851.625	21633
851.76	21595
851.895	21530
852.03	21553
852.165	21530
852.299	21625
852.434	21686
852.569	21568
852.703	21564
852.838	21755
852.973	21739
853.107	21713
853.242	21603
853.376	21283
853.511	21283
853.645	21332
853.78	21561
853.914	21401
854.048	21237
854.183	21329
854.317	21443
854.451	21644
854.585	21431
854.72	21355
854.854	21408
854.988	21412
855.122	21466
855.256	21260
855.39	21408
855.524	21473
855.658	21466
855.792	21454
855.926	21454
856.06	21492
856.194	21530
856.327	21428
856.461	21393
856.595	21408
856.729	21405
856.862	21564
856.996	21530
857.13	21454
857.263	21526
857.397	21572
857.53	21405
857.664	21500
857.797	21405
857.931	21542
858.064	21473
858.197	21553
858.331	21382
858.464	21393
858.597	21321
858.731	21344
858.864	21428
858.997	21473
859.13	21526
859.263	21435
859.396	21599
859.529	21222
859.662	21405
859.795	21374
859.928	21488
860.061	21595
860.194	21709
860.327	21587
860.46	21424
860.592	21538
860.725	21572
860.858	21511
860.99	21348
861.123	21313
861.256	21431
861.388	21511
861.521	22017
861.653	21313
861.786	21245
861.918	21184
862.05	21416
862.183	21378
862.315	21466
862.447	21458
862.58	21405
862.712	21176
862.844	21169
862.976	21169
863.108	21104
863.24	21580
863.372	21062
863.504	21081
863.636	21119
863.768	21195
863.9	21298
864.032	21150
864.164	21173
864.296	21173
864.428	21302
864.559	21302
864.691	21230
864.823	21214
864.954	21032
865.086	21070
865.217	21135
865.349	20979
865.48	21100
865.612	21062
865.743	21169
865.875	21146
866.006	21028
866.137	21032
866.269	21081
866.4	20941
866.531	20982
866.662	20838
866.793	20982
866.924	20971
867.055	21020
867.186	21013
867.317	20891
867.448	20944
867.579	20986
867.71	20834
867.841	20933
867.972	20944
868.103	21013
868.233	20883
868.364	20948
868.495	21066
868.625	21195
868.756	21264
868.886	21146
869.017	21154
869.147	21294
869.278	21230
869.408	21218
869.539	21108
869.669	21332
869.799	21321
869.929	21351
870.06	21298
870.19	21572
870.32	21443
870.45	21534
870.58	21580
870.71	21648
870.84	21701
870.97	21644
871.1	21618
871.23	21717
871.36	21827
871.489	21751
871.619	21880
871.749	21679
871.879	21793
872.008	21808
872.138	21850
872.267	21835
872.397	21736
872.526	21587
872.656	21557
872.785	21656
872.915	21781
873.044	21724
873.173	21850
873.303	21968
873.432	21869
873.561	21903
873.69	21835
873.819	21861
873.948	21979
874.077	21781
874.206	21842
874.335	21854
874.464	21972
874.593	22150
874.722	21964
874.851	22105
874.979	22044
875.108	22059
875.237	22006
875.365	21941
875.494	22101
875.623	22169
875.751	22006
875.88	22097
876.008	22116
876.136	22226
876.265	22398
876.393	22481
876.521	22531
876.65	22428
876.778	22413
876.906	22405
877.034	22413
877.162	22409
877.29	22280
877.418	22421
877.546	22405
877.674	22352
877.802	22424
877.93	22333
878.058	22363
878.185	22268
878.313	22443
878.441	22276
878.568	22325
878.696	22428
878.824	22394
878.951	22447
879.079	22626
879.206	22824
879.333	22618
879.461	22451
879.588	22493
879.715	22702
879.842	22748
879.97	22428
880.097	22204
880.224	22249
880.351	22226
880.478	22097
880.605	22257
880.732	22207
880.859	22497
880.986	22204
881.112	22276
881.239	21987
881.366	21949
881.493	21800
881.619	21880
881.746	21762
881.872	21739
881.999	21671
882.125	21789
882.252	21720
882.378	21785
882.505	21880
882.631	21576
882.757	21549
882.883	21462
883.01	21458
883.136	21496
883.262	21294
883.388	21382
883.514	21462
883.64	21523
883.766	21279
883.892	21355
884.018	21359
884.143	21462
884.269	21515
884.395	21112
884.52	21157
884.646	21036
884.772	21058
884.897	21081
885.023	21222
885.148	21287
885.274	21340
885.399	21157
885.524	21142
885.65	21112
885.775	21173
885.9	21104
886.025	21230
886.15	21275
886.275	21119
886.4	21058
886.525	21096
886.65	20971
886.775	21032
886.9	21207
887.025	21241
887.149	21157
887.274	20956
887.399	20891
887.523	20899
887.648	20739
887.773	20876
887.897	20880
888.021	20910
888.146	20876
888.27	21077
888.395	21024
888.519	20944
888.643	20906
888.767	20941
888.891	20792
889.015	20712
889.139	20849
889.263	20587
889.387	20861
889.511	20765
889.635	20842
889.759	20663
889.883	20613
890.006	20632
890.13	20727
890.254	20632
890.377	20640
890.501	20442
890.624	20427
890.748	20587
890.871	20332
890.995	20317
891.118	20218
891.241	20343
891.364	20324
891.488	20351
891.611	20324
891.734	20320
891.857	20438
891.98	20305
892.103	20362
892.226	20191
892.349	20362
892.471	20096
892.594	20164
892.717	20206
892.839	20145
892.962	20252
893.085	20214
893.207	20153
893.33	20062
893.452	19909
893.575	20252
893.697	20107
893.819	20218
893.941	20526
894.064	20252
894.186	20035
894.308	20180
894.43	20218
894.552	20305
894.674	20233
894.796	20043
894.918	20107
895.04	20069
895.161	20206
895.283	20183
895.405	20168
895.526	20225
895.648	20164
895.769	20237
895.891	20176
896.012	20278
896.134	20187
896.255	20130
896.376	20164
896.498	20195
896.619	20172
896.74	20168
896.861	20259
896.982	20412
897.103	20598
897.224	20457
897.345	20431
897.466	20381
897.587	20450
897.708	20503
897.828	20454
897.949	20324
898.07	20214
898.19	20415
898.311	20476
898.431	20328
898.552	20370
898.672	20511
898.792	20412
898.913	20404
899.033	20286
899.153	20145
899.273	20138
899.393	20122
899.513	20103
899.633	20191
899.753	20191
899.873	20111
899.993	20134
900.113	19993
900.232	20149
900.352	20024
900.472	20077
900.591	19959
900.711	20054
900.83	19841
900.95	20031
901.069	19925
901.189	19788
901.308	19548
901.427	19430
901.546	19578
901.665	19514
901.784	19586
901.904	19403
902.023	19232
902.141	19114
902.26	19031
902.379	19148
902.498	19038
902.617	19008
902.735	19160
902.854	18989
902.973	18882
903.091	18779
903.21	18654
903.328	18669
903.446	18616
903.565	18555
903.683	18563
903.801	18456
903.919	18388
904.038	18441
904.156	18296
904.274	18353
904.392	18216
904.51	18140
904.627	18167
904.745	18270
904.863	18327
904.981	18079
905.098	17832
905.216	17980
905.334	17984
905.451	17980
905.569	17958
905.686	17939
905.803	17847
905.921	17676
906.038	17805
906.155	17638
906.272	17589
906.389	17657
906.506	17478
906.623	17505
906.74	17516
906.857	17353
906.974	17406
907.091	17433
907.208	17596
907.324	17497
907.441	17353
907.557	17189
907.674	17121
907.79	17159
907.907	17178
908.023	17235
908.139	17109
908.256	17197
908.372	17136
908.488	17033
908.604	16881
908.72	16934
908.836	16896
908.952	16930
909.068	16976
909.184	17018
909.3	16786
909.415	16889
909.531	16995
909.647	16691
909.762	16588
909.878	16618
909.993	16645
910.108	16577
910.224	16500
910.339	16523
910.454	16497
910.57	16417
910.685	16310
910.8	16649
910.915	16550
911.03	16398
911.145	16200
911.259	16242
911.374	16192
911.489	16139
911.604	16032
911.718	15899
911.833	15861
911.947	15869
912.062	15808
912.176	15918
912.291	16010
912.405	16002
912.519	16124
912.633	16181
912.748	16055
912.862	15972
912.976	15686
913.09	15675
913.204	15709
913.318	15667
913.431	15812
913.545	15861
913.659	15930
913.772	15732
913.886	15576
914	15603
914.113	15641
914.226	15713
914.34	15641
914.453	15370
914.566	15599
914.68	15428
914.793	15393
914.906	15241
915.019	15184
915.132	15032
915.245	15112
915.358	15066
915.47	15176
915.583	15195
915.696	15211
915.809	15306
915.921	15340
916.034	15138
916.146	15070
916.259	15017
916.371	15249
916.483	15123
916.595	15013
916.708	15043
916.82	14967
916.932	14975
917.044	14986
917.156	14887
917.268	14834
917.38	14857
917.491	14739
917.603	14834
917.715	14807
917.826	14883
917.938	14765
918.049	14644
918.161	14788
918.272	14853
918.384	14830
918.495	14640
918.606	14530
918.717	14552
918.828	14579
918.939	14651
919.05	14450
919.161	14518
919.272	14317
919.383	14450
919.494	14590
919.604	14682
919.715	14503
919.826	14492
919.936	14450
920.047	14682
920.157	14545
920.267	14735
920.378	14568
920.488	14522
920.598	14716
920.708	14826
920.818	14697
920.928	14655
921.038	14868
921.148	14769
921.258	14507
921.368	14442
921.477	14221
921.587	14233
921.697	14081
921.806	14290
921.916	14221
922.025	13902
922.134	13936
922.244	13894
922.353	13959
922.462	13849
922.571	13746
922.68	13544
922.789	13556
922.898	13575
923.007	13548
923.116	13567
923.224	13525
923.333	13567
923.442	13392
923.55	13346
923.659	13430
923.767	13472
923.876	13320
923.984	13384
924.092	13217
924.201	13339
924.309	13327
924.417	13388
924.525	13187
924.633	13289
924.741	14084
924.849	13008
924.956	13065
925.064	13057
925.172	12928
925.279	12932
925.387	12958
925.494	12905
925.602	13114
925.709	13042
925.816	12856
925.924	12939
926.031	12989
926.138	12875
926.245	12977
926.352	12779
926.459	12958
926.566	12977
926.673	12798
926.779	12757
926.886	12730
926.993	12532
927.099	12547
927.206	12464
927.312	12422
927.419	12578
927.525	12509
927.631	12551
927.737	12452
927.843	12346
927.95	12239
928.056	12384
928.162	12410
928.267	12361
928.373	13053
928.479	12437
928.585	12140
928.69	12296
928.796	12361
928.901	12205
929.007	12079
929.112	12175
929.218	12273
929.323	12201
929.428	12114
929.533	12220
929.638	12030
929.743	12064
929.848	11999
929.953	12045
930.058	11927
930.163	11836
930.267	11786
930.372	11942
930.477	11695
930.581	11920
930.685	11809
930.79	11707
930.894	11623
930.998	11649
931.103	11775
931.207	11349
931.311	11349
931.415	11239
931.519	11128
931.623	11022
