Data from test_V78500241_914.txt Node
Date: Fri Mar 25 15:48:07 CST 2022
User: usil
Spectrometer: V785-0024
Trigger mode: 0
Integration Time (sec): 4.000000E-1
Scans to average: 1
Nonlinearity correction enabled: false
Boxcar width: 0
Storing dark spectrum: false
XAxis mode: Wavelengths
Number of Pixels in Spectrum: 1024
>>>>>Begin Spectral Data<<<<<
801.071	28051
801.214	28097
801.356	27972
801.499	27861
801.641	27644
801.783	27648
801.926	27728
802.068	27709
802.211	27458
802.353	27583
802.496	27397
802.638	27291
802.78	27283
802.923	27291
803.065	27195
803.208	27195
803.35	27226
803.492	27412
803.635	27549
803.777	27374
803.919	27561
804.061	27759
804.204	27614
804.346	27302
804.488	27416
804.63	27568
804.773	27367
804.915	27679
805.057	27587
805.199	27458
805.341	27705
805.483	27717
805.626	27549
805.768	27599
805.91	27679
806.052	27614
806.194	27633
806.336	27884
806.478	27823
806.62	27641
806.762	27816
806.904	27972
807.046	28173
807.188	28135
807.33	28150
807.472	28215
807.614	28090
807.756	28124
807.898	27964
808.04	27972
808.182	27934
808.324	27945
808.465	28109
808.607	28299
808.749	28284
808.891	28299
809.033	28516
809.174	28394
809.316	28257
809.458	28295
809.6	28265
809.741	28455
809.883	28459
810.025	28767
810.166	28622
810.308	28603
810.45	28611
810.591	28645
810.733	28478
810.875	28390
811.016	28280
811.158	28367
811.299	28459
811.441	28493
811.582	28550
811.724	28504
811.865	28318
812.007	28523
812.148	28322
812.29	28257
812.431	28557
812.573	28618
812.714	28942
812.855	28915
812.997	29033
813.138	29193
813.279	28995
813.421	28888
813.562	28923
813.703	28820
813.845	28755
813.986	28299
814.127	28055
814.268	28036
814.41	27949
814.551	28032
814.692	28226
814.833	27972
814.974	27899
815.115	27979
815.256	27930
815.397	27956
815.539	27972
815.68	27778
815.821	27774
815.962	27854
816.103	27793
816.244	27732
816.385	27583
816.526	27701
816.666	27435
816.807	27226
816.948	27515
817.089	27389
817.23	27462
817.371	27386
817.512	27443
817.653	27458
817.793	27359
817.934	27378
818.075	27272
818.216	27408
818.356	27317
818.497	27192
818.638	27135
818.778	27104
818.919	27165
819.06	27123
819.2	27298
819.341	27226
819.481	27355
819.622	27485
819.762	27667
819.903	27576
820.043	27576
820.184	27496
820.324	27374
820.465	27450
820.605	27424
820.746	27473
820.886	27233
821.026	27496
821.167	27447
821.307	27587
821.447	27485
821.588	27237
821.728	27222
821.868	26982
822.008	26834
822.149	26842
822.289	26792
822.429	26503
822.569	26579
822.709	26499
822.849	26267
822.99	26374
823.13	26278
823.27	26168
823.41	26142
823.55	26016
823.69	26180
823.83	26103
823.97	26092
824.11	25936
824.25	25830
824.389	25936
824.529	26050
824.669	25978
824.809	26164
824.949	26062
825.089	26062
825.228	26096
825.368	25871
825.508	25818
825.648	25845
825.787	25959
825.927	26008
826.067	25868
826.206	25799
826.346	25917
826.485	25936
826.625	25932
826.765	25936
826.904	25887
827.044	25704
827.183	25628
827.323	25590
827.462	25719
827.601	25590
827.741	25495
827.88	25609
828.02	25491
828.159	25548
828.298	25597
828.437	25597
828.577	25441
828.716	25693
828.855	25441
828.994	25388
829.134	25320
829.273	25270
829.412	25285
829.551	25202
829.69	25354
829.829	25259
829.968	25384
830.107	25426
830.246	25411
830.385	25350
830.524	25259
830.663	24897
830.802	25008
830.941	24875
831.08	24779
831.219	25038
831.357	24905
831.496	25103
831.635	24886
831.774	24840
831.913	24734
832.051	24631
832.19	24635
832.329	24661
832.467	24650
832.606	24505
832.744	24502
832.883	24578
833.022	24540
833.16	24525
833.299	24612
833.437	24585
833.576	24661
833.714	24547
833.852	24582
833.991	24639
834.129	24661
834.267	24753
834.406	24566
834.544	24669
834.682	24555
834.821	24604
834.959	24871
835.097	24559
835.235	24673
835.373	24570
835.511	24479
835.65	24536
835.788	24494
835.926	24460
836.064	24270
836.202	24266
836.34	24414
836.478	24498
836.615	24445
836.753	24372
836.891	24563
837.029	24505
837.167	24369
837.305	24433
837.443	24361
837.58	24369
837.718	24262
837.856	24281
837.993	24197
838.131	24205
838.269	24224
838.406	24201
838.544	24076
838.681	23843
838.819	23840
838.956	23726
839.094	23783
839.231	23779
839.369	23809
839.506	24136
839.643	23992
839.781	23779
839.918	23619
840.055	23668
840.193	23638
840.33	23707
840.467	23627
840.604	23630
840.742	24003
840.879	23573
841.016	23661
841.153	23539
841.29	23691
841.427	23623
841.564	23783
841.701	23581
841.838	23535
841.975	23687
842.112	23589
842.249	23444
842.385	23368
842.522	23653
842.659	23505
842.796	23345
842.933	23425
843.069	23303
843.206	23315
843.343	23512
843.479	23433
843.616	23376
843.752	23220
843.889	23132
844.025	23368
844.162	23178
844.298	23307
844.435	23121
844.571	23079
844.708	23345
844.844	23341
844.98	23280
845.117	23349
845.253	23090
845.389	23022
845.525	22980
845.661	23098
845.798	22915
845.934	22980
846.07	22831
846.206	23003
846.342	23033
846.478	22877
846.614	22713
846.75	22588
846.886	22679
847.022	22641
847.158	22675
847.294	22592
847.429	22797
847.565	22630
847.701	22900
847.837	22440
847.972	22447
848.108	22535
848.244	22474
848.379	22314
848.515	22291
848.65	22192
848.786	22192
848.921	22188
849.057	22432
849.192	22360
849.328	22219
849.463	22143
849.598	22257
849.734	22166
849.869	22120
850.004	22112
850.14	21930
850.275	22082
850.41	21865
850.545	21899
850.68	21945
850.815	22070
850.95	21937
851.085	22109
851.22	22097
851.355	22059
851.49	21922
851.625	21975
851.76	21911
851.895	21880
852.03	21724
852.165	22128
852.299	22032
852.434	22112
852.569	22158
852.703	21915
852.838	22051
852.973	22204
853.107	22120
853.242	21956
853.376	21956
853.511	21770
853.645	21819
853.78	21823
853.914	21831
854.048	21778
854.183	21781
854.317	21838
854.451	21922
854.585	21850
854.72	21854
854.854	21880
854.988	21663
855.122	21793
855.256	21766
855.39	21728
855.524	21873
855.658	21781
855.792	21861
855.926	21842
856.06	21934
856.194	21915
856.327	21831
856.461	21827
856.595	21713
856.729	21762
856.862	21835
856.996	21884
857.13	21979
857.263	21888
857.397	21941
857.53	21739
857.664	21835
857.797	21800
857.931	22002
858.064	21880
858.197	21956
858.331	21739
858.464	21743
858.597	21724
858.731	21720
858.864	21762
858.997	21755
859.13	21774
859.263	21827
859.396	21960
859.529	21770
859.662	21705
859.795	21739
859.928	21854
860.061	22032
860.194	21979
860.327	21865
860.46	21774
860.592	21956
860.725	21972
860.858	21998
860.99	21762
861.123	21759
861.256	21732
861.388	21888
861.521	22580
861.653	21622
861.786	21614
861.918	21682
862.05	21717
862.183	21766
862.315	21800
862.447	21827
862.58	21698
862.712	21618
862.844	21416
862.976	21648
863.108	21679
863.24	21880
863.372	21477
863.504	21606
863.636	21386
863.768	21663
863.9	21557
864.032	21488
864.164	21500
864.296	21545
864.428	21511
864.559	21652
864.691	21595
864.823	21504
864.954	21587
865.086	21538
865.217	21363
865.349	21382
865.48	21382
865.612	21393
865.743	21519
865.875	21355
866.006	21355
866.137	21439
866.269	21378
866.4	21443
866.531	21199
866.662	21317
866.793	21355
866.924	21340
867.055	21325
867.186	21230
867.317	21283
867.448	21264
867.579	21344
867.71	21245
867.841	21184
867.972	21268
868.103	21348
868.233	21298
868.364	21245
868.495	21389
868.625	21545
868.756	21690
868.886	21519
869.017	21576
869.147	21701
869.278	21686
869.408	21599
869.539	21549
869.669	21690
869.799	21576
869.929	21717
870.06	21785
870.19	21907
870.32	21759
870.45	21956
870.58	21892
870.71	22097
870.84	22048
870.97	22093
871.1	21911
871.23	22101
871.36	22051
871.489	22139
871.619	22173
871.749	22120
871.879	22143
872.008	22242
872.138	22147
872.267	22211
872.397	22120
872.526	22185
872.656	21991
872.785	21899
872.915	22112
873.044	22261
873.173	22215
873.303	22253
873.432	22333
873.561	22303
873.69	22223
873.819	22181
873.948	22257
874.077	22265
874.206	22128
874.335	22135
874.464	22367
874.593	22535
874.722	22337
874.851	22542
874.979	22516
875.108	22493
875.237	22287
875.365	22287
875.494	22459
875.623	22474
875.751	22306
875.88	22447
876.008	22478
876.136	22634
876.265	22801
876.393	22885
876.521	22858
876.65	22949
876.778	22873
876.906	22683
877.034	22649
877.162	22854
877.29	22691
877.418	22831
877.546	22763
877.674	22748
877.802	22725
877.93	22748
878.058	22618
878.185	22554
878.313	22793
878.441	22797
878.568	22504
878.696	22698
878.824	22873
878.951	22858
879.079	22991
879.206	23029
879.333	22934
879.461	22820
879.588	22858
879.715	22934
879.842	22999
879.97	22748
880.097	22565
880.224	22546
880.351	22645
880.478	22493
880.605	22615
880.732	22618
880.859	22698
880.986	22573
881.112	22622
881.239	22481
881.366	22329
881.493	22348
881.619	22154
881.746	22158
881.872	22150
881.999	22124
882.125	22173
882.252	22185
882.378	22207
882.505	22261
882.631	21994
882.757	21785
882.883	21983
883.01	21903
883.136	21759
883.262	21599
883.388	21682
883.514	21895
883.64	21736
883.766	21876
883.892	21568
884.018	21717
884.143	21736
884.269	21724
884.395	21401
884.52	21431
884.646	21458
884.772	21405
884.897	21355
885.023	21485
885.148	21694
885.274	21671
885.399	21496
885.524	21492
885.65	21428
885.775	21500
885.9	21393
886.025	21587
886.15	21568
886.275	21386
886.4	21416
886.525	21435
886.65	21393
886.775	21458
886.9	21599
887.025	21633
887.149	21576
887.274	21408
887.399	21192
887.523	21195
887.648	21233
887.773	21138
887.897	21405
888.021	21294
888.146	21188
888.27	21313
888.395	21428
888.519	21256
888.643	21268
888.767	21298
888.891	21317
889.015	20982
889.139	21089
889.263	20971
889.387	21127
889.511	21260
889.635	21123
889.759	20971
889.883	21009
890.006	21112
890.13	21169
890.254	21009
890.377	20990
890.501	20716
890.624	20823
890.748	20819
890.871	20712
890.995	20579
891.118	20609
891.241	20598
891.364	20579
891.488	20686
891.611	20564
891.734	20484
891.857	20739
891.98	20606
892.103	20522
892.226	20636
892.349	20533
892.471	20469
892.594	20499
892.717	20484
892.839	20339
892.962	20526
893.085	20560
893.207	20476
893.33	20476
893.452	20419
893.575	20404
893.697	20507
893.819	20632
893.941	20640
894.064	20609
894.186	20465
894.308	20332
894.43	20522
894.552	20621
894.674	20568
894.796	20332
894.918	20503
895.04	20457
895.161	20549
895.283	20579
895.405	20400
895.526	20552
895.648	20533
895.769	20507
895.891	20442
896.012	20484
896.134	20526
896.255	20442
896.376	20549
896.498	20514
896.619	20518
896.74	20484
896.861	20507
896.982	20883
897.103	20944
897.224	20724
897.345	20670
897.466	20735
897.587	20590
897.708	20842
897.828	20678
897.949	20667
898.07	20552
898.19	20674
898.311	20708
898.431	20613
898.552	20720
898.672	20697
898.792	20815
898.913	20811
899.033	20625
899.153	20518
899.273	20381
899.393	20522
899.513	20423
899.633	20450
899.753	20476
899.873	20419
899.993	20377
900.113	20434
900.232	20423
900.352	20355
900.472	20229
900.591	20153
900.711	20149
900.83	20130
900.95	20229
901.069	20237
901.189	20100
901.308	19902
901.427	19700
901.546	19761
901.665	19776
901.784	19784
901.904	19658
902.023	19506
902.141	19350
902.26	19301
902.379	19426
902.498	19369
902.617	19293
902.735	19354
902.854	19168
902.973	19240
903.091	19000
903.21	18973
903.328	18924
903.446	18970
903.565	18806
903.683	18844
903.801	18661
903.919	18681
904.038	18642
904.156	18498
904.274	18650
904.392	18464
904.51	18391
904.627	18483
904.745	18559
904.863	18635
904.981	18319
905.098	18190
905.216	18178
905.334	18285
905.451	18273
905.569	18144
905.686	18251
905.803	18159
905.921	17931
906.038	18178
906.155	18015
906.272	17847
906.389	17927
906.506	17695
906.623	17828
906.74	17821
906.857	17554
906.974	17596
907.091	17718
907.208	17752
907.324	17767
907.441	17741
907.557	17433
907.674	17406
907.79	17376
907.907	17356
908.023	17341
908.139	17387
908.256	17417
908.372	17372
908.488	17235
908.604	17193
908.72	17162
908.836	17273
908.952	17075
909.068	17269
909.184	17174
909.3	17261
909.415	17159
909.531	17155
909.647	16938
909.762	16911
909.878	16801
909.993	16847
910.108	16858
910.224	16744
910.339	16854
910.454	16630
910.57	16736
910.685	16561
910.8	16809
910.915	16831
911.03	16672
911.145	16519
911.259	16451
911.374	16432
911.489	16402
911.604	16443
911.718	16173
911.833	16249
911.947	16109
912.062	16059
912.176	16223
912.291	16215
912.405	16150
912.519	16295
912.633	16379
912.748	16154
912.862	16093
912.976	15975
913.09	15854
913.204	15979
913.318	16017
913.431	15994
913.545	16143
913.659	16181
913.772	15888
913.886	15816
914	15835
914.113	15937
914.226	15857
914.34	15945
914.453	15610
914.566	15850
914.68	15701
914.793	15671
914.906	15538
915.019	15287
915.132	15306
915.245	15378
915.358	15397
915.47	15450
915.583	15386
915.696	15405
915.809	15580
915.921	15511
916.034	15348
916.146	15180
916.259	15325
916.371	15397
916.483	15355
916.595	15306
916.708	15165
916.82	15256
916.932	15184
917.044	15184
917.156	15180
917.268	14986
917.38	15104
917.491	15020
917.603	15013
917.715	15062
917.826	15157
917.938	14948
918.049	14849
918.161	14921
918.272	15192
918.384	15116
918.495	14982
918.606	14861
918.717	14682
918.828	14834
918.939	14811
919.05	14705
919.161	14807
919.272	14640
919.383	14693
919.494	14777
919.604	15005
919.715	14792
919.826	14716
919.936	14731
920.047	14800
920.157	14758
920.267	14868
920.378	14792
920.488	14746
920.598	14899
920.708	15013
920.818	14887
920.928	14895
921.038	15066
921.148	14963
921.258	14712
921.368	14556
921.477	14473
921.587	14503
921.697	14400
921.806	14549
921.916	14332
922.025	14115
922.134	14191
922.244	14065
922.353	14149
922.462	14103
922.571	13913
922.68	13803
922.789	13780
922.898	13791
923.007	13731
923.116	13788
923.224	13807
923.333	13738
923.442	13609
923.55	13674
923.659	13578
923.767	13616
923.876	13548
923.984	13597
924.092	13502
924.201	13495
924.309	13529
924.417	13483
924.525	13403
924.633	13468
924.741	14294
924.849	13381
924.956	13343
925.064	13343
925.172	13107
925.279	13099
925.387	13206
925.494	13099
925.602	13282
925.709	13179
925.816	13038
925.924	13110
926.031	13175
926.138	13129
926.245	13198
926.352	13053
926.459	13118
926.566	13129
926.673	12996
926.779	12939
926.886	12966
926.993	12730
927.099	12821
927.206	12639
927.312	12665
927.419	12783
927.525	12696
927.631	12764
927.737	12623
927.843	12574
927.95	12346
928.056	12582
928.162	12662
928.267	12555
928.373	13046
928.479	12642
928.585	12342
928.69	12479
928.796	12494
928.901	12338
929.007	12197
929.112	12399
929.218	12289
929.323	12258
929.428	12254
929.533	12319
929.638	12216
929.743	12216
929.848	12308
929.953	12178
930.058	12060
930.163	11969
930.267	11958
930.372	12239
930.477	11855
930.581	12076
930.685	12026
930.79	11843
930.894	11813
930.998	11813
931.103	11946
931.207	11539
931.311	11520
931.415	11379
931.519	11216
931.623	11284
