Data from test_V78500241_1599.txt Node
Date: Fri Mar 25 15:52:52 CST 2022
User: usil
Spectrometer: V785-0024
Trigger mode: 0
Integration Time (sec): 4.000000E-1
Scans to average: 1
Nonlinearity correction enabled: false
Boxcar width: 0
Storing dark spectrum: false
XAxis mode: Wavelengths
Number of Pixels in Spectrum: 1024
>>>>>Begin Spectral Data<<<<<
801.071	27876
801.214	27751
801.356	27781
801.499	27351
801.641	27256
801.783	27321
801.926	27530
802.068	27245
802.211	27332
802.353	27211
802.496	27131
802.638	27077
802.78	27047
802.923	26990
803.065	27096
803.208	26940
803.35	27154
803.492	27207
803.635	27283
803.777	27173
803.919	27245
804.061	27576
804.204	27374
804.346	27256
804.488	27116
804.63	27268
804.773	27298
804.915	27321
805.057	27462
805.199	27180
805.341	27378
805.483	27427
805.626	27382
805.768	27359
805.91	27515
806.052	27439
806.194	27245
806.336	27587
806.478	27534
806.62	27317
806.762	27572
806.904	27690
807.046	28055
807.188	27842
807.33	27937
807.472	27937
807.614	27751
807.756	27812
807.898	27694
808.04	27774
808.182	27648
808.324	27736
808.465	27705
808.607	27941
808.749	28029
808.891	28097
809.033	28188
809.174	28048
809.316	27994
809.458	28078
809.6	27937
809.741	28131
809.883	28063
810.025	28436
810.166	28306
810.308	28371
810.45	28310
810.591	28261
810.733	28025
810.875	28105
811.016	27949
811.158	27793
811.299	28169
811.441	28093
811.582	28185
811.724	28067
811.865	27972
812.007	28032
812.148	28040
812.29	28086
812.431	28219
812.573	28363
812.714	28424
812.855	28577
812.997	28508
813.138	28713
813.279	28698
813.421	28538
813.562	28478
813.703	28348
813.845	28291
813.986	27953
814.127	27713
814.268	27709
814.41	27728
814.551	27762
814.692	27762
814.833	27698
814.974	27747
815.115	27629
815.256	27648
815.397	27644
815.539	27625
815.68	27405
815.821	27405
815.962	27477
816.103	27443
816.244	27431
816.385	27283
816.526	27252
816.666	27028
816.807	26990
816.948	27104
817.089	27036
817.23	27009
817.371	26994
817.512	27074
817.653	26960
817.793	26872
817.934	27062
818.075	27131
818.216	27096
818.356	27093
818.497	26819
818.638	26617
818.778	26693
818.919	26739
819.06	26807
819.2	26845
819.341	27017
819.481	26918
819.622	27272
819.762	27287
819.903	27233
820.043	27085
820.184	27089
820.324	27188
820.465	27154
820.605	27211
820.746	27161
820.886	27058
821.026	27119
821.167	27020
821.307	27279
821.447	27005
821.588	26857
821.728	26902
821.868	26640
822.008	26552
822.149	26495
822.289	26442
822.429	26168
822.569	26107
822.709	26157
822.849	25978
822.99	26043
823.13	26016
823.27	25959
823.41	25776
823.55	25704
823.69	25833
823.83	25845
823.97	25681
824.11	25597
824.25	25552
824.389	25529
824.529	25727
824.669	25830
824.809	25871
824.949	25742
825.089	25620
825.228	25769
825.368	25457
825.508	25468
825.648	25563
825.787	25502
825.927	25578
826.067	25464
826.206	25628
826.346	25453
826.485	25499
826.625	25407
826.765	25552
826.904	25502
827.044	25232
827.183	25327
827.323	25065
827.462	25217
827.601	25126
827.741	25190
827.88	25251
828.02	25103
828.159	25209
828.298	25156
828.437	25278
828.577	25240
828.716	25274
828.855	25061
828.994	24951
829.134	24871
829.273	24989
829.412	24856
829.551	24829
829.69	24734
829.829	24882
829.968	25038
830.107	25095
830.246	24901
830.385	24852
830.524	24722
830.663	24749
830.802	24730
830.941	24505
831.08	24426
831.219	24620
831.357	24578
831.496	24757
831.635	24604
831.774	24437
831.913	24380
832.051	24422
832.19	24167
832.329	24372
832.467	24247
832.606	24194
832.744	24213
832.883	24140
833.022	24083
833.16	24076
833.299	24251
833.437	24216
833.576	24308
833.714	24163
833.852	24197
833.991	24384
834.129	24277
834.267	24296
834.406	24163
834.544	24323
834.682	24304
834.821	24174
834.959	24403
835.097	24182
835.235	24262
835.373	24243
835.511	24129
835.65	24095
835.788	24125
835.926	24041
836.064	23897
836.202	23874
836.34	24091
836.478	24163
836.615	23916
836.753	24079
836.891	24247
837.029	24068
837.167	23908
837.305	23954
837.443	24011
837.58	23821
837.718	23923
837.856	23832
837.993	23790
838.131	23961
838.269	23779
838.406	23859
838.544	23775
838.681	23516
838.819	23562
838.956	23250
839.094	23425
839.231	23326
839.369	23589
839.506	23714
839.643	23638
839.781	23429
839.918	23356
840.055	23326
840.193	23364
840.33	23440
840.467	23353
840.604	23307
840.742	23562
840.879	23208
841.016	23216
841.153	23155
841.29	23364
841.427	23311
841.564	23368
841.701	23280
841.838	23292
841.975	22911
842.112	23227
842.249	23155
842.385	23086
842.522	23330
842.659	23185
842.796	23064
842.933	23033
843.069	23060
843.206	23037
843.343	23159
843.479	23048
843.616	22923
843.752	22820
843.889	22866
844.025	23067
844.162	22729
844.298	22889
844.435	22778
844.571	22881
844.708	22835
844.844	23014
844.98	22930
845.117	22793
845.253	22679
845.389	22706
845.525	22694
845.661	22592
845.798	22535
845.934	22611
846.07	22470
846.206	22641
846.342	22683
846.478	22470
846.614	22367
846.75	22234
846.886	22272
847.022	22242
847.158	22147
847.294	22211
847.429	22109
847.565	22268
847.701	22561
847.837	22090
847.972	21941
848.108	22090
848.244	22044
848.379	22025
848.515	21888
848.65	21781
848.786	21831
848.921	21899
849.057	21949
849.192	21865
849.328	21861
849.463	21918
849.598	21804
849.734	21873
849.869	21686
850.004	21572
850.14	21637
850.275	21682
850.41	21637
850.545	21675
850.68	21587
850.815	21713
850.95	21580
851.085	21720
851.22	21656
851.355	21633
851.49	21591
851.625	21549
851.76	21686
851.895	21610
852.03	21629
852.165	21641
852.299	21603
852.434	21736
852.569	21675
852.703	21572
852.838	21637
852.973	21762
853.107	21595
853.242	21561
853.376	21473
853.511	21272
853.645	21382
853.78	21606
853.914	21329
854.048	21545
854.183	21428
854.317	21606
854.451	21705
854.585	21492
854.72	21473
854.854	21606
854.988	21294
855.122	21424
855.256	21473
855.39	21405
855.524	21595
855.658	21538
855.792	21504
855.926	21447
856.06	21526
856.194	21561
856.327	21466
856.461	21386
856.595	21431
856.729	21405
856.862	21648
856.996	21485
857.13	21530
857.263	21629
857.397	21599
857.53	21370
857.664	21504
857.797	21504
857.931	21549
858.064	21416
858.197	21568
858.331	21435
858.464	21469
858.597	21386
858.731	21488
858.864	21447
858.997	21447
859.13	21534
859.263	21488
859.396	21523
859.529	21420
859.662	21397
859.795	21420
859.928	21458
860.061	21583
860.194	21625
860.327	21561
860.46	21416
860.592	21637
860.725	21606
860.858	21599
860.99	21603
861.123	21428
861.256	21408
861.388	21530
861.521	22154
861.653	21370
861.786	21279
861.918	21150
862.05	21268
862.183	21275
862.315	21367
862.447	21416
862.58	21447
862.712	21310
862.844	21062
862.976	21317
863.108	21291
863.24	21424
863.372	21093
863.504	21123
863.636	21222
863.768	21085
863.9	21192
864.032	21096
864.164	21203
864.296	21127
864.428	21325
864.559	21268
864.691	21218
864.823	21161
864.954	21176
865.086	21112
865.217	21089
865.349	21036
865.48	21096
865.612	21108
865.743	21230
865.875	21176
866.006	21047
866.137	21108
866.269	21058
866.4	21017
866.531	21036
866.662	21017
866.793	21066
866.924	20960
867.055	20910
867.186	20952
867.317	20937
867.448	20804
867.579	21020
867.71	21066
867.841	20925
867.972	21017
868.103	21005
868.233	20937
868.364	20956
868.495	21013
868.625	21226
868.756	21393
868.886	21230
869.017	21275
869.147	21374
869.278	21386
869.408	21298
869.539	21378
869.669	21298
869.799	21245
869.929	21317
870.06	21370
870.19	21545
870.32	21553
870.45	21583
870.58	21675
870.71	21739
870.84	21759
870.97	21682
871.1	21545
871.23	21804
871.36	21755
871.489	21701
871.619	21827
871.749	21770
871.879	21911
872.008	21915
872.138	21876
872.267	21835
872.397	21835
872.526	21629
872.656	21819
872.785	21675
872.915	21941
873.044	21804
873.173	21964
873.303	21865
873.432	21873
873.561	22032
873.69	21922
873.819	21808
873.948	21968
874.077	21869
874.206	21827
874.335	21869
874.464	21869
874.593	22124
874.722	22017
874.851	22093
874.979	22143
875.108	22078
875.237	22048
875.365	22036
875.494	22017
875.623	22063
875.751	21975
875.88	22177
876.008	22196
876.136	22272
876.265	22459
876.393	22550
876.521	22462
876.65	22626
876.778	22615
876.906	22443
877.034	22459
877.162	22462
877.29	22379
877.418	22481
877.546	22409
877.674	22596
877.802	22394
877.93	22485
878.058	22268
878.185	22242
878.313	22459
878.441	22348
878.568	22207
878.696	22455
878.824	22440
878.951	22481
879.079	22668
879.206	22698
879.333	22618
879.461	22504
879.588	22481
879.715	22691
879.842	22763
879.97	22580
880.097	22253
880.224	22200
880.351	22253
880.478	22268
880.605	22223
880.732	22196
880.859	22542
880.986	22268
881.112	22367
881.239	22223
881.366	21884
881.493	21945
881.619	21892
881.746	21953
881.872	21884
881.999	21747
882.125	21846
882.252	21835
882.378	21854
882.505	21857
882.631	21671
882.757	21583
882.883	21580
883.01	21530
883.136	21393
883.262	21454
883.388	21477
883.514	21466
883.64	21492
883.766	21469
883.892	21401
884.018	21386
884.143	21428
884.269	21618
884.395	21279
884.52	21089
884.646	21268
884.772	21020
884.897	20960
885.023	21211
885.148	21283
885.274	21291
885.399	21230
885.524	21112
885.65	21116
885.775	21192
885.9	21245
886.025	21302
886.15	21161
886.275	21089
886.4	21036
886.525	21245
886.65	21108
886.775	21043
886.9	21336
887.025	21355
887.149	21180
887.274	21024
887.399	20941
887.523	20967
887.648	20883
887.773	20842
887.897	21043
888.021	20963
888.146	20872
888.27	21066
888.395	21081
888.519	20994
888.643	20921
888.767	20956
888.891	20864
889.015	20845
889.139	20826
889.263	20731
889.387	20929
889.511	20963
889.635	20902
889.759	20765
889.883	20716
890.006	20853
890.13	20777
890.254	20655
890.377	20629
890.501	20571
890.624	20526
890.748	20560
890.871	20419
890.995	20317
891.118	20221
891.241	20450
891.364	20286
891.488	20511
891.611	20252
891.734	20362
891.857	20374
891.98	20400
892.103	20476
892.226	20366
892.349	20347
892.471	20252
892.594	20267
892.717	20450
892.839	20263
892.962	20168
893.085	20225
893.207	20271
893.33	20244
893.452	20088
893.575	20240
893.697	20122
893.819	20240
893.941	20351
894.064	20415
894.186	20305
894.308	20122
894.43	20271
894.552	20317
894.674	20370
894.796	20103
894.918	20149
895.04	20111
895.161	20332
895.283	20221
895.405	20138
895.526	20278
895.648	20286
895.769	20351
895.891	20252
896.012	20374
896.134	20385
896.255	20233
896.376	20244
896.498	20336
896.619	20275
896.74	20294
896.861	20355
896.982	20579
897.103	20602
897.224	20564
897.345	20461
897.466	20484
897.587	20381
897.708	20636
897.828	20507
897.949	20473
898.07	20206
898.19	20347
898.311	20476
898.431	20446
898.552	20545
898.672	20476
898.792	20469
898.913	20511
899.033	20374
899.153	20221
899.273	20168
899.393	20130
899.513	20362
899.633	20237
899.753	20263
899.873	20126
899.993	20336
900.113	20172
900.232	20240
900.352	20149
900.472	20183
900.591	20043
900.711	20046
900.83	19894
900.95	20138
901.069	19978
901.189	19864
901.308	19712
901.427	19518
901.546	19586
901.665	19487
901.784	19582
901.904	19400
902.023	19369
902.141	19050
902.26	19141
902.379	19156
902.498	19156
902.617	18943
902.735	19240
902.854	19095
902.973	18966
903.091	18791
903.21	18711
903.328	18783
903.446	18612
903.565	18536
903.683	18544
903.801	18475
903.919	18532
904.038	18471
904.156	18296
904.274	18410
904.392	18357
904.51	18323
904.627	18365
904.745	18304
904.863	18433
904.981	18068
905.098	18011
905.216	18068
905.334	17977
905.451	17923
905.569	17931
905.686	17939
905.803	17893
905.921	17790
906.038	17840
906.155	17703
906.272	17684
906.389	17710
906.506	17482
906.623	17562
906.74	17497
906.857	17452
906.974	17364
907.091	17581
907.208	17661
907.324	17589
907.441	17452
907.557	17254
907.674	17181
907.79	17235
907.907	17284
908.023	17254
908.139	17227
908.256	17216
908.372	17086
908.488	17067
908.604	16976
908.72	16965
908.836	16953
908.952	16919
909.068	17102
909.184	17037
909.3	16873
909.415	16968
909.531	16995
909.647	16710
909.762	16691
909.878	16634
909.993	16706
910.108	16645
910.224	16634
910.339	16653
910.454	16447
910.57	16588
910.685	16440
910.8	16725
910.915	16641
911.03	16470
911.145	16265
911.259	16249
911.374	16215
911.489	16135
911.604	16265
911.718	16013
911.833	15941
911.947	15983
912.062	15774
912.176	16040
912.291	16002
912.405	15994
912.519	16230
912.633	16173
912.748	16029
912.862	16074
912.976	15846
913.09	15622
913.204	15789
913.318	15812
913.431	15903
913.545	15956
913.659	15911
913.772	15808
913.886	15606
914	15591
914.113	15709
914.226	15899
914.34	15652
914.453	15447
914.566	15584
914.68	15454
914.793	15488
914.906	15279
915.019	15211
915.132	15169
915.245	15237
915.358	15184
915.47	15123
915.583	15184
915.696	15306
915.809	15408
915.921	15340
916.034	15161
916.146	15146
916.259	15226
916.371	15237
916.483	15138
916.595	15097
916.708	14986
916.82	15005
916.932	15070
917.044	15013
917.156	15013
917.268	14883
917.38	14979
917.491	14842
917.603	14811
917.715	14998
917.826	14937
917.938	14902
918.049	14693
918.161	14834
918.272	14906
918.384	14944
918.495	14845
918.606	14727
918.717	14594
918.828	14632
918.939	14670
919.05	14526
919.161	14659
919.272	14415
919.383	14408
919.494	14693
919.604	14826
919.715	14530
919.826	14480
919.936	14549
920.047	14693
920.157	14518
920.267	14823
920.378	14514
920.488	14549
920.598	14727
920.708	14910
920.818	14598
920.928	14765
921.038	14929
921.148	14864
921.258	14587
921.368	14431
921.477	14355
921.587	14244
921.697	14195
921.806	14301
921.916	14119
922.025	14084
922.134	13989
922.244	13928
922.353	13982
922.462	13826
922.571	13814
922.68	13742
922.789	13529
922.898	13677
923.007	13529
923.116	13609
923.224	13559
923.333	13620
923.442	13487
923.55	13441
923.659	13483
923.767	13441
923.876	13430
923.984	13483
924.092	13308
924.201	13426
924.309	13441
924.417	13339
924.525	13270
924.633	13285
924.741	14195
924.849	13084
924.956	13198
925.064	13042
925.172	12962
925.279	12981
925.387	13061
925.494	13061
925.602	13099
925.709	13023
925.816	13004
925.924	13053
926.031	13072
926.138	12871
926.245	12996
926.352	12806
926.459	12928
926.566	12989
926.673	12882
926.779	12734
926.886	12757
926.993	12616
927.099	12589
927.206	12544
927.312	12597
927.419	12604
927.525	12646
927.631	12585
927.737	12498
927.843	12467
927.95	12338
928.056	12494
928.162	12471
928.267	12502
928.373	13038
928.479	12452
928.585	12251
928.69	12323
928.796	12391
928.901	12220
929.007	12178
929.112	12338
929.218	12224
929.323	12136
929.428	12095
929.533	12243
929.638	12159
929.743	12125
929.848	12175
929.953	12068
930.058	11977
930.163	11813
930.267	11885
930.372	11939
930.477	11752
930.581	12003
930.685	11893
930.79	11695
930.894	11733
930.998	11676
931.103	11714
931.207	11436
931.311	11379
931.415	11345
931.519	11037
931.623	11105
