Data from test_V78500241_2754.txt Node
Date: Fri Mar 25 16:00:52 CST 2022
User: usil
Spectrometer: V785-0024
Trigger mode: 0
Integration Time (sec): 4.000000E-1
Scans to average: 1
Nonlinearity correction enabled: false
Boxcar width: 0
Storing dark spectrum: false
XAxis mode: Wavelengths
Number of Pixels in Spectrum: 1024
>>>>>Begin Spectral Data<<<<<
801.071	28729
801.214	28721
801.356	28557
801.499	28440
801.641	28382
801.783	28367
801.926	28253
802.068	28226
802.211	28382
802.353	28253
802.496	28048
802.638	28090
802.78	28192
802.923	28010
803.065	27941
803.208	27869
803.35	28090
803.492	28112
803.635	28348
803.777	28135
803.919	28272
804.061	28615
804.204	28356
804.346	28223
804.488	28314
804.63	28246
804.773	28242
804.915	28352
805.057	28447
805.199	28200
805.341	28280
805.483	28516
805.626	28394
805.768	28375
805.91	28341
806.052	28512
806.194	28436
806.336	28634
806.478	28367
806.62	28310
806.762	28687
806.904	28782
807.046	28946
807.188	28847
807.33	28877
807.472	29124
807.614	28752
807.756	28873
807.898	28854
808.04	28767
808.182	28634
808.324	28881
808.465	28733
808.607	29041
808.749	29109
808.891	29261
809.033	29239
809.174	29265
809.316	29223
809.458	28999
809.6	29075
809.741	29341
809.883	29318
810.025	29448
810.166	29562
810.308	29471
810.45	29178
810.591	29440
810.733	29143
810.875	29212
811.016	29033
811.158	29067
811.299	29284
811.441	29311
811.582	29322
811.724	29231
811.865	29124
812.007	29235
812.148	29269
812.29	29204
812.431	29368
812.573	29554
812.714	29535
812.855	29657
812.997	29608
813.138	29931
813.279	29851
813.421	29916
813.562	29745
813.703	29543
813.845	29471
813.986	29006
814.127	29022
814.268	28904
814.41	28790
814.551	28881
814.692	28946
814.833	28877
814.974	28923
815.115	28877
815.256	28736
815.397	28698
815.539	28668
815.68	28656
815.821	28485
815.962	28634
816.103	28679
816.244	28493
816.385	28645
816.526	28443
816.666	28428
816.807	28162
816.948	28177
817.089	28166
817.23	28268
817.371	28428
817.512	28200
817.653	28192
817.793	28105
817.934	28120
818.075	28162
818.216	28143
818.356	28124
818.497	28154
818.638	27899
818.778	27968
818.919	27888
819.06	27956
819.2	28063
819.341	28093
819.481	28154
819.622	28371
819.762	28523
819.903	28325
820.043	28470
820.184	28284
820.324	28257
820.465	28443
820.605	28234
820.746	28363
820.886	28158
821.026	28253
821.167	28219
821.307	28360
821.447	28128
821.588	28143
821.728	28002
821.868	27743
822.008	27667
822.149	27717
822.289	27743
822.429	27351
822.569	27374
822.709	27393
822.849	27329
822.99	27207
823.13	27275
823.27	27093
823.41	26963
823.55	26914
823.69	27070
823.83	26998
823.97	26952
824.11	26804
824.25	26697
824.389	26826
824.529	26781
824.669	26731
824.809	26921
824.949	26823
825.089	26910
825.228	26910
825.368	26693
825.508	26587
825.648	26644
825.787	26682
825.927	26834
826.067	26720
826.206	26571
826.346	26834
826.485	26857
826.625	26621
826.765	26807
826.904	26891
827.044	26629
827.183	26457
827.323	26431
827.462	26423
827.601	26484
827.741	26537
827.88	26453
828.02	26271
828.159	26396
828.298	26355
828.437	26434
828.577	26271
828.716	26469
828.855	26320
828.994	26157
829.134	26210
829.273	26111
829.412	25974
829.551	26077
829.69	26130
829.829	26145
829.968	26168
830.107	26164
830.246	26084
830.385	26008
830.524	25947
830.663	25913
830.802	25947
830.941	25609
831.08	25731
831.219	25795
831.357	25871
831.496	25966
831.635	25719
831.774	25715
831.913	25510
832.051	25479
832.19	25609
832.329	25594
832.467	25377
832.606	25400
832.744	25343
832.883	25354
833.022	25343
833.16	25304
833.299	25499
833.437	25552
833.576	25506
833.714	25445
833.852	25495
833.991	25373
834.129	25544
834.267	25487
834.406	25282
834.544	25506
834.682	25533
834.821	25415
834.959	25544
835.097	25339
835.235	25506
835.373	25495
835.511	25415
835.65	25247
835.788	25384
835.926	25091
836.064	25065
836.202	25145
836.34	25145
836.478	25403
836.615	25285
836.753	25236
836.891	25270
837.029	25266
837.167	25213
837.305	25145
837.443	25069
837.58	25133
837.718	25027
837.856	25107
837.993	25042
838.131	25141
838.269	24837
838.406	25008
838.544	24981
838.681	24700
838.819	24783
838.956	24616
839.094	24673
839.231	24646
839.369	24840
839.506	24970
839.643	24852
839.781	24646
839.918	24521
840.055	24574
840.193	24559
840.33	24414
840.467	24570
840.604	24513
840.742	24798
840.879	24334
841.016	24399
841.153	24502
841.29	24486
841.427	24464
841.564	24388
841.701	24483
841.838	24350
841.975	24277
842.112	24285
842.249	24285
842.385	24209
842.522	24460
842.659	24220
842.796	24220
842.933	24292
843.069	24152
843.206	24136
843.343	24308
843.479	24148
843.616	24216
843.752	23977
843.889	24068
844.025	24083
844.162	24026
844.298	24083
844.435	23988
844.571	23984
844.708	23999
844.844	24144
844.98	24087
845.117	24117
845.253	24022
845.389	23912
845.525	23984
845.661	23752
845.798	23741
845.934	23783
846.07	23874
846.206	23878
846.342	23794
846.478	23649
846.614	23566
846.75	23467
846.886	23448
847.022	23558
847.158	23501
847.294	23379
847.429	23448
847.565	23410
847.701	23676
847.837	23265
847.972	23254
848.108	23273
848.244	23174
848.379	23105
848.515	23025
848.65	23056
848.786	22984
848.921	23083
849.057	23041
849.192	23006
849.328	23048
849.463	22976
849.598	22987
849.734	22976
849.869	22858
850.004	22957
850.14	22774
850.275	22790
850.41	22706
850.545	22694
850.68	22847
850.815	22816
850.95	22896
851.085	22991
851.22	22919
851.355	22736
851.49	22812
851.625	22869
851.76	22820
851.895	22752
852.03	22786
852.165	22752
852.299	22854
852.434	22900
852.569	22809
852.703	22672
852.838	22869
852.973	22949
853.107	22949
853.242	22710
853.376	22649
853.511	22561
853.645	22611
853.78	22713
853.914	22717
854.048	22618
854.183	22584
854.317	22580
854.451	22828
854.585	22660
854.72	22664
854.854	22774
854.988	22573
855.122	22603
855.256	22489
855.39	22588
855.524	22694
855.658	22771
855.792	22672
855.926	22687
856.06	22683
856.194	22626
856.327	22596
856.461	22497
856.595	22557
856.729	22618
856.862	22702
856.996	22755
857.13	22664
857.263	22645
857.397	22653
857.53	22592
857.664	22740
857.797	22615
857.931	22858
858.064	22702
858.197	22626
858.331	22470
858.464	22615
858.597	22424
858.731	22565
858.864	22569
858.997	22599
859.13	22546
859.263	22672
859.396	22828
859.529	22603
859.662	22618
859.795	22531
859.928	22565
860.061	22820
860.194	22698
860.327	22645
860.46	22603
860.592	22683
860.725	22774
860.858	22847
860.99	22710
861.123	22615
861.256	22489
861.388	22698
861.521	23356
861.653	22402
861.786	22436
861.918	22516
862.05	22459
862.183	22668
862.315	22634
862.447	22565
862.58	22698
862.712	22519
862.844	22344
862.976	22474
863.108	22462
863.24	22805
863.372	22295
863.504	22341
863.636	22223
863.768	22348
863.9	22363
864.032	22230
864.164	22322
864.296	22291
864.428	22344
864.559	22405
864.691	22371
864.823	22367
864.954	22478
865.086	22207
865.217	22265
865.349	22101
865.48	22090
865.612	22329
865.743	22398
865.875	22360
866.006	22215
866.137	22169
866.269	22192
866.4	22249
866.531	22147
866.662	22124
866.793	22112
866.924	22230
867.055	22177
867.186	22150
867.317	22025
867.448	22143
867.579	22105
867.71	22059
867.841	22006
867.972	22177
868.103	22219
868.233	22207
868.364	22177
868.495	22295
868.625	22462
868.756	22421
868.886	22382
869.017	22504
869.147	22478
869.278	22512
869.408	22341
869.539	22523
869.669	22417
869.799	22337
869.929	22538
870.06	22455
870.19	22721
870.32	22622
870.45	22717
870.58	22729
870.71	22877
870.84	22869
870.97	22725
871.1	22919
871.23	23044
871.36	23022
871.489	22923
871.619	23025
871.749	23033
871.879	23067
872.008	23284
872.138	23071
872.267	22889
872.397	22740
872.526	22816
872.656	22866
872.785	22805
872.915	23010
873.044	23109
873.173	23014
873.303	23075
873.432	23090
873.561	23128
873.69	23056
873.819	23014
873.948	23014
874.077	23014
874.206	23003
874.335	22995
874.464	23235
874.593	23250
874.722	23166
874.851	23258
874.979	23265
875.108	23280
875.237	23178
875.365	23147
875.494	23178
875.623	23250
875.751	23326
875.88	23330
876.008	23288
876.136	23452
876.265	23661
876.393	23817
876.521	23737
876.65	23707
876.778	23638
876.906	23649
877.034	23482
877.162	23528
877.29	23490
877.418	23589
877.546	23589
877.674	23528
877.802	23642
877.93	23467
878.058	23581
878.185	23497
878.313	23509
878.441	23661
878.568	23425
878.696	23581
878.824	23600
878.951	23661
879.079	23737
879.206	23779
879.333	23828
879.461	23558
879.588	23722
879.715	23809
879.842	23821
879.97	23691
880.097	23474
880.224	23463
880.351	23467
880.478	23566
880.605	23410
880.732	23330
880.859	23680
880.986	23429
881.112	23486
881.239	23227
881.366	23132
881.493	23147
881.619	22968
881.746	22946
881.872	23006
881.999	22980
882.125	22987
882.252	22862
882.378	22961
882.505	23064
882.631	22866
882.757	22641
882.883	22748
883.01	22508
883.136	22596
883.262	22493
883.388	22447
883.514	22577
883.64	22557
883.766	22546
883.892	22409
884.018	22409
884.143	22497
884.269	22668
884.395	22367
884.52	22295
884.646	22318
884.772	22177
884.897	22200
885.023	22299
885.148	22299
885.274	22344
885.399	22363
885.524	22382
885.65	22382
885.775	22268
885.9	22078
886.025	22341
886.15	22382
886.275	22223
886.4	22185
886.525	22333
886.65	22158
886.775	22139
886.9	22386
887.025	22375
887.149	22310
887.274	22070
887.399	22029
887.523	21975
887.648	21842
887.773	21876
887.897	22078
888.021	22040
888.146	22010
888.27	22055
888.395	22093
888.519	21934
888.643	22078
888.767	22017
888.891	22032
889.015	21823
889.139	21831
889.263	21698
889.387	21968
889.511	22029
889.635	21899
889.759	21846
889.883	21743
890.006	21846
890.13	21945
890.254	21842
890.377	21717
890.501	21504
890.624	21496
890.748	21614
890.871	21606
890.995	21291
891.118	21359
891.241	21435
891.364	21359
891.488	21500
891.611	21329
891.734	21340
891.857	21500
891.98	21393
892.103	21313
892.226	21447
892.349	21283
892.471	21116
892.594	21272
892.717	21370
892.839	21184
892.962	21272
893.085	21332
893.207	21184
893.33	21081
893.452	21150
893.575	21298
893.697	21214
893.819	21359
893.941	21557
894.064	21397
894.186	21138
894.308	21165
894.43	21279
894.552	21424
894.674	21306
894.796	21157
894.918	21077
895.04	21298
895.161	21252
895.283	21218
895.405	21165
895.526	21218
895.648	21222
895.769	21135
895.891	21321
896.012	21355
896.134	21169
896.255	21195
896.376	21176
896.498	21241
896.619	21245
896.74	21230
896.861	21241
896.982	21549
897.103	21530
897.224	21591
897.345	21439
897.466	21310
897.587	21389
897.708	21477
897.828	21553
897.949	21226
898.07	21211
898.19	21344
898.311	21485
898.431	21313
898.552	21298
898.672	21443
898.792	21416
898.913	21393
899.033	21340
899.153	21096
899.273	21100
899.393	21154
899.513	21081
899.633	21146
899.753	21165
899.873	21089
899.993	21218
900.113	21055
900.232	21108
900.352	21017
900.472	20960
900.591	20796
900.711	20872
900.83	20948
900.95	20998
901.069	21009
901.189	20834
901.308	20518
901.427	20473
901.546	20492
901.665	20412
901.784	20530
901.904	20427
902.023	20263
902.141	20069
902.26	20062
902.379	20130
902.498	19936
902.617	19852
902.735	19978
902.854	19997
902.973	19887
903.091	19685
903.21	19575
903.328	19647
903.446	19487
903.565	19419
903.683	19449
903.801	19282
903.919	19396
904.038	19430
904.156	19175
904.274	19263
904.392	19076
904.51	19133
904.627	19221
904.745	19107
904.863	19247
904.981	19057
905.098	18798
905.216	18875
905.334	18935
905.451	18852
905.569	18863
905.686	18829
905.803	18951
905.921	18608
906.038	18753
906.155	18585
906.272	18528
906.389	18582
906.506	18372
906.623	18350
906.74	18475
906.857	18262
906.974	18308
907.091	18506
907.208	18506
907.324	18422
907.441	18399
907.557	18144
907.674	18114
907.79	18022
907.907	18117
908.023	18091
908.139	18110
908.256	17999
908.372	17977
908.488	17901
908.604	17843
908.72	17748
908.836	17733
908.952	17802
909.068	17832
909.184	17870
909.3	17729
909.415	17840
909.531	17805
909.647	17455
909.762	17509
909.878	17471
909.993	17562
910.108	17551
910.224	17448
910.339	17501
910.454	17311
910.57	17269
910.685	17155
910.8	17501
910.915	17440
911.03	17265
911.145	17136
911.259	17086
911.374	17010
911.489	16972
911.604	16972
911.718	16767
911.833	16847
911.947	16691
912.062	16592
912.176	16786
912.291	16820
912.405	16805
912.519	16934
912.633	16968
912.748	16713
912.862	16812
912.976	16672
913.09	16580
913.204	16675
913.318	16630
913.431	16687
913.545	16634
913.659	16668
913.772	16641
913.886	16508
914	16398
914.113	16497
914.226	16592
914.34	16451
914.453	16322
914.566	16497
914.68	16322
914.793	16363
914.906	16097
915.019	16021
915.132	15842
915.245	15983
915.358	15972
915.47	16071
915.583	15915
915.696	16048
915.809	16116
915.921	16101
916.034	15968
916.146	15819
916.259	15930
916.371	15842
916.483	15907
916.595	15816
916.708	15709
916.82	15816
916.932	15842
917.044	15755
917.156	15667
917.268	15618
917.38	15690
917.491	15622
917.603	15485
917.715	15671
917.826	15641
917.938	15538
918.049	15485
918.161	15530
918.272	15591
918.384	15698
918.495	15450
918.606	15359
918.717	15272
918.828	15386
918.939	15405
919.05	15310
919.161	15363
919.272	15097
919.383	15165
919.494	15462
919.604	15542
919.715	15287
919.826	15192
919.936	15237
920.047	15348
920.157	15325
920.267	15485
920.378	15291
920.488	15218
920.598	15439
920.708	15576
920.818	15450
920.928	15310
921.038	15606
921.148	15485
921.258	15123
921.368	15055
921.477	15009
921.587	15017
921.697	14902
921.806	14971
921.916	14914
922.025	14746
922.134	14636
922.244	14579
922.353	14610
922.462	14465
922.571	14431
922.68	14339
922.789	14298
922.898	14221
923.007	14206
923.116	14218
923.224	14320
923.333	14172
923.442	14130
923.55	14142
923.659	14088
923.767	14142
923.876	14043
923.984	14077
924.092	13967
924.201	14012
924.309	14050
924.417	13993
924.525	13890
924.633	13982
924.741	14800
924.849	13750
924.956	13871
925.064	13715
925.172	13639
925.279	13590
925.387	13670
925.494	13681
925.602	13841
925.709	13605
925.816	13506
925.924	13628
926.031	13636
926.138	13613
926.245	13544
926.352	13487
926.459	13594
926.566	13571
926.673	13495
926.779	13438
926.886	13377
926.993	13198
927.099	13190
927.206	13149
927.312	13080
927.419	13202
927.525	13206
927.631	13141
927.737	13141
927.843	13069
927.95	12924
928.056	12977
928.162	13012
928.267	13015
928.373	13510
928.479	13126
928.585	12856
928.69	12924
928.796	12981
928.901	12932
929.007	12726
929.112	12867
929.218	12856
929.323	12825
929.428	12650
929.533	12909
929.638	12585
929.743	12642
929.848	12722
929.953	12669
930.058	12547
930.163	12270
930.267	12391
930.372	12448
930.477	12235
930.581	12506
930.685	12376
930.79	12247
930.894	12266
930.998	12239
931.103	12311
931.207	11939
931.311	11939
931.415	11840
931.519	11608
931.623	11611
