Data from test_V78500241_356.txt Node
Date: Fri Mar 25 15:44:16 CST 2022
User: usil
Spectrometer: V785-0024
Trigger mode: 0
Integration Time (sec): 4.000000E-1
Scans to average: 1
Nonlinearity correction enabled: false
Boxcar width: 0
Storing dark spectrum: false
XAxis mode: Wavelengths
Number of Pixels in Spectrum: 1024
>>>>>Begin Spectral Data<<<<<
801.071	29585
801.214	29547
801.356	29490
801.499	29356
801.641	29311
801.783	29345
801.926	29216
802.068	29178
802.211	29090
802.353	29189
802.496	28999
802.638	28984
802.78	28991
802.923	28995
803.065	28831
803.208	28942
803.35	28946
803.492	29033
803.635	29113
803.777	29044
803.919	29155
804.061	29368
804.204	29296
804.346	29181
804.488	28942
804.63	29200
804.773	29060
804.915	29086
805.057	29208
805.199	29052
805.341	29254
805.483	29128
805.626	29258
805.768	29303
805.91	29212
806.052	29349
806.194	29235
806.336	29482
806.478	29220
806.62	29181
806.762	29474
806.904	29528
807.046	29821
807.188	29771
807.33	29779
807.472	29821
807.614	29516
807.756	29592
807.898	29478
808.04	29531
808.182	29505
808.324	29547
808.465	29463
808.607	29707
808.749	29802
808.891	29973
809.033	29999
809.174	29889
809.316	30038
809.458	29958
809.6	29874
809.741	30003
809.883	30060
810.025	30155
810.166	30178
810.308	30133
810.45	30129
810.591	30152
810.733	30079
810.875	29836
811.016	29843
811.158	29817
811.299	29874
811.441	30197
811.582	30213
811.724	29980
811.865	29794
812.007	29889
812.148	29676
812.29	30068
812.431	30053
812.573	30304
812.714	30403
812.855	30372
812.997	30570
813.138	30722
813.279	30582
813.421	30429
813.562	30296
813.703	30258
813.845	30049
813.986	29882
814.127	29703
814.268	29657
814.41	29665
814.551	29497
814.692	29745
814.833	29672
814.974	29646
815.115	29444
815.256	29395
815.397	29459
815.539	29459
815.68	29440
815.821	29208
815.962	29402
816.103	29471
816.244	29296
816.385	29147
816.526	29075
816.666	28946
816.807	28812
816.948	28957
817.089	29006
817.23	28873
817.371	28774
817.512	28725
817.653	28858
817.793	28771
817.934	28866
818.075	28820
818.216	28896
818.356	28713
818.497	28626
818.638	28615
818.778	28626
818.919	28569
819.06	28573
819.2	28706
819.341	28797
819.481	28828
819.622	29010
819.762	29322
819.903	29048
820.043	28968
820.184	28930
820.324	28801
820.465	28854
820.605	28934
820.746	28980
820.886	28771
821.026	28896
821.167	28911
821.307	28820
821.447	28778
821.588	28656
821.728	28519
821.868	28421
822.008	28348
822.149	28188
822.289	28246
822.429	27979
822.569	27941
822.709	27861
822.849	27812
822.99	27797
823.13	27694
823.27	27656
823.41	27526
823.55	27401
823.69	27603
823.83	27507
823.97	27435
824.11	27359
824.25	27264
824.389	27382
824.529	27389
824.669	27325
824.809	27488
824.949	27397
825.089	27344
825.228	27427
825.368	27291
825.508	27283
825.648	27176
825.787	27260
825.927	27188
826.067	27233
826.206	27146
826.346	27233
826.485	27245
826.625	27218
826.765	27351
826.904	27214
827.044	27024
827.183	26887
827.323	26762
827.462	27062
827.601	26830
827.741	26807
827.88	26872
828.02	26826
828.159	26678
828.298	26914
828.437	26940
828.577	26697
828.716	26914
828.855	26765
828.994	26655
829.134	26609
829.273	26720
829.412	26362
829.551	26522
829.69	26537
829.829	26648
829.968	26697
830.107	26602
830.246	26571
830.385	26450
830.524	26488
830.663	26278
830.802	26229
830.941	26153
831.08	26031
831.219	26176
831.357	26240
831.496	26275
831.635	26020
831.774	26138
831.913	26012
832.051	25970
832.19	25921
832.329	25890
832.467	25780
832.606	25753
832.744	25715
832.883	25670
833.022	25700
833.16	25632
833.299	25723
833.437	25814
833.576	25772
833.714	25791
833.852	25917
833.991	25826
834.129	25913
834.267	25856
834.406	25784
834.544	25757
834.682	25803
834.821	25841
834.959	25917
835.097	25734
835.235	25757
835.373	25635
835.511	25769
835.65	25594
835.788	25761
835.926	25396
836.064	25343
836.202	25502
836.34	25510
836.478	25537
836.615	25502
836.753	25521
836.891	25708
837.029	25567
837.167	25628
837.305	25521
837.443	25468
837.58	25407
837.718	25365
837.856	25396
837.993	25247
838.131	25369
838.269	25202
838.406	25388
838.544	25175
838.681	25164
838.819	24989
838.956	24909
839.094	24882
839.231	24856
839.369	25034
839.506	25122
839.643	24970
839.781	24894
839.918	24760
840.055	24909
840.193	24825
840.33	24722
840.467	24700
840.604	24798
840.742	25061
840.879	24700
841.016	24707
841.153	24570
841.29	24875
841.427	24665
841.564	24692
841.701	24665
841.838	24559
841.975	24551
842.112	24601
842.249	24559
842.385	24384
842.522	24700
842.659	24441
842.796	24311
842.933	24414
843.069	24384
843.206	24300
843.343	24532
843.479	24471
843.616	24437
843.752	24133
843.889	24232
844.025	24361
844.162	24098
844.298	24361
844.435	24174
844.571	24072
844.708	24213
844.844	24365
844.98	24319
845.117	24266
845.253	24076
845.389	24095
845.525	23954
845.661	24072
845.798	23950
845.934	23950
846.07	23908
846.206	23946
846.342	24083
846.478	23798
846.614	23687
846.75	23486
846.886	23497
847.022	23592
847.158	23649
847.294	23646
847.429	23604
847.565	23501
847.701	23771
847.837	23337
847.972	23349
848.108	23387
848.244	23288
848.379	23185
848.515	23102
848.65	23105
848.786	23143
848.921	23136
849.057	23284
849.192	23079
849.328	23277
849.463	23083
849.598	23098
849.734	22968
849.869	22991
850.004	22946
850.14	22968
850.275	22873
850.41	22858
850.545	22820
850.68	22816
850.815	23060
850.95	22771
851.085	23124
851.22	23014
851.355	22881
851.49	22790
851.625	22854
851.76	22687
851.895	22706
852.03	22793
852.165	22824
852.299	22889
852.434	22869
852.569	22980
852.703	22968
852.838	22930
852.973	22965
853.107	22980
853.242	22786
853.376	22854
853.511	22535
853.645	22683
853.78	22809
853.914	22660
854.048	22573
854.183	22771
854.317	22702
854.451	22919
854.585	22694
854.72	22694
854.854	22824
854.988	22577
855.122	22713
855.256	22584
855.39	22611
855.524	22683
855.658	22782
855.792	22630
855.926	22767
856.06	22656
856.194	22850
856.327	22755
856.461	22512
856.595	22645
856.729	22569
856.862	22793
856.996	22702
857.13	22683
857.263	22805
857.397	22721
857.53	22615
857.664	22679
857.797	22660
857.931	22755
858.064	22702
858.197	22645
858.331	22626
858.464	22554
858.597	22489
858.731	22630
858.864	22474
858.997	22603
859.13	22691
859.263	22679
859.396	22744
859.529	22569
859.662	22611
859.795	22459
859.928	22649
860.061	22805
860.194	22736
860.327	22626
860.46	22710
860.592	22702
860.725	22774
860.858	22706
860.99	22752
861.123	22542
861.256	22557
861.388	22691
861.521	23265
861.653	22493
861.786	22516
861.918	22478
862.05	22557
862.183	22554
862.315	22577
862.447	22653
862.58	22592
862.712	22352
862.844	22356
862.976	22466
863.108	22325
863.24	22816
863.372	22257
863.504	22226
863.636	22295
863.768	22181
863.9	22333
864.032	22181
864.164	22181
864.296	22329
864.428	22386
864.559	22287
864.691	22462
864.823	22375
864.954	22226
865.086	22295
865.217	22166
865.349	22173
865.48	22063
865.612	22230
865.743	22310
865.875	22344
866.006	22188
866.137	22131
866.269	22242
866.4	22230
866.531	22105
866.662	22124
866.793	22139
866.924	22109
867.055	22162
867.186	22112
867.317	22093
867.448	21926
867.579	22154
867.71	22017
867.841	21907
867.972	22120
868.103	22116
868.233	22059
868.364	22169
868.495	22207
868.625	22219
868.756	22470
868.886	22173
869.017	22284
869.147	22409
869.278	22504
869.408	22306
869.539	22310
869.669	22421
869.799	22375
869.929	22519
870.06	22360
870.19	22687
870.32	22577
870.45	22767
870.58	22710
870.71	22869
870.84	22790
870.97	22622
871.1	22733
871.23	22885
871.36	23006
871.489	22911
871.619	22908
871.749	23071
871.879	22991
872.008	23014
872.138	22915
872.267	22801
872.397	22877
872.526	22786
872.656	22862
872.785	22790
872.915	22968
873.044	23189
873.173	23010
873.303	23117
873.432	23003
873.561	23033
873.69	22892
873.819	23006
873.948	22987
874.077	22938
874.206	22866
874.335	22991
874.464	22995
874.593	23083
874.722	23083
874.851	23185
874.979	23227
875.108	23216
875.237	23151
875.365	23048
875.494	23136
875.623	23231
875.751	23239
875.88	23208
876.008	23330
876.136	23250
876.265	23486
876.393	23767
876.521	23493
876.65	23592
876.778	23566
876.906	23604
877.034	23478
877.162	23554
877.29	23356
877.418	23589
877.546	23516
877.674	23452
877.802	23581
877.93	23490
878.058	23448
878.185	23452
878.313	23444
878.441	23474
878.568	23311
878.696	23524
878.824	23627
878.951	23634
879.079	23722
879.206	23805
879.333	23608
879.461	23531
879.588	23608
879.715	23714
879.842	23684
879.97	23611
880.097	23288
880.224	23208
880.351	23372
880.478	23284
880.605	23410
880.732	23410
880.859	23497
880.986	23429
881.112	23250
881.239	23090
881.366	23086
881.493	23044
881.619	22885
881.746	22790
881.872	23006
881.999	22805
882.125	22687
882.252	22736
882.378	22839
882.505	22961
882.631	22710
882.757	22618
882.883	22748
883.01	22550
883.136	22394
883.262	22481
883.388	22409
883.514	22531
883.64	22725
883.766	22497
883.892	22390
884.018	22447
884.143	22577
884.269	22622
884.395	22314
884.52	22223
884.646	22310
884.772	22192
884.897	22112
885.023	22181
885.148	22246
885.274	22421
885.399	22272
885.524	22143
885.65	22139
885.775	22226
885.9	22211
886.025	22207
886.15	22310
886.275	22192
886.4	22173
886.525	22124
886.65	22166
886.775	22116
886.9	22215
887.025	22432
887.149	22128
887.274	22032
887.399	21972
887.523	21835
887.648	21873
887.773	21888
887.897	21991
888.021	21873
888.146	21926
888.27	21960
888.395	22006
888.519	21991
888.643	21907
888.767	22002
888.891	21857
889.015	21701
889.139	21854
889.263	21831
889.387	21907
889.511	21975
889.635	21842
889.759	21587
889.883	21648
890.006	21675
890.13	21823
890.254	21644
890.377	21724
890.501	21485
890.624	21424
890.748	21530
890.871	21252
890.995	21252
891.118	21268
891.241	21336
891.364	21332
891.488	21450
891.611	21241
891.734	21291
891.857	21310
891.98	21287
892.103	21294
892.226	21222
892.349	21192
892.471	21108
892.594	21192
892.717	21203
892.839	21230
892.962	21207
893.085	21214
893.207	21264
893.33	21058
893.452	21032
893.575	21207
893.697	21074
893.819	21287
893.941	21439
894.064	21325
894.186	21085
894.308	21112
894.43	21192
894.552	21279
894.674	21249
894.796	21062
894.918	21013
895.04	21093
895.161	21249
895.283	21085
895.405	21074
895.526	21127
895.648	21123
895.769	21150
895.891	21150
896.012	21127
896.134	21119
896.255	21184
896.376	21028
896.498	21165
896.619	21195
896.74	21157
896.861	21195
896.982	21428
897.103	21618
897.224	21443
897.345	21447
897.466	21378
897.587	21431
897.708	21469
897.828	21382
897.949	21256
898.07	21211
898.19	21256
898.311	21332
898.431	21435
898.552	21226
898.672	21507
898.792	21294
898.913	21317
899.033	21192
899.153	21173
899.273	20990
899.393	21093
899.513	21077
899.633	20986
899.753	21074
899.873	20975
899.993	21055
900.113	20998
900.232	21043
900.352	20925
900.472	20933
900.591	20773
900.711	20834
900.83	20754
900.95	20937
901.069	21074
901.189	20743
901.308	20594
901.427	20313
901.546	20328
901.665	20499
901.784	20492
901.904	20324
902.023	20119
902.141	19955
902.26	19932
902.379	19997
902.498	19849
902.617	19647
902.735	19921
902.854	19761
902.973	19818
903.091	19658
903.21	19544
903.328	19518
903.446	19430
903.565	19312
903.683	19396
903.801	19209
903.919	19335
904.038	19263
904.156	18977
904.274	19316
904.392	19095
904.51	19095
904.627	19072
904.745	19217
904.863	19129
904.981	18844
905.098	18700
905.216	18779
905.334	18779
905.451	18734
905.569	18608
905.686	18692
905.803	18658
905.921	18513
906.038	18700
906.155	18566
906.272	18437
906.389	18399
906.506	18190
906.623	18289
906.74	18251
906.857	18190
906.974	18239
907.091	18224
907.208	18388
907.324	18258
907.441	18224
907.557	17999
907.674	17988
907.79	17942
907.907	17828
908.023	18034
908.139	18011
908.256	17980
908.372	17893
908.488	17874
908.604	17646
908.72	17619
908.836	17627
908.952	17611
909.068	17703
909.184	17714
909.3	17691
909.415	17714
909.531	17630
909.647	17292
909.762	17341
909.878	17326
909.993	17345
910.108	17391
910.224	17231
910.339	17349
910.454	17223
910.57	17174
910.685	16995
910.8	17364
910.915	17360
911.03	17128
911.145	16942
911.259	16934
911.374	16957
911.489	16847
911.604	16850
911.718	16698
911.833	16706
911.947	16531
912.062	16523
912.176	16618
912.291	16618
912.405	16679
912.519	16797
912.633	16812
912.748	16599
912.862	16584
912.976	16440
913.09	16363
913.204	16417
913.318	16459
913.431	16596
913.545	16504
913.659	16565
913.772	16409
913.886	16223
914	16276
914.113	16299
914.226	16265
914.34	16272
914.453	16147
914.566	16242
914.68	16131
914.793	16010
914.906	15983
915.019	15854
915.132	15766
915.245	15819
915.358	15857
915.47	15899
915.583	15873
915.696	15812
915.809	15831
915.921	15884
916.034	15720
916.146	15644
916.259	15682
916.371	15804
916.483	15675
916.595	15576
916.708	15698
916.82	15656
916.932	15561
917.044	15614
917.156	15507
917.268	15462
917.38	15507
917.491	15397
917.603	15420
917.715	15538
917.826	15622
917.938	15397
918.049	15283
918.161	15363
918.272	15603
918.384	15545
918.495	15325
918.606	15260
918.717	15135
918.828	15165
918.939	15199
919.05	15081
919.161	15146
919.272	14895
919.383	14975
919.494	15283
919.604	15275
919.715	15211
919.826	15154
919.936	15085
920.047	15169
920.157	15142
920.267	15329
920.378	15176
920.488	15119
920.598	15256
920.708	15443
920.818	15313
920.928	15256
921.038	15450
921.148	15386
921.258	15051
921.368	15013
921.477	14853
921.587	14872
921.697	14621
921.806	14891
921.916	14678
922.025	14533
922.134	14492
922.244	14434
922.353	14530
922.462	14358
922.571	14301
922.68	14130
922.789	14065
922.898	14149
923.007	14008
923.116	13982
923.224	14016
923.333	14035
923.442	14008
923.55	13997
923.659	13978
923.767	13944
923.876	13928
923.984	13925
924.092	13719
924.201	13833
924.309	13811
924.417	13860
924.525	13628
924.633	13746
924.741	14522
924.849	13552
924.956	13674
925.064	13441
925.172	13453
925.279	13381
925.387	13449
925.494	13453
925.602	13670
925.709	13449
925.816	13316
925.924	13403
926.031	13495
926.138	13460
926.245	13476
926.352	13339
926.459	13430
926.566	13457
926.673	13369
926.779	13213
926.886	13209
926.993	13103
927.099	13023
927.206	12985
927.312	12958
927.419	13069
927.525	13031
927.631	13042
927.737	12840
927.843	12875
927.95	12700
928.056	12905
928.162	12833
928.267	12844
928.373	13308
928.479	12844
928.585	12654
928.69	12696
928.796	12859
928.901	12654
929.007	12601
929.112	12711
929.218	12525
929.323	12654
929.428	12513
929.533	12646
929.638	12536
929.743	12414
929.848	12509
929.953	12479
930.058	12391
930.163	12155
930.267	12167
930.372	12353
930.477	12072
930.581	12410
930.685	12266
930.79	12072
930.894	12148
930.998	12064
931.103	12133
931.207	11756
931.311	11756
931.415	11570
931.519	11402
931.623	11448
