Data from test_V78500241_3038.txt Node
Date: Fri Mar 25 16:02:50 CST 2022
User: usil
Spectrometer: V785-0024
Trigger mode: 0
Integration Time (sec): 4.000000E-1
Scans to average: 1
Nonlinearity correction enabled: false
Boxcar width: 0
Storing dark spectrum: false
XAxis mode: Wavelengths
Number of Pixels in Spectrum: 1024
>>>>>Begin Spectral Data<<<<<
801.071	28752
801.214	28888
801.356	28542
801.499	28527
801.641	28546
801.783	28398
801.926	28413
802.068	28516
802.211	28417
802.353	28394
802.496	28166
802.638	28135
802.78	28002
802.923	28059
803.065	28101
803.208	28048
803.35	28143
803.492	28314
803.635	28382
803.777	28299
803.919	28447
804.061	28679
804.204	28489
804.346	28306
804.488	28219
804.63	28318
804.773	28413
804.915	28318
805.057	28588
805.199	28470
805.341	28394
805.483	28542
805.626	28561
805.768	28546
805.91	28641
806.052	28516
806.194	28508
806.336	28672
806.478	28497
806.62	28744
806.762	28660
806.904	28862
807.046	29022
807.188	29048
807.33	29052
807.472	29037
807.614	28877
807.756	28934
807.898	28953
808.04	28873
808.182	28805
808.324	28809
808.465	28831
808.607	28999
808.749	29216
808.891	29246
809.033	29391
809.174	29296
809.316	29105
809.458	29159
809.6	29166
809.741	29429
809.883	29417
810.025	29528
810.166	29577
810.308	29421
810.45	29440
810.591	29448
810.733	29402
810.875	29265
811.016	29140
811.158	29269
811.299	29296
811.441	29566
811.582	29311
811.724	29364
811.865	29227
812.007	29258
812.148	29235
812.29	29231
812.431	29524
812.573	29566
812.714	29672
812.855	29737
812.997	29832
813.138	30095
813.279	29958
813.421	29969
813.562	29741
813.703	29657
813.845	29433
813.986	29208
814.127	29006
814.268	29014
814.41	28968
814.551	28881
814.692	29090
814.833	28949
814.974	28995
815.115	28953
815.256	28835
815.397	28778
815.539	28839
815.68	28835
815.821	28767
815.962	28908
816.103	28774
816.244	28668
816.385	28523
816.526	28615
816.666	28428
816.807	28223
816.948	28257
817.089	28428
817.23	28234
817.371	28306
817.512	28158
817.653	28318
817.793	28185
817.934	28234
818.075	28341
818.216	28329
818.356	28265
818.497	28154
818.638	28063
818.778	28166
818.919	28109
819.06	28086
819.2	28044
819.341	28306
819.481	28356
819.622	28481
819.762	28641
819.903	28656
820.043	28474
820.184	28485
820.324	28284
820.465	28421
820.605	28516
820.746	28344
820.886	28299
821.026	28481
821.167	28371
821.307	28348
821.447	28405
821.588	28226
821.728	28101
821.868	28002
822.008	27774
822.149	27736
822.289	27770
822.429	27397
822.569	27545
822.709	27519
822.849	27245
822.99	27416
823.13	27332
823.27	27249
823.41	27142
823.55	27017
823.69	27161
823.83	27176
823.97	26994
824.11	26979
824.25	27028
824.389	26876
824.529	27001
824.669	26975
824.809	26998
824.949	27036
825.089	27005
825.228	26910
825.368	26762
825.508	26826
825.648	26705
825.787	26800
825.927	26990
826.067	26914
826.206	26762
826.346	26773
826.485	26914
826.625	26811
826.765	27028
826.904	26914
827.044	26564
827.183	26579
827.323	26564
827.462	26644
827.601	26571
827.741	26575
827.88	26522
828.02	26556
828.159	26431
828.298	26514
828.437	26473
828.577	26545
828.716	26598
828.855	26507
828.994	26210
829.134	26305
829.273	26195
829.412	26149
829.551	26225
829.69	26282
829.829	26191
829.968	26248
830.107	26412
830.246	26240
830.385	26115
830.524	26248
830.663	26024
830.802	25982
830.941	25913
831.08	25811
831.219	25928
831.357	25909
831.496	26065
831.635	25696
831.774	25871
831.913	25849
832.051	25662
832.19	25624
832.329	25670
832.467	25453
832.606	25472
832.744	25403
832.883	25544
833.022	25457
833.16	25571
833.299	25453
833.437	25510
833.576	25635
833.714	25594
833.852	25689
833.991	25677
834.129	25681
834.267	25658
834.406	25506
834.544	25696
834.682	25476
834.821	25643
834.959	25670
835.097	25571
835.235	25491
835.373	25556
835.511	25655
835.65	25464
835.788	25407
835.926	25274
836.064	25259
836.202	25198
836.34	25438
836.478	25624
836.615	25373
836.753	25453
836.891	25544
837.029	25438
837.167	25228
837.305	25255
837.443	25217
837.58	25232
837.718	25282
837.856	25187
837.993	25053
838.131	25255
838.269	25156
838.406	25118
838.544	25110
838.681	24833
838.819	24715
838.956	24631
839.094	24703
839.231	24627
839.369	24821
839.506	25053
839.643	24973
839.781	24730
839.918	24688
840.055	24665
840.193	24639
840.33	24578
840.467	24555
840.604	24578
840.742	24814
840.879	24403
841.016	24559
841.153	24498
841.29	24703
841.427	24547
841.564	24692
841.701	24635
841.838	24563
841.975	24414
842.112	24684
842.249	24388
842.385	24414
842.522	24559
842.659	24357
842.796	24270
842.933	24220
843.069	24315
843.206	24243
843.343	24418
843.479	24270
843.616	24369
843.752	24057
843.889	24152
844.025	24216
844.162	24277
844.298	24247
844.435	24079
844.571	24171
844.708	24190
844.844	24350
844.98	24224
845.117	24144
845.253	24190
845.389	23965
845.525	24057
845.661	23988
845.798	23813
845.934	23843
846.07	23752
846.206	23863
846.342	23965
846.478	23809
846.614	23680
846.75	23433
846.886	23566
847.022	23551
847.158	23653
847.294	23455
847.429	23707
847.565	23611
847.701	23824
847.837	23235
847.972	23307
848.108	23398
848.244	23448
848.379	23254
848.515	23136
848.65	23090
848.786	23235
848.921	23391
849.057	23143
849.192	23189
849.328	23121
849.463	23185
849.598	23124
849.734	22930
849.869	23071
850.004	22904
850.14	22980
850.275	22995
850.41	22862
850.545	22953
850.68	22900
850.815	22820
850.95	22930
851.085	23102
851.22	22984
851.355	22911
851.49	22961
851.625	22892
851.76	22923
851.895	22919
852.03	22892
852.165	22904
852.299	22984
852.434	23037
852.569	22980
852.703	22900
852.838	23083
852.973	23041
853.107	22999
853.242	22900
853.376	22812
853.511	22634
853.645	22763
853.78	22919
853.914	22828
854.048	22713
854.183	22615
854.317	22812
854.451	23003
854.585	22664
854.72	22809
854.854	22889
854.988	22733
855.122	22828
855.256	22592
855.39	22774
855.524	22854
855.658	22786
855.792	22835
855.926	22801
856.06	22786
856.194	22854
856.327	22698
856.461	22691
856.595	22793
856.729	22793
856.862	22816
856.996	22641
857.13	22805
857.263	22748
857.397	22854
857.53	22725
857.664	22816
857.797	22900
857.931	22854
858.064	22869
858.197	22847
858.331	22793
858.464	22797
858.597	22565
858.731	22824
858.864	22816
858.997	22805
859.13	22736
859.263	22934
859.396	22809
859.529	22763
859.662	22812
859.795	22713
859.928	22767
860.061	22976
860.194	22938
860.327	22900
860.46	22778
860.592	22923
860.725	22881
860.858	22915
860.99	22786
861.123	22679
861.256	22694
861.388	22713
861.521	23482
861.653	22603
861.786	22634
861.918	22698
862.05	22611
862.183	22656
862.315	22664
862.447	22767
862.58	22763
862.712	22516
862.844	22519
862.976	22554
863.108	22569
863.24	22850
863.372	22481
863.504	22402
863.636	22493
863.768	22516
863.9	22561
864.032	22386
864.164	22443
864.296	22421
864.428	22634
864.559	22504
864.691	22557
864.823	22440
864.954	22386
865.086	22417
865.217	22363
865.349	22272
865.48	22405
865.612	22424
865.743	22394
865.875	22379
866.006	22295
866.137	22360
866.269	22284
866.4	22382
866.531	22356
866.662	22242
866.793	22249
866.924	22246
867.055	22318
867.186	22234
867.317	22284
867.448	22276
867.579	22295
867.71	22116
867.841	22109
867.972	22268
868.103	22234
868.233	22265
868.364	22291
868.495	22360
868.625	22405
868.756	22554
868.886	22462
869.017	22542
869.147	22694
869.278	22573
869.408	22592
869.539	22493
869.669	22554
869.799	22561
869.929	22721
870.06	22721
870.19	22801
870.32	22816
870.45	22717
870.58	22976
870.71	23117
870.84	23048
870.97	23010
871.1	22999
871.23	23056
871.36	23117
871.489	23052
871.619	23037
871.749	23098
871.879	23170
872.008	23345
872.138	23102
872.267	23181
872.397	23041
872.526	22873
872.656	22908
872.785	23033
872.915	23185
873.044	23269
873.173	23094
873.303	23277
873.432	23113
873.561	23197
873.69	23193
873.819	23242
873.948	23208
874.077	23174
874.206	23052
874.335	23033
874.464	23204
874.593	23425
874.722	23277
874.851	23376
874.979	23417
875.108	23406
875.237	23387
875.365	23311
875.494	23280
875.623	23467
875.751	23254
875.88	23318
876.008	23596
876.136	23516
876.265	23722
876.393	23817
876.521	23764
876.65	23649
876.778	23729
876.906	23695
877.034	23703
877.162	23722
877.29	23558
877.418	23733
877.546	23779
877.674	23707
877.802	23657
877.93	23752
878.058	23729
878.185	23691
878.313	23634
878.441	23775
878.568	23573
878.696	23566
878.824	23707
878.951	23722
879.079	23748
879.206	23901
879.333	23832
879.461	23710
879.588	23703
879.715	23779
879.842	23882
879.97	23737
880.097	23478
880.224	23543
880.351	23551
880.478	23638
880.605	23414
880.732	23440
880.859	23767
880.986	23570
881.112	23672
881.239	23425
881.366	23288
881.493	23235
881.619	23124
881.746	23086
881.872	23132
881.999	22927
882.125	23064
882.252	22980
882.378	22984
882.505	23060
882.631	22965
882.757	22713
882.883	22767
883.01	22687
883.136	22725
883.262	22577
883.388	22546
883.514	22763
883.64	22721
883.766	22660
883.892	22428
884.018	22508
884.143	22713
884.269	22843
884.395	22470
884.52	22398
884.646	22470
884.772	22287
884.897	22246
885.023	22337
885.148	22478
885.274	22455
885.399	22352
885.524	22470
885.65	22352
885.775	22382
885.9	22253
886.025	22413
886.15	22462
886.275	22322
886.4	22344
886.525	22459
886.65	22344
886.775	22318
886.9	22481
887.025	22485
887.149	22268
887.274	22082
887.399	22211
887.523	22257
887.648	22059
887.773	22059
887.897	22158
888.021	22112
888.146	22101
888.27	22238
888.395	22181
888.519	22078
888.643	22124
888.767	22112
888.891	22120
889.015	21937
889.139	22029
889.263	21888
889.387	22078
889.511	22207
889.635	21968
889.759	21880
889.883	21819
890.006	21911
890.13	22029
890.254	21827
890.377	21888
890.501	21793
890.624	21732
890.748	21694
890.871	21534
890.995	21447
891.118	21466
891.241	21530
891.364	21458
891.488	21591
891.611	21420
891.734	21580
891.857	21515
891.98	21481
892.103	21405
892.226	21389
892.349	21439
892.471	21222
892.594	21412
892.717	21405
892.839	21321
892.962	21351
893.085	21431
893.207	21386
893.33	21157
893.452	21233
893.575	21538
893.697	21325
893.819	21428
893.941	21534
894.064	21564
894.186	21260
894.308	21230
894.43	21378
894.552	21534
894.674	21332
894.796	21180
894.918	21389
895.04	21344
895.161	21382
895.283	21408
895.405	21226
895.526	21268
895.648	21135
895.769	21275
895.891	21355
896.012	21469
896.134	21279
896.255	21336
896.376	21260
896.498	21283
896.619	21275
896.74	21336
896.861	21382
896.982	21610
897.103	21759
897.224	21488
897.345	21542
897.466	21336
897.587	21538
897.708	21660
897.828	21629
897.949	21481
898.07	21378
898.19	21359
898.311	21542
898.431	21443
898.552	21424
898.672	21412
898.792	21595
898.913	21397
899.033	21439
899.153	21313
899.273	21165
899.393	21249
899.513	21226
899.633	21279
899.753	21340
899.873	21146
899.993	21214
900.113	21104
900.232	21306
900.352	21104
900.472	21119
900.591	21028
900.711	20994
900.83	21062
900.95	21066
901.069	21005
901.189	20956
901.308	20613
901.427	20552
901.546	20735
901.665	20621
901.784	20560
901.904	20324
902.023	20336
902.141	20202
902.26	20096
902.379	20180
902.498	19978
902.617	20122
902.735	19951
902.854	20122
902.973	19921
903.091	19742
903.21	19715
903.328	19708
903.446	19594
903.565	19548
903.683	19529
903.801	19506
903.919	19540
904.038	19476
904.156	19274
904.274	19350
904.392	19285
904.51	19255
904.627	19327
904.745	19232
904.863	19221
904.981	19194
905.098	19015
905.216	18916
905.334	18966
905.451	18970
905.569	18985
905.686	19000
905.803	18947
905.921	18673
906.038	18951
906.155	18768
906.272	18654
906.389	18749
906.506	18365
906.623	18418
906.74	18506
906.857	18380
906.974	18369
907.091	18532
907.208	18566
907.324	18471
907.441	18357
907.557	18262
907.674	18201
907.79	18098
907.907	18121
908.023	18178
908.139	18076
908.256	18106
908.372	18026
908.488	17946
908.604	17901
908.72	17794
908.836	17859
908.952	17969
909.068	17908
909.184	17931
909.3	17946
909.415	17965
909.531	17980
909.647	17566
909.762	17524
909.878	17501
909.993	17547
910.108	17562
910.224	17566
910.339	17566
910.454	17459
910.57	17395
910.685	17360
910.8	17600
910.915	17562
911.03	17318
911.145	17258
911.259	17166
911.374	17159
911.489	17052
911.604	17045
911.718	16866
911.833	16854
911.947	16755
912.062	16736
912.176	16991
912.291	16862
912.405	16911
912.519	17064
912.633	17098
912.748	16999
912.862	16782
912.976	16706
913.09	16634
913.204	16561
913.318	16702
913.431	16801
913.545	16736
913.659	16759
913.772	16569
913.886	16611
914	16462
914.113	16599
914.226	16634
914.34	16500
914.453	16344
914.566	16508
914.68	16440
914.793	16409
914.906	16162
915.019	16188
915.132	16086
915.245	16071
915.358	16109
915.47	16093
915.583	16097
915.696	16055
915.809	16188
915.921	16124
916.034	16010
916.146	15956
916.259	15945
916.371	16150
916.483	15930
916.595	15838
916.708	15937
916.82	15930
916.932	15800
917.044	15857
917.156	15804
917.268	15622
917.38	15812
917.491	15526
917.603	15679
917.715	15732
917.826	15739
917.938	15633
918.049	15504
918.161	15633
918.272	15717
918.384	15755
918.495	15576
918.606	15401
918.717	15321
918.828	15462
918.939	15370
919.05	15317
919.161	15416
919.272	15211
919.383	15230
919.494	15355
919.604	15610
919.715	15450
919.826	15264
919.936	15363
920.047	15473
920.157	15355
920.267	15587
920.378	15416
920.488	15412
920.598	15511
920.708	15576
920.818	15412
920.928	15504
921.038	15587
921.148	15507
921.258	15272
921.368	15195
921.477	15203
921.587	15077
921.697	14891
921.806	15104
921.916	14887
922.025	14769
922.134	14712
922.244	14674
922.353	14746
922.462	14617
922.571	14499
922.68	14393
922.789	14339
922.898	14286
923.007	14294
923.116	14408
923.224	14298
923.333	14305
923.442	14218
923.55	14084
923.659	14233
923.767	14191
923.876	14096
923.984	14172
924.092	14168
924.201	14005
924.309	14168
924.417	14046
924.525	13993
924.633	13955
924.741	14765
924.849	13750
924.956	13879
925.064	13830
925.172	13715
925.279	13731
925.387	13704
925.494	13715
925.602	13791
925.709	13788
925.816	13609
925.924	13605
926.031	13704
926.138	13643
926.245	13639
926.352	13502
926.459	13700
926.566	13651
926.673	13620
926.779	13396
926.886	13343
926.993	13304
927.099	13232
927.206	13187
927.312	13183
927.419	13324
927.525	13320
927.631	13259
927.737	13160
927.843	13065
927.95	12985
928.056	13069
928.162	13042
928.267	13076
928.373	13822
928.479	13156
928.585	12882
928.69	12954
928.796	13050
928.901	12863
929.007	12810
929.112	12905
929.218	12791
929.323	12711
929.428	12688
929.533	12928
929.638	12696
929.743	12787
929.848	12768
929.953	12646
930.058	12662
930.163	12391
930.267	12407
930.372	12517
930.477	12388
930.581	12612
930.685	12532
930.79	12395
930.894	12350
930.998	12213
931.103	12380
931.207	12076
931.311	11885
931.415	11843
931.519	11684
931.623	11657
