Data from test_V78500241_135.txt Node
Date: Fri Mar 25 15:42:44 CST 2022
User: usil
Spectrometer: V785-0024
Trigger mode: 0
Integration Time (sec): 4.000000E-1
Scans to average: 1
Nonlinearity correction enabled: false
Boxcar width: 0
Storing dark spectrum: false
XAxis mode: Wavelengths
Number of Pixels in Spectrum: 1024
>>>>>Begin Spectral Data<<<<<
801.071	29798
801.214	29543
801.356	29554
801.499	29414
801.641	29318
801.783	29425
801.926	29452
802.068	29307
802.211	29208
802.353	29181
802.496	28892
802.638	28968
802.78	28869
802.923	28809
803.065	28934
803.208	28968
803.35	28843
803.492	28991
803.635	28949
803.777	28755
803.919	29060
804.061	29303
804.204	29086
804.346	29060
804.488	28850
804.63	29025
804.773	28710
804.915	28831
805.057	29105
805.199	29064
805.341	29048
805.483	29132
805.626	29052
805.768	29079
805.91	29090
806.052	29136
806.194	28927
806.336	29197
806.478	29098
806.62	29067
806.762	29246
806.904	29334
807.046	29452
807.188	29535
807.33	29501
807.472	29474
807.614	29364
807.756	29436
807.898	29307
808.04	29250
808.182	29102
808.324	29379
808.465	29250
808.607	29535
808.749	29657
808.891	29722
809.033	29741
809.174	29619
809.316	29520
809.458	29611
809.6	29649
809.741	29729
809.883	29691
810.025	29893
810.166	29752
810.308	30045
810.45	29786
810.591	29832
810.733	29608
810.875	29577
811.016	29657
811.158	29634
811.299	29821
811.441	29821
811.582	29703
811.724	29672
811.865	29615
812.007	29516
812.148	29414
812.29	29505
812.431	29760
812.573	29828
812.714	30102
812.855	30098
812.997	30030
813.138	30380
813.279	30152
813.421	30045
813.562	30121
813.703	29824
813.845	29691
813.986	29551
814.127	29330
814.268	29197
814.41	29143
814.551	29121
814.692	29258
814.833	29174
814.974	29079
815.115	29124
815.256	29033
815.397	29006
815.539	29041
815.68	28927
815.821	29010
815.962	28961
816.103	28972
816.244	28786
816.385	28607
816.526	28466
816.666	28622
816.807	28352
816.948	28379
817.089	28443
817.23	28253
817.371	28261
817.512	28265
817.653	28261
817.793	28181
817.934	28398
818.075	28299
818.216	28314
818.356	28207
818.497	28181
818.638	27983
818.778	28048
818.919	27945
819.06	28051
819.2	28082
819.341	28188
819.481	28226
819.622	28295
819.762	28664
819.903	28375
820.043	28390
820.184	28246
820.324	28257
820.465	28409
820.605	28276
820.746	28314
820.886	28131
821.026	28261
821.167	28128
821.307	28284
821.447	28090
821.588	28158
821.728	27934
821.868	27960
822.008	27720
822.149	27595
822.289	27553
822.429	27370
822.569	27264
822.709	27291
822.849	27142
822.99	27051
823.13	27066
823.27	26895
823.41	26830
823.55	26819
823.69	26948
823.83	26883
823.97	26788
824.11	26621
824.25	26606
824.389	26682
824.529	26796
824.669	26720
824.809	26632
824.949	26739
825.089	26655
825.228	26625
825.368	26575
825.508	26522
825.648	26419
825.787	26492
825.927	26484
826.067	26408
826.206	26423
826.346	26526
826.485	26351
826.625	26396
826.765	26594
826.904	26404
827.044	26183
827.183	26298
827.323	26058
827.462	26081
827.601	25951
827.741	26111
827.88	26077
828.02	25940
828.159	26069
828.298	26039
828.437	26077
828.577	26084
828.716	26096
828.855	26046
828.994	25837
829.134	25807
829.273	25978
829.412	25655
829.551	25788
829.69	25635
829.829	25715
829.968	25849
830.107	25864
830.246	25700
830.385	25685
830.524	25651
830.663	25772
830.802	25441
830.941	25297
831.08	25415
831.219	25464
831.357	25426
831.496	25552
831.635	25251
831.774	25316
831.913	25206
832.051	25057
832.19	25038
832.329	25061
832.467	24962
832.606	24920
832.744	24932
832.883	24859
833.022	24878
833.16	24962
833.299	24939
833.437	24825
833.576	24992
833.714	24928
833.852	25069
833.991	24935
834.129	25061
834.267	25084
834.406	24913
834.544	24890
834.682	24897
834.821	24901
834.959	24947
835.097	24760
835.235	24852
835.373	25099
835.511	24882
835.65	24726
835.788	24719
835.926	24608
836.064	24563
836.202	24677
836.34	24829
836.478	24795
836.615	24669
836.753	24741
836.891	24719
837.029	24738
837.167	24525
837.305	24582
837.443	24635
837.58	24544
837.718	24555
837.856	24517
837.993	24380
838.131	24555
838.269	24513
838.406	24452
838.544	24372
838.681	24098
838.819	24015
838.956	23977
839.094	23958
839.231	23939
839.369	24121
839.506	24357
839.643	24114
839.781	23859
839.918	23809
840.055	23916
840.193	23912
840.33	23916
840.467	23794
840.604	23901
840.742	24136
840.879	23798
841.016	23703
841.153	23733
841.29	23817
841.427	23802
841.564	23863
841.701	23786
841.838	23745
841.975	23596
842.112	23760
842.249	23630
842.385	23455
842.522	23642
842.659	23630
842.796	23596
842.933	23535
843.069	23379
843.206	23345
843.343	23562
843.479	23543
843.616	23543
843.752	23140
843.889	23311
844.025	23406
844.162	23277
844.298	23220
844.435	23067
844.571	23033
844.708	23170
844.844	23376
844.98	23337
845.117	23372
845.253	23094
845.389	23041
845.525	23185
845.661	23079
845.798	22866
845.934	22965
846.07	22930
846.206	22877
846.342	23033
846.478	22938
846.614	22679
846.75	22603
846.886	22569
847.022	22691
847.158	22649
847.294	22626
847.429	22687
847.565	22603
847.701	22771
847.837	22375
847.972	22318
848.108	22500
848.244	22413
848.379	22207
848.515	22265
848.65	22086
848.786	22284
848.921	22329
849.057	22409
849.192	22295
849.328	22150
849.463	22150
849.598	22234
849.734	22070
849.869	22044
850.004	21903
850.14	22025
850.275	21907
850.41	21816
850.545	21789
850.68	21838
850.815	21899
850.95	21953
851.085	22040
851.22	21937
851.355	21949
851.49	21835
851.625	21869
851.76	21819
851.895	21873
852.03	21816
852.165	21895
852.299	21953
852.434	22025
852.569	21930
852.703	21907
852.838	21934
852.973	22040
853.107	21926
853.242	21781
853.376	21671
853.511	21591
853.645	21766
853.78	21804
853.914	21789
854.048	21557
854.183	21606
854.317	21762
854.451	22051
854.585	21580
854.72	21701
854.854	21781
854.988	21652
855.122	21580
855.256	21599
855.39	21732
855.524	21690
855.658	21797
855.792	21644
855.926	21652
856.06	21698
856.194	21663
856.327	21717
856.461	21496
856.595	21641
856.729	21686
856.862	21724
856.996	21667
857.13	21606
857.263	21823
857.397	21720
857.53	21648
857.664	21785
857.797	21720
857.931	21694
858.064	21618
858.197	21762
858.331	21572
858.464	21507
858.597	21515
858.731	21694
858.864	21523
858.997	21477
859.13	21485
859.263	21576
859.396	21694
859.529	21614
859.662	21739
859.795	21561
859.928	21561
860.061	21698
860.194	21675
860.327	21606
860.46	21599
860.592	21690
860.725	21751
860.858	21660
860.99	21504
861.123	21428
861.256	21667
861.388	21557
861.521	22215
861.653	21587
861.786	21454
861.918	21378
862.05	21606
862.183	21595
862.315	21618
862.447	21671
862.58	21709
862.712	21355
862.844	21310
862.976	21443
863.108	21458
863.24	21789
863.372	21252
863.504	21195
863.636	21268
863.768	21405
863.9	21378
864.032	21199
864.164	21287
864.296	21241
864.428	21386
864.559	21233
864.691	21298
864.823	21355
864.954	21317
865.086	21199
865.217	21146
865.349	21024
865.48	21112
865.612	21173
865.743	21317
865.875	21336
866.006	21104
866.137	21173
866.269	21184
866.4	21245
866.531	21150
866.662	21154
866.793	21146
866.924	21127
867.055	21096
867.186	21081
867.317	21070
867.448	21005
867.579	21146
867.71	21009
867.841	21085
867.972	21089
868.103	21047
868.233	21127
868.364	21123
868.495	21192
868.625	21306
868.756	21386
868.886	21218
869.017	21405
869.147	21450
869.278	21435
869.408	21321
869.539	21348
869.669	21431
869.799	21370
869.929	21504
870.06	21424
870.19	21652
870.32	21557
870.45	21648
870.58	21656
870.71	21816
870.84	21854
870.97	21762
871.1	21694
871.23	21922
871.36	21991
871.489	21804
871.619	21797
871.749	21994
871.879	21994
872.008	22010
872.138	21960
872.267	21789
872.397	21869
872.526	21682
872.656	21766
872.785	21759
872.915	21953
873.044	21979
873.173	21937
873.303	22051
873.432	21831
873.561	22120
873.69	22067
873.819	21911
873.948	22128
874.077	21983
874.206	21861
874.335	21941
874.464	22143
874.593	22120
874.722	22192
874.851	22303
874.979	22242
875.108	22272
875.237	22124
875.365	22082
875.494	22105
875.623	22303
875.751	22109
875.88	22147
876.008	22234
876.136	22333
876.265	22653
876.393	22748
876.521	22596
876.65	22630
876.778	22550
876.906	22535
877.034	22516
877.162	22592
877.29	22455
877.418	22451
877.546	22485
877.674	22573
877.802	22588
877.93	22607
878.058	22459
878.185	22371
878.313	22470
878.441	22535
878.568	22318
878.696	22462
878.824	22538
878.951	22713
879.079	22668
879.206	22816
879.333	22729
879.461	22599
879.588	22588
879.715	22694
879.842	22839
879.97	22531
880.097	22318
880.224	22276
880.351	22303
880.478	22428
880.605	22295
880.732	22276
880.859	22531
880.986	22344
881.112	22386
881.239	22181
881.366	22070
881.493	21998
881.619	21911
881.746	22017
881.872	21876
881.999	21857
882.125	21873
882.252	21945
882.378	21865
882.505	21987
882.631	21804
882.757	21728
882.883	21880
883.01	21705
883.136	21682
883.262	21412
883.388	21504
883.514	21739
883.64	21701
883.766	21507
883.892	21359
884.018	21485
884.143	21549
884.269	21637
884.395	21378
884.52	21256
884.646	21321
884.772	21260
884.897	21252
885.023	21306
885.148	21374
885.274	21363
885.399	21332
885.524	21222
885.65	21321
885.775	21298
885.9	21268
886.025	21443
886.15	21401
886.275	21173
886.4	21226
886.525	21218
886.65	21188
886.775	21104
886.9	21348
887.025	21340
887.149	21321
887.274	21108
887.399	21108
887.523	20948
887.648	20887
887.773	20914
887.897	21093
888.021	21062
888.146	20857
888.27	21089
888.395	21138
888.519	21135
888.643	21108
888.767	20960
888.891	20853
889.015	20788
889.139	20861
889.263	20796
889.387	20971
889.511	20998
889.635	20971
889.759	20785
889.883	20689
890.006	20739
890.13	20804
890.254	20705
890.377	20640
890.501	20568
890.624	20499
890.748	20659
890.871	20518
890.995	20355
891.118	20313
891.241	20457
891.364	20366
891.488	20541
891.611	20355
891.734	20343
891.857	20408
891.98	20446
892.103	20457
892.226	20415
892.349	20309
892.471	20157
892.594	20206
892.717	20271
892.839	20240
892.962	20377
893.085	20415
893.207	20290
893.33	20088
893.452	20195
893.575	20313
893.697	20142
893.819	20404
893.941	20442
894.064	20355
894.186	20240
894.308	20119
894.43	20282
894.552	20419
894.674	20309
894.796	20115
894.918	20248
895.04	20103
895.161	20286
895.283	20320
895.405	20180
895.526	20176
895.648	20134
895.769	20271
895.891	20229
896.012	20309
896.134	20434
896.255	20336
896.376	20233
896.498	20347
896.619	20301
896.74	20298
896.861	20374
896.982	20800
897.103	20785
897.224	20701
897.345	20495
897.466	20377
897.587	20495
897.708	20522
897.828	20484
897.949	20469
898.07	20362
898.19	20389
898.311	20503
898.431	20450
898.552	20454
898.672	20556
898.792	20419
898.913	20454
899.033	20514
899.153	20153
899.273	20145
899.393	20202
899.513	20172
899.633	20210
899.753	20157
899.873	20103
899.993	20225
900.113	20187
900.232	20153
900.352	20077
900.472	20084
900.591	20081
900.711	19868
900.83	19951
900.95	19967
901.069	20130
901.189	19799
901.308	19632
901.427	19518
901.546	19537
901.665	19582
901.784	19635
901.904	19335
902.023	19312
902.141	19000
902.26	19084
902.379	19069
902.498	19000
902.617	18947
902.735	18996
902.854	18943
902.973	18875
903.091	18665
903.21	18593
903.328	18585
903.446	18532
903.565	18513
903.683	18566
903.801	18270
903.919	18342
904.038	18445
904.156	18266
904.274	18277
904.392	18239
904.51	18201
904.627	18251
904.745	18209
904.863	18292
904.981	17999
905.098	17866
905.216	17805
905.334	17965
905.451	17958
905.569	17859
905.686	17885
905.803	17912
905.921	17794
906.038	17764
906.155	17752
906.272	17589
906.389	17581
906.506	17482
906.623	17505
906.74	17364
906.857	17330
906.974	17414
907.091	17539
907.208	17497
907.324	17417
907.441	17311
907.557	17128
907.674	17185
907.79	17010
907.907	17140
908.023	17250
908.139	16995
908.256	16976
908.372	16938
908.488	16881
908.604	16858
908.72	16752
908.836	16847
908.952	16816
909.068	16869
909.184	16930
909.3	16752
909.415	16752
909.531	16767
909.647	16561
909.762	16443
909.878	16493
909.993	16432
910.108	16500
910.224	16459
910.339	16390
910.454	16424
910.57	16268
910.685	16207
910.8	16504
910.915	16417
911.03	16249
911.145	15994
911.259	16017
911.374	16063
911.489	15972
911.604	15922
911.718	15755
911.833	15827
911.947	15705
912.062	15599
912.176	15873
912.291	15854
912.405	15854
912.519	15934
912.633	16040
912.748	15915
912.862	15739
912.976	15686
913.09	15439
913.204	15606
913.318	15534
913.431	15629
913.545	15641
913.659	15717
913.772	15523
913.886	15412
914	15348
914.113	15431
914.226	15473
914.34	15538
914.453	15393
914.566	15420
914.68	15294
914.793	15294
914.906	15154
915.019	15070
915.132	14906
915.245	14986
915.358	15005
915.47	15108
915.583	15039
915.696	15051
915.809	15233
915.921	15127
916.034	14956
916.146	14941
916.259	15036
916.371	14921
916.483	15001
916.595	14804
916.708	14762
916.82	14876
916.932	14864
917.044	14815
917.156	14777
917.268	14571
917.38	14629
917.491	14625
917.603	14670
917.715	14727
917.826	14754
917.938	14648
918.049	14503
918.161	14629
918.272	14792
918.384	14792
918.495	14602
918.606	14427
918.717	14434
918.828	14419
918.939	14408
919.05	14305
919.161	14328
919.272	14237
919.383	14294
919.494	14454
919.604	14537
919.715	14389
919.826	14256
919.936	14267
920.047	14438
920.157	14286
920.267	14606
920.378	14343
920.488	14237
920.598	14450
920.708	14629
920.818	14434
920.928	14412
921.038	14617
921.148	14560
921.258	14275
921.368	14153
921.477	14168
921.587	14001
921.697	13974
921.806	13986
921.916	13818
922.025	13772
922.134	13666
922.244	13700
922.353	13742
922.462	13655
922.571	13502
922.68	13441
922.789	13476
922.898	13339
923.007	13221
923.116	13301
923.224	13335
923.333	13251
923.442	13190
923.55	13198
923.659	13202
923.767	13160
923.876	13072
923.984	13259
924.092	13015
924.201	13061
924.309	13126
924.417	13050
924.525	12970
924.633	13004
924.741	13894
924.849	12840
924.956	12939
925.064	12798
925.172	12688
925.279	12719
925.387	12692
925.494	12722
925.602	12817
925.709	12863
925.816	12620
925.924	12738
926.031	12814
926.138	12741
926.245	12726
926.352	12578
926.459	12707
926.566	12806
926.673	12673
926.779	12551
926.886	12475
926.993	12407
927.099	12289
927.206	12289
927.312	12311
927.419	12327
927.525	12353
927.631	12315
927.737	12289
927.843	12194
927.95	12026
928.056	12228
928.162	12136
928.267	12205
928.373	12882
928.479	12167
928.585	11946
928.69	12125
928.796	12152
928.901	12019
929.007	11836
929.112	12019
929.218	11988
929.323	11939
929.428	11832
929.533	12038
929.638	11851
929.743	11843
929.848	11855
929.953	11794
930.058	11684
930.163	11493
930.267	11524
930.372	11638
930.477	11547
930.581	11741
930.685	11501
930.79	11425
930.894	11414
930.998	11417
931.103	11543
931.207	11239
931.311	11136
931.415	11010
931.519	10812
931.623	10759
