Data from test_V78500241_781.txt Node
Date: Fri Mar 25 15:47:12 CST 2022
User: usil
Spectrometer: V785-0024
Trigger mode: 0
Integration Time (sec): 4.000000E-1
Scans to average: 1
Nonlinearity correction enabled: false
Boxcar width: 0
Storing dark spectrum: false
XAxis mode: Wavelengths
Number of Pixels in Spectrum: 1024
>>>>>Begin Spectral Data<<<<<
801.071	27720
801.214	27469
801.356	27241
801.499	27264
801.641	27226
801.783	27161
801.926	27157
802.068	27005
802.211	26982
802.353	26940
802.496	26773
802.638	26758
802.78	26777
802.923	26583
803.065	26693
803.208	26807
803.35	26754
803.492	26758
803.635	26773
803.777	26697
803.919	26792
804.061	27260
804.204	27074
804.346	26765
804.488	26682
804.63	26868
804.773	26815
804.915	26948
805.057	27062
805.199	26979
805.341	26971
805.483	27009
805.626	27032
805.768	26743
805.91	27062
806.052	27043
806.194	27089
806.336	27195
806.478	27074
806.62	27024
806.762	27165
806.904	27325
807.046	27682
807.188	27348
807.33	27427
807.472	27542
807.614	27351
807.756	27389
807.898	27203
808.04	27249
808.182	27355
808.324	27332
808.465	27382
808.607	27622
808.749	27603
808.891	27663
809.033	27918
809.174	27823
809.316	27652
809.458	27652
809.6	27732
809.741	27907
809.883	27873
810.025	28017
810.166	28036
810.308	27873
810.45	27983
810.591	27819
810.733	27660
810.875	27564
811.016	27523
811.158	27633
811.299	27755
811.441	27895
811.582	27766
811.724	27705
811.865	27443
812.007	27656
812.148	27675
812.29	27743
812.431	27762
812.573	28059
812.714	28082
812.855	28120
812.997	28265
813.138	28341
813.279	28276
813.421	28234
813.562	28082
813.703	27983
813.845	27956
813.986	27694
814.127	27431
814.268	27416
814.41	27397
814.551	27397
814.692	27492
814.833	27355
814.974	27298
815.115	27401
815.256	27165
815.397	27214
815.539	27298
815.68	27039
815.821	27135
815.962	27252
816.103	27131
816.244	27077
816.385	26967
816.526	26864
816.666	26667
816.807	26598
816.948	26849
817.089	26625
817.23	26594
817.371	26598
817.512	26640
817.653	26708
817.793	26503
817.934	26819
818.075	26632
818.216	26663
818.356	26549
818.497	26446
818.638	26332
818.778	26446
818.919	26461
819.06	26408
819.2	26469
819.341	26484
819.481	26442
819.622	26804
819.762	26956
819.903	26902
820.043	26727
820.184	26621
820.324	26648
820.465	26861
820.605	26792
820.746	26777
820.886	26758
821.026	26625
821.167	26625
821.307	26659
821.447	26594
821.588	26495
821.728	26415
821.868	26210
822.008	26096
822.149	26073
822.289	26031
822.429	25902
822.569	25837
822.709	25791
822.849	25518
822.99	25662
823.13	25521
823.27	25559
823.41	25464
823.55	25266
823.69	25350
823.83	25278
823.97	25312
824.11	25156
824.25	25270
824.389	25228
824.529	25339
824.669	25259
824.809	25289
824.949	25304
825.089	25312
825.228	25346
825.368	25152
825.508	25099
825.648	25050
825.787	25129
825.927	25198
826.067	25137
826.206	25038
826.346	25183
826.485	25164
826.625	25065
826.765	25240
826.904	25148
827.044	24776
827.183	24954
827.323	24966
827.462	24935
827.601	24859
827.741	24844
827.88	24924
828.02	24639
828.159	24829
828.298	24871
828.437	24806
828.577	24833
828.716	24791
828.855	24642
828.994	24620
829.134	24563
829.273	24479
829.412	24464
829.551	24334
829.69	24475
829.829	24734
829.968	24486
830.107	24582
830.246	24452
830.385	24372
830.524	24433
830.663	24350
830.802	24296
830.941	24038
831.08	24068
831.219	24171
831.357	24144
831.496	24319
831.635	24098
831.774	24095
831.913	24072
832.051	23790
832.19	23794
832.329	23931
832.467	23783
832.606	23695
832.744	23771
832.883	23824
833.022	23813
833.16	23893
833.299	23885
833.437	23851
833.576	23870
833.714	23843
833.852	23950
833.991	23931
834.129	23942
834.267	23836
834.406	23942
834.544	23726
834.682	23832
834.821	23836
834.959	24011
835.097	23756
835.235	23836
835.373	23790
835.511	23828
835.65	23737
835.788	23786
835.926	23551
836.064	23535
836.202	23558
836.34	23745
836.478	23665
836.615	23627
836.753	23741
836.891	23737
837.029	23798
837.167	23733
837.305	23531
837.443	23562
837.58	23444
837.718	23562
837.856	23512
837.993	23505
838.131	23619
838.269	23478
838.406	23364
838.544	23436
838.681	23102
838.819	23147
838.956	22972
839.094	22953
839.231	23010
839.369	23124
839.506	23372
839.643	23235
839.781	22942
839.918	22908
840.055	22987
840.193	23003
840.33	22831
840.467	23105
840.604	22896
840.742	23136
840.879	22786
841.016	22919
841.153	22843
841.29	22991
841.427	22919
841.564	22919
841.701	22854
841.838	22755
841.975	22748
842.112	22915
842.249	22797
842.385	22668
842.522	22919
842.659	22702
842.796	22694
842.933	22611
843.069	22569
843.206	22637
843.343	22660
843.479	22573
843.616	22729
843.752	22493
843.889	22474
844.025	22554
844.162	22375
844.298	22565
844.435	22440
844.571	22341
844.708	22561
844.844	22599
844.98	22436
845.117	22535
845.253	22375
845.389	22303
845.525	22344
845.661	22280
845.798	22246
845.934	22196
846.07	22173
846.206	22272
846.342	22177
846.478	22200
846.614	22032
846.75	21915
846.886	21918
847.022	22010
847.158	21850
847.294	21934
847.429	21956
847.565	21804
847.701	22234
847.837	21663
847.972	21538
848.108	21705
848.244	21698
848.379	21553
848.515	21519
848.65	21412
848.786	21656
848.921	21443
849.057	21743
849.192	21690
849.328	21549
849.463	21511
849.598	21485
849.734	21321
849.869	21359
850.004	21344
850.14	21321
850.275	21188
850.41	21264
850.545	21195
850.68	21252
850.815	21287
850.95	21123
851.085	21401
851.22	21386
851.355	21180
851.49	21279
851.625	21306
851.76	21245
851.895	21230
852.03	21123
852.165	21184
852.299	21260
852.434	21367
852.569	21237
852.703	21306
852.838	21287
852.973	21367
853.107	21355
853.242	21108
853.376	21150
853.511	20891
853.645	21058
853.78	21355
853.914	21096
854.048	21066
854.183	21131
854.317	21226
854.451	21298
854.585	21096
854.72	21066
854.854	21081
854.988	20979
855.122	20998
855.256	20960
855.39	21028
855.524	21089
855.658	21070
855.792	21081
855.926	21146
856.06	21017
856.194	21116
856.327	21032
856.461	21051
856.595	21108
856.729	21062
856.862	21192
856.996	21070
857.13	21108
857.263	21283
857.397	21260
857.53	21104
857.664	21108
857.797	21218
857.931	21188
858.064	21176
858.197	21252
858.331	21096
858.464	21066
858.597	21039
858.731	21085
858.864	21028
858.997	20963
859.13	21055
859.263	21119
859.396	21173
859.529	21089
859.662	21241
859.795	20975
859.928	21135
860.061	21116
860.194	21264
860.327	21150
860.46	21108
860.592	21169
860.725	21302
860.858	21272
860.99	21222
861.123	21070
861.256	21005
861.388	21089
861.521	21709
861.653	21039
861.786	20815
861.918	20872
862.05	21020
862.183	20948
862.315	20941
862.447	21108
862.58	21017
862.712	20914
862.844	20773
862.976	20895
863.108	20883
863.24	21348
863.372	20705
863.504	20758
863.636	20758
863.768	20937
863.9	20857
864.032	20716
864.164	20762
864.296	20872
864.428	20941
864.559	21017
864.691	20921
864.823	20819
864.954	20773
865.086	20762
865.217	20667
865.349	20507
865.48	20750
865.612	20686
865.743	20899
865.875	20857
866.006	20750
866.137	20659
866.269	20469
866.4	20682
866.531	20602
866.662	20705
866.793	20636
866.924	20762
867.055	20678
867.186	20609
867.317	20575
867.448	20541
867.579	20670
867.71	20552
867.841	20625
867.972	20594
868.103	20636
868.233	20587
868.364	20739
868.495	20868
868.625	20823
868.756	20963
868.886	20724
869.017	20952
869.147	20944
869.278	20971
869.408	20937
869.539	20899
869.669	21017
869.799	20883
869.929	20982
870.06	21074
870.19	21142
870.32	21245
870.45	21241
870.58	21275
870.71	21580
870.84	21260
870.97	21252
871.1	21393
871.23	21466
871.36	21492
871.489	21344
871.619	21447
871.749	21359
871.879	21485
872.008	21587
872.138	21564
872.267	21378
872.397	21389
872.526	21283
872.656	21230
872.785	21355
872.915	21507
873.044	21507
873.173	21545
873.303	21648
873.432	21618
873.561	21603
873.69	21477
873.819	21393
873.948	21633
874.077	21424
874.206	21435
874.335	21526
874.464	21599
874.593	21705
874.722	21652
874.851	21717
874.979	21842
875.108	21755
875.237	21591
875.365	21572
875.494	21816
875.623	21804
875.751	21751
875.88	21671
876.008	21926
876.136	21846
876.265	22135
876.393	22322
876.521	22048
876.65	22200
876.778	22048
876.906	22101
877.034	22105
877.162	22162
877.29	22067
877.418	22234
877.546	22185
877.674	22124
877.802	22169
877.93	22078
878.058	21934
878.185	21869
878.313	22025
878.441	22101
878.568	21911
878.696	22025
878.824	22143
878.951	22276
879.079	22215
879.206	22466
879.333	22215
879.461	22082
879.588	22211
879.715	22272
879.842	22386
879.97	22044
880.097	21926
880.224	21968
880.351	22017
880.478	21926
880.605	21903
880.732	21876
880.859	22253
880.986	21953
881.112	21922
881.239	21823
881.366	21641
881.493	21477
881.619	21488
881.746	21523
881.872	21469
881.999	21420
882.125	21454
882.252	21538
882.378	21469
882.505	21591
882.631	21401
882.757	21096
882.883	21287
883.01	21173
883.136	21165
883.262	21096
883.388	21028
883.514	21173
883.64	21241
883.766	21119
883.892	21009
884.018	20990
884.143	21135
884.269	21195
884.395	20902
884.52	20826
884.646	20773
884.772	20769
884.897	20686
885.023	20857
885.148	20990
885.274	20994
885.399	20998
885.524	20880
885.65	20887
885.775	20720
885.9	20796
886.025	20948
886.15	20800
886.275	20754
886.4	20724
886.525	20823
886.65	20716
886.775	20785
886.9	20880
887.025	20952
887.149	20792
887.274	20632
887.399	20602
887.523	20461
887.648	20705
887.773	20530
887.897	20701
888.021	20708
888.146	20587
888.27	20731
888.395	20632
888.519	20636
888.643	20693
888.767	20629
888.891	20442
889.015	20385
889.139	20480
889.263	20385
889.387	20480
889.511	20678
889.635	20465
889.759	20332
889.883	20389
890.006	20385
890.13	20537
890.254	20358
890.377	20442
890.501	20092
890.624	20176
890.748	20187
890.871	19993
890.995	19936
891.118	19864
891.241	20016
891.364	19875
891.488	20122
891.611	19967
891.734	19974
891.857	20020
891.98	19963
892.103	20073
892.226	19982
892.349	19951
892.471	19784
892.594	19837
892.717	19925
892.839	19826
892.962	19879
893.085	19947
893.207	19860
893.33	19727
893.452	19742
893.575	19925
893.697	19830
893.819	20043
893.941	20134
894.064	20058
894.186	19894
894.308	19750
894.43	19982
894.552	20012
894.674	19986
894.796	19833
894.918	19784
895.04	19814
895.161	19959
895.283	19974
895.405	19986
895.526	19928
895.648	19940
895.769	19826
895.891	19997
896.012	19909
896.134	19898
896.255	19860
896.376	19906
896.498	19906
896.619	19978
896.74	19902
896.861	20001
896.982	20161
897.103	20263
897.224	20324
897.345	20084
897.466	20096
897.587	20149
897.708	20183
897.828	20145
897.949	19940
898.07	20005
898.19	20157
898.311	20218
898.431	19955
898.552	20187
898.672	20271
898.792	20145
898.913	20130
899.033	20115
899.153	19841
899.273	19879
899.393	19894
899.513	19864
899.633	19852
899.753	19902
899.873	19696
899.993	19894
900.113	19852
900.232	19841
900.352	19803
900.472	19830
900.591	19571
900.711	19578
900.83	19620
900.95	19761
901.069	19750
901.189	19628
901.308	19301
901.427	19266
901.546	19304
901.665	19194
901.784	19278
901.904	19160
902.023	18985
902.141	18802
902.26	18802
902.379	18821
902.498	18772
902.617	18776
902.735	18715
902.854	18707
902.973	18604
903.091	18456
903.21	18494
903.328	18361
903.446	18243
903.565	18273
903.683	18273
903.801	18228
903.919	18273
904.038	18220
904.156	18038
904.274	18121
904.392	17897
904.51	18045
904.627	17939
904.745	18079
904.863	17927
904.981	17821
905.098	17661
905.216	17646
905.334	17657
905.451	17638
905.569	17676
905.686	17756
905.803	17710
905.921	17455
906.038	17554
906.155	17532
906.272	17410
906.389	17364
906.506	17261
906.623	17170
906.74	17220
906.857	17010
906.974	17045
907.091	17265
907.208	17242
907.324	17277
907.441	17086
907.557	16923
907.674	16816
907.79	16911
907.907	16858
908.023	16984
908.139	16877
908.256	16915
908.372	16782
908.488	16854
908.604	16691
908.72	16687
908.836	16611
908.952	16596
909.068	16630
909.184	16782
909.3	16675
909.415	16706
909.531	16664
909.647	16405
909.762	16382
909.878	16314
909.993	16341
910.108	16284
910.224	16261
910.339	16375
910.454	16200
910.57	16158
910.685	16116
910.8	16371
910.915	16238
911.03	16128
911.145	15972
911.259	15907
911.374	15930
911.489	15907
911.604	15880
911.718	15686
911.833	15679
911.947	15633
912.062	15610
912.176	15739
912.291	15637
912.405	15679
912.519	15819
912.633	15991
912.748	15873
912.862	15660
912.976	15595
913.09	15378
913.204	15447
913.318	15603
913.431	15603
913.545	15485
913.659	15690
913.772	15393
913.886	15332
914	15245
914.113	15405
914.226	15439
914.34	15313
914.453	15157
914.566	15332
914.68	15214
914.793	15241
914.906	14952
915.019	14891
915.132	14883
915.245	14929
915.358	14933
915.47	14895
915.583	14925
915.696	14941
915.809	15043
915.921	15081
916.034	14895
916.146	14826
916.259	14819
916.371	14834
916.483	14925
916.595	14739
916.708	14845
916.82	14838
916.932	14785
917.044	14724
917.156	14598
917.268	14644
917.38	14663
917.491	14613
917.603	14545
917.715	14640
917.826	14667
917.938	14495
918.049	14408
918.161	14583
918.272	14587
918.384	14693
918.495	14545
918.606	14374
918.717	14362
918.828	14370
918.939	14313
919.05	14240
919.161	14301
919.272	14096
919.383	14221
919.494	14351
919.604	14530
919.715	14381
919.826	14199
919.936	14339
920.047	14423
920.157	14336
920.267	14457
920.378	14404
920.488	14263
920.598	14530
920.708	14678
920.818	14446
920.928	14537
921.038	14686
921.148	14674
921.258	14157
921.368	14126
921.477	14111
921.587	14138
921.697	13909
921.806	14065
921.916	13909
922.025	13803
922.134	13689
922.244	13670
922.353	13780
922.462	13639
922.571	13544
922.68	13358
922.789	13350
922.898	13430
923.007	13350
923.116	13339
923.224	13362
923.333	13206
923.442	13255
923.55	13171
923.659	13194
923.767	13293
923.876	13072
923.984	13232
924.092	13091
924.201	13126
924.309	13069
924.417	13110
924.525	12947
924.633	13065
924.741	13902
924.849	12833
924.956	12996
925.064	12837
925.172	12684
925.279	12848
925.387	12817
925.494	12814
925.602	12916
925.709	12821
925.816	12684
925.924	12738
926.031	12833
926.138	12753
926.245	12795
926.352	12604
926.459	12776
926.566	12798
926.673	12703
926.779	12566
926.886	12513
926.993	12365
927.099	12323
927.206	12300
927.312	12311
927.419	12475
927.525	12323
927.631	12361
927.737	12270
927.843	12167
927.95	12167
928.056	12178
928.162	12197
928.267	12285
928.373	12840
928.479	12197
928.585	12015
928.69	12167
928.796	12163
928.901	12019
929.007	11920
929.112	12041
929.218	12022
929.323	11969
929.428	11866
929.533	12049
929.638	11836
929.743	11920
929.848	11908
929.953	11961
930.058	11805
930.163	11642
930.267	11638
930.372	11672
930.477	11577
930.581	11783
930.685	11611
930.79	11433
930.894	11543
930.998	11478
931.103	11535
931.207	11284
931.311	11201
931.415	11067
931.519	10873
931.623	10869
