Data from test_V78500241_2523.txt Node
Date: Fri Mar 25 15:59:16 CST 2022
User: usil
Spectrometer: V785-0024
Trigger mode: 0
Integration Time (sec): 4.000000E-1
Scans to average: 1
Nonlinearity correction enabled: false
Boxcar width: 0
Storing dark spectrum: false
XAxis mode: Wavelengths
Number of Pixels in Spectrum: 1024
>>>>>Begin Spectral Data<<<<<
801.071	28752
801.214	28428
801.356	28405
801.499	28596
801.641	28188
801.783	28230
801.926	28455
802.068	28204
802.211	28150
802.353	28090
802.496	28112
802.638	27998
802.78	28090
802.923	28040
803.065	27865
803.208	28059
803.35	27930
803.492	28341
803.635	28173
803.777	28074
803.919	28246
804.061	28531
804.204	28394
804.346	28207
804.488	28139
804.63	28253
804.773	28120
804.915	28249
805.057	28390
805.199	28409
805.341	28360
805.483	28424
805.626	28398
805.768	28375
805.91	28401
806.052	28390
806.194	28299
806.336	28485
806.478	28344
806.62	28337
806.762	28554
806.904	28497
807.046	28987
807.188	28904
807.33	28904
807.472	28972
807.614	28626
807.756	28706
807.898	28550
808.04	28599
808.182	28721
808.324	28713
808.465	28805
808.607	28888
808.749	29025
808.891	29288
809.033	29353
809.174	29178
809.316	29090
809.458	29200
809.6	28987
809.741	29159
809.883	29227
810.025	29547
810.166	29311
810.308	29436
810.45	29341
810.591	29227
810.733	29117
810.875	29102
811.016	29064
811.158	28793
811.299	29178
811.441	29227
811.582	29235
811.724	29105
811.865	29159
812.007	29155
812.148	29269
812.29	29113
812.431	29284
812.573	29509
812.714	29493
812.855	29524
812.997	29691
813.138	29790
813.279	29790
813.421	29623
813.562	29619
813.703	29307
813.845	29200
813.986	29246
814.127	29029
814.268	28710
814.41	28915
814.551	28675
814.692	28828
814.833	28786
814.974	28656
815.115	28835
815.256	28565
815.397	28546
815.539	28618
815.68	28504
815.821	28523
815.962	28679
816.103	28531
816.244	28447
816.385	28306
816.526	28447
816.666	28226
816.807	28124
816.948	28272
817.089	28135
817.23	28192
817.371	28105
817.512	28109
817.653	28097
817.793	27972
817.934	28109
818.075	28116
818.216	28109
818.356	28078
818.497	27968
818.638	27762
818.778	27930
818.919	27937
819.06	27945
819.2	28082
819.341	28177
819.481	27953
819.622	28257
819.762	28337
819.903	28481
820.043	28314
820.184	28284
820.324	28226
820.465	28318
820.605	28249
820.746	28272
820.886	28242
821.026	28158
821.167	28215
821.307	28166
821.447	28196
821.588	27911
821.728	27914
821.868	27755
822.008	27603
822.149	27591
822.289	27770
822.429	27195
822.569	27154
822.709	27298
822.849	27146
822.99	27146
823.13	27161
823.27	27039
823.41	27070
823.55	26887
823.69	27024
823.83	26963
823.97	26880
824.11	26765
824.25	26785
824.389	26781
824.529	26952
824.669	26800
824.809	26921
824.949	26823
825.089	26834
825.228	26979
825.368	26594
825.508	26697
825.648	26705
825.787	26689
825.927	26686
826.067	26514
826.206	26590
826.346	26678
826.485	26762
826.625	26625
826.765	26804
826.904	26693
827.044	26507
827.183	26381
827.323	26290
827.462	26488
827.601	26355
827.741	26396
827.88	26366
828.02	26225
828.159	26157
828.298	26453
828.437	26366
828.577	26240
828.716	26480
828.855	26195
828.994	26172
829.134	26043
829.273	26039
829.412	25959
829.551	25909
829.69	25989
829.829	26065
829.968	26153
830.107	26050
830.246	26107
830.385	26016
830.524	25963
830.663	25875
830.802	25799
830.941	25696
831.08	25609
831.219	25833
831.357	25727
831.496	25753
831.635	25651
831.774	25651
831.913	25499
832.051	25544
832.19	25464
832.329	25430
832.467	25331
832.606	25289
832.744	25354
832.883	25362
833.022	25301
833.16	25339
833.299	25381
833.437	25343
833.576	25346
833.714	25422
833.852	25411
833.991	25369
834.129	25464
834.267	25403
834.406	25377
834.544	25369
834.682	25411
834.821	25381
834.959	25544
835.097	25434
835.235	25491
835.373	25400
835.511	25289
835.65	25240
835.788	25228
835.926	25137
836.064	25023
836.202	25076
836.34	25072
836.478	25137
836.615	25057
836.753	25327
836.891	25388
837.029	25168
837.167	25114
837.305	24962
837.443	24958
837.58	25042
837.718	24973
837.856	25107
837.993	24954
838.131	25019
838.269	24970
838.406	24920
838.544	24787
838.681	24787
838.819	24547
838.956	24563
839.094	24612
839.231	24513
839.369	24597
839.506	24882
839.643	24867
839.781	24494
839.918	24395
840.055	24532
840.193	24475
840.33	24300
840.467	24456
840.604	24399
840.742	24692
840.879	24346
841.016	24395
841.153	24330
841.29	24544
841.427	24426
841.564	24418
841.701	24266
841.838	24445
841.975	24369
842.112	24357
842.249	24315
842.385	24182
842.522	24266
842.659	24152
842.796	24133
842.933	24235
843.069	24224
843.206	24117
843.343	24292
843.479	24152
843.616	24098
843.752	23969
843.889	24038
844.025	24129
844.162	24034
844.298	23927
844.435	23961
844.571	23893
844.708	24053
844.844	24171
844.98	24022
845.117	24171
845.253	23999
845.389	23741
845.525	23802
845.661	23794
845.798	23623
845.934	23798
846.07	23760
846.206	23695
846.342	23805
846.478	23623
846.614	23467
846.75	23406
846.886	23322
847.022	23414
847.158	23387
847.294	23356
847.429	23474
847.565	23391
847.701	23562
847.837	23315
847.972	23079
848.108	23185
848.244	23277
848.379	22968
848.515	23010
848.65	22980
848.786	23003
848.921	23014
849.057	23128
849.192	23041
849.328	23037
849.463	23010
849.598	22930
849.734	22862
849.869	22831
850.004	22694
850.14	22797
850.275	22740
850.41	22733
850.545	22736
850.68	22527
850.815	22881
850.95	22771
851.085	22911
851.22	22774
851.355	22786
851.49	22698
851.625	22698
851.76	22771
851.895	22637
852.03	22767
852.165	22774
852.299	22919
852.434	22752
852.569	22698
852.703	22683
852.838	22839
852.973	22934
853.107	22881
853.242	22733
853.376	22611
853.511	22550
853.645	22500
853.78	22713
853.914	22512
854.048	22516
854.183	22626
854.317	22664
854.451	22656
854.585	22569
854.72	22565
854.854	22675
854.988	22508
855.122	22538
855.256	22470
855.39	22538
855.524	22725
855.658	22698
855.792	22554
855.926	22656
856.06	22599
856.194	22618
856.327	22577
856.461	22645
856.595	22497
856.729	22523
856.862	22801
856.996	22531
857.13	22615
857.263	22668
857.397	22740
857.53	22653
857.664	22675
857.797	22713
857.931	22706
858.064	22519
858.197	22664
858.331	22664
858.464	22622
858.597	22538
858.731	22675
858.864	22531
858.997	22569
859.13	22641
859.263	22470
859.396	22603
859.529	22645
859.662	22630
859.795	22694
859.928	22596
860.061	22801
860.194	22793
860.327	22573
860.46	22645
860.592	22691
860.725	22679
860.858	22622
860.99	22584
861.123	22569
861.256	22440
861.388	22645
861.521	23326
861.653	22478
861.786	22261
861.918	22379
862.05	22580
862.183	22519
862.315	22500
862.447	22436
862.58	22493
862.712	22424
862.844	22356
862.976	22459
863.108	22303
863.24	22577
863.372	22295
863.504	22276
863.636	22284
863.768	22242
863.9	22344
864.032	22322
864.164	22196
864.296	22303
864.428	22409
864.559	22276
864.691	22333
864.823	22211
864.954	22303
865.086	22268
865.217	22139
865.349	21979
865.48	22173
865.612	22192
865.743	22314
865.875	22215
866.006	22097
866.137	22120
866.269	22207
866.4	22166
866.531	22124
866.662	22002
866.793	22032
866.924	22139
867.055	22131
867.186	22059
867.317	22124
867.448	21915
867.579	22112
867.71	21972
867.841	21979
867.972	22017
868.103	22055
868.233	22131
868.364	21956
868.495	22200
868.625	22344
868.756	22497
868.886	22268
869.017	22299
869.147	22409
869.278	22367
869.408	22436
869.539	22398
869.669	22379
869.799	22409
869.929	22447
870.06	22447
870.19	22569
870.32	22611
870.45	22717
870.58	22759
870.71	22759
870.84	22801
870.97	22748
871.1	22740
871.23	22828
871.36	22805
871.489	22733
871.619	22881
871.749	22862
871.879	22976
872.008	23044
872.138	22957
872.267	22889
872.397	22873
872.526	22809
872.656	22809
872.785	22729
872.915	22968
873.044	22946
873.173	22892
873.303	22949
873.432	23178
873.561	23010
873.69	23094
873.819	22957
873.948	23010
874.077	23014
874.206	22904
874.335	22908
874.464	23052
874.593	23265
874.722	23083
874.851	23299
874.979	23231
875.108	23227
875.237	23136
875.365	23109
875.494	23227
875.623	23197
875.751	23174
875.88	23235
876.008	23292
876.136	23395
876.265	23608
876.393	23627
876.521	23558
876.65	23665
876.778	23722
876.906	23509
877.034	23368
877.162	23501
877.29	23501
877.418	23592
877.546	23535
877.674	23573
877.802	23421
877.93	23497
878.058	23448
878.185	23250
878.313	23425
878.441	23467
878.568	23398
878.696	23391
878.824	23463
878.951	23638
879.079	23707
879.206	23775
879.333	23581
879.461	23585
879.588	23577
879.715	23676
879.842	23733
879.97	23524
880.097	23288
880.224	23273
880.351	23383
880.478	23410
880.605	23356
880.732	23311
880.859	23562
880.986	23364
881.112	23307
881.239	23162
881.366	23018
881.493	22961
881.619	22927
881.746	22820
881.872	22843
881.999	22824
882.125	22748
882.252	22911
882.378	22843
882.505	22995
882.631	22607
882.757	22519
882.883	22847
883.01	22615
883.136	22504
883.262	22421
883.388	22481
883.514	22497
883.64	22569
883.766	22379
883.892	22337
884.018	22291
884.143	22367
884.269	22546
884.395	22386
884.52	22162
884.646	22135
884.772	22150
884.897	22120
885.023	22261
885.148	22386
885.274	22371
885.399	22223
885.524	22139
885.65	22177
885.775	22204
885.9	22215
886.025	22329
886.15	22261
886.275	22128
886.4	22040
886.525	22150
886.65	22002
886.775	22090
886.9	22276
887.025	22348
887.149	22101
887.274	21956
887.399	22067
887.523	22044
887.648	21918
887.773	21816
887.897	22093
888.021	21922
888.146	21857
888.27	22063
888.395	22105
888.519	21869
888.643	21892
888.767	21926
888.891	21747
889.015	21747
889.139	21850
889.263	21709
889.387	21827
889.511	21934
889.635	21774
889.759	21652
889.883	21644
890.006	21686
890.13	21713
890.254	21660
890.377	21701
890.501	21481
890.624	21408
890.748	21473
890.871	21370
890.995	21332
891.118	21104
891.241	21249
891.364	21374
891.488	21306
891.611	21218
891.734	21173
891.857	21283
891.98	21230
892.103	21233
892.226	21275
892.349	21237
892.471	21005
892.594	21154
892.717	21332
892.839	21154
892.962	21100
893.085	21287
893.207	21245
893.33	21085
893.452	21047
893.575	21127
893.697	21093
893.819	21313
893.941	21359
894.064	21272
894.186	21028
894.308	21074
894.43	21131
894.552	21272
894.674	21104
894.796	21104
894.918	21173
895.04	21154
895.161	21275
895.283	21249
895.405	21001
895.526	21119
895.648	21218
895.769	21173
895.891	21074
896.012	21230
896.134	21138
896.255	21017
896.376	21146
896.498	21138
896.619	21188
896.74	21169
896.861	21150
896.982	21435
897.103	21561
897.224	21393
897.345	21355
897.466	21188
897.587	21256
897.708	21504
897.828	21264
897.949	21214
898.07	21192
898.19	21161
898.311	21275
898.431	21272
898.552	21397
898.672	21447
898.792	21428
898.913	21348
899.033	21222
899.153	21108
899.273	21066
899.393	21001
899.513	21089
899.633	20990
899.753	20967
899.873	20906
899.993	21089
900.113	20956
900.232	21062
900.352	20937
900.472	20880
900.591	20864
900.711	20788
900.83	20842
900.95	20982
901.069	20849
901.189	20880
901.308	20393
901.427	20465
901.546	20404
901.665	20469
901.784	20408
901.904	20214
902.023	20138
902.141	19997
902.26	19936
902.379	20035
902.498	19818
902.617	19811
902.735	19807
902.854	19799
902.973	19883
903.091	19616
903.21	19674
903.328	19685
903.446	19430
903.565	19464
903.683	19381
903.801	19312
903.919	19343
904.038	19358
904.156	19263
904.274	19232
904.392	19126
904.51	19126
904.627	19091
904.745	19008
904.863	19187
904.981	18867
905.098	18852
905.216	18871
905.334	18791
905.451	18844
905.569	18738
905.686	18863
905.803	18734
905.921	18597
906.038	18631
906.155	18601
906.272	18456
906.389	18483
906.506	18350
906.623	18334
906.74	18353
906.857	18209
906.974	18209
907.091	18422
907.208	18346
907.324	18361
907.441	18171
907.557	18072
907.674	18007
907.79	17935
907.907	17992
908.023	18091
908.139	17950
908.256	18034
908.372	17889
908.488	17885
908.604	17783
908.72	17630
908.836	17760
908.952	17695
909.068	17707
909.184	17836
909.3	17737
909.415	17748
909.531	17653
909.647	17452
909.762	17379
909.878	17463
909.993	17467
910.108	17265
910.224	17421
910.339	17330
910.454	17227
910.57	17071
910.685	17147
910.8	17505
910.915	17341
911.03	17121
911.145	17037
911.259	17033
911.374	17006
911.489	16885
911.604	16805
911.718	16694
911.833	16816
911.947	16622
912.062	16607
912.176	16721
912.291	16767
912.405	16721
912.519	16889
912.633	17033
912.748	16694
912.862	16706
912.976	16512
913.09	16462
913.204	16538
913.318	16542
913.431	16512
913.545	16596
913.659	16675
913.772	16493
913.886	16443
914	16379
914.113	16546
914.226	16481
914.34	16379
914.453	16268
914.566	16432
914.68	16261
914.793	16204
914.906	15941
915.019	15884
915.132	15895
915.245	15911
915.358	16040
915.47	15983
915.583	15907
915.696	16021
915.809	16147
915.921	16051
916.034	15922
916.146	15846
916.259	15762
916.371	15884
916.483	15941
916.595	15755
916.708	15728
916.82	15789
916.932	15755
917.044	15610
917.156	15724
917.268	15511
917.38	15648
917.491	15591
917.603	15599
917.715	15652
917.826	15713
917.938	15549
918.049	15428
918.161	15622
918.272	15580
918.384	15614
918.495	15500
918.606	15332
918.717	15233
918.828	15355
918.939	15344
919.05	15214
919.161	15348
919.272	15089
919.383	15131
919.494	15359
919.604	15629
919.715	15325
919.826	15173
919.936	15252
920.047	15325
920.157	15264
920.267	15302
920.378	15226
920.488	15218
920.598	15447
920.708	15530
920.818	15447
920.928	15313
921.038	15481
921.148	15469
921.258	15241
921.368	15135
921.477	14971
921.587	14933
921.697	14777
921.806	15009
921.916	14811
922.025	14693
922.134	14480
922.244	14579
922.353	14602
922.462	14590
922.571	14362
922.68	14317
922.789	14282
922.898	14218
923.007	14107
923.116	14366
923.224	14278
923.333	14183
923.442	14031
923.55	14069
923.659	14107
923.767	14168
923.876	14081
923.984	14111
924.092	13947
924.201	13955
924.309	14039
924.417	14077
924.525	13925
924.633	13913
924.741	14731
924.849	13616
924.956	13826
925.064	13708
925.172	13620
925.279	13651
925.387	13655
925.494	13594
925.602	13696
925.709	13639
925.816	13506
925.924	13590
926.031	13639
926.138	13502
926.245	13540
926.352	13506
926.459	13567
926.566	13636
926.673	13472
926.779	13301
926.886	13285
926.993	13263
927.099	13110
927.206	13183
927.312	13107
927.419	13213
927.525	13198
927.631	13145
927.737	13076
927.843	12905
927.95	12867
928.056	13015
928.162	13034
928.267	13076
928.373	13715
928.479	13015
928.585	12757
928.69	12958
928.796	12962
928.901	12859
929.007	12688
929.112	12798
929.218	12776
929.323	12749
929.428	12703
929.533	12753
929.638	12623
929.743	12658
929.848	12658
929.953	12589
930.058	12563
930.163	12327
930.267	12357
930.372	12437
930.477	12399
930.581	12528
930.685	12380
930.79	12239
930.894	12167
930.998	12194
931.103	12365
931.207	12007
931.311	11916
931.415	11843
931.519	11695
931.623	11608
