Data from test_V78500241_3692.txt Node
Date: Fri Mar 25 16:07:22 CST 2022
User: usil
Spectrometer: V785-0024
Trigger mode: 0
Integration Time (sec): 4.000000E-1
Scans to average: 1
Nonlinearity correction enabled: false
Boxcar width: 0
Storing dark spectrum: false
XAxis mode: Wavelengths
Number of Pixels in Spectrum: 1024
>>>>>Begin Spectral Data<<<<<
801.071	28535
801.214	28295
801.356	28280
801.499	28177
801.641	27926
801.783	27987
801.926	27960
802.068	28025
802.211	27934
802.353	27804
802.496	27682
802.638	27774
802.78	27652
802.923	27641
803.065	27416
803.208	27648
803.35	27576
803.492	27705
803.635	27918
803.777	27918
803.919	27972
804.061	28192
804.204	27983
804.346	27945
804.488	27701
804.63	27899
804.773	27797
804.915	27987
805.057	28112
805.199	27903
805.341	28109
805.483	28036
805.626	28135
805.768	27899
805.91	27991
806.052	28128
806.194	27991
806.336	28310
806.478	28078
806.62	28120
806.762	28188
806.904	28436
807.046	28656
807.188	28535
807.33	28470
807.472	28481
807.614	28470
807.756	28489
807.898	28318
808.04	28352
808.182	28200
808.324	28287
808.465	28291
808.607	28641
808.749	28767
808.891	28862
809.033	28873
809.174	28748
809.316	28809
809.458	28611
809.6	28736
809.741	28854
809.883	28801
810.025	29067
810.166	29083
810.308	29048
810.45	28965
810.591	28991
810.733	28744
810.875	28812
811.016	28706
811.158	28656
811.299	28968
811.441	28934
811.582	28896
811.724	28896
811.865	28782
812.007	28790
812.148	28733
812.29	28824
812.431	28991
812.573	29018
812.714	29250
812.855	29239
812.997	29258
813.138	29448
813.279	29353
813.421	29395
813.562	29311
813.703	29044
813.845	29064
813.986	28717
814.127	28599
814.268	28497
814.41	28386
814.551	28291
814.692	28546
814.833	28367
814.974	28504
815.115	28519
815.256	28371
815.397	28390
815.539	28310
815.68	28363
815.821	28234
815.962	28299
816.103	28265
816.244	28238
816.385	28162
816.526	27953
816.666	27911
816.807	27747
816.948	27835
817.089	27842
817.23	27941
817.371	27774
817.512	27857
817.653	27797
817.793	27770
817.934	27819
818.075	27766
818.216	27686
818.356	27880
818.497	27751
818.638	27557
818.778	27450
818.919	27466
819.06	27682
819.2	27755
819.341	27842
819.481	27918
819.622	27953
819.762	28219
819.903	27869
820.043	28086
820.184	27895
820.324	27892
820.465	27941
820.605	27930
820.746	27895
820.886	27793
821.026	27835
821.167	28002
821.307	27914
821.447	27770
821.588	27724
821.728	27469
821.868	27591
822.008	27264
822.149	27264
822.289	27344
822.429	26982
822.569	26830
822.709	27020
822.849	26754
822.99	26792
823.13	26667
823.27	26682
823.41	26644
823.55	26396
823.69	26705
823.83	26708
823.97	26598
824.11	26298
824.25	26450
824.389	26400
824.529	26488
824.669	26415
824.809	26579
824.949	26484
825.089	26457
825.228	26370
825.368	26267
825.508	26240
825.648	26286
825.787	26408
825.927	26358
826.067	26339
826.206	26370
826.346	26461
826.485	26336
826.625	26244
826.765	26476
826.904	26442
827.044	26035
827.183	26100
827.323	26092
827.462	26130
827.601	26031
827.741	26073
827.88	26088
828.02	25986
828.159	25974
828.298	25997
828.437	26107
828.577	26069
828.716	26180
828.855	25917
828.994	25685
829.134	25635
829.273	25769
829.412	25628
829.551	25788
829.69	25696
829.829	25780
829.968	25780
830.107	25818
830.246	25719
830.385	25655
830.524	25563
830.663	25575
830.802	25346
830.941	25263
831.08	25441
831.219	25495
831.357	25384
831.496	25601
831.635	25339
831.774	25251
831.913	25061
832.051	25061
832.19	25118
832.329	25027
832.467	24932
832.606	24985
832.744	24973
832.883	25008
833.022	24992
833.16	25000
833.299	25042
833.437	24958
833.576	25145
833.714	24947
833.852	25099
833.991	25091
834.129	25129
834.267	25160
834.406	25038
834.544	25183
834.682	25072
834.821	25053
834.959	25206
835.097	24962
835.235	24992
835.373	25084
835.511	25065
835.65	24920
835.788	24958
835.926	24745
836.064	24749
836.202	24604
836.34	24848
836.478	24973
836.615	24954
836.753	24985
836.891	24958
837.029	24886
837.167	24814
837.305	24791
837.443	24722
837.58	24776
837.718	24821
837.856	24738
837.993	24719
838.131	24681
838.269	24517
838.406	24555
838.544	24509
838.681	24437
838.819	24357
838.956	24266
839.094	24235
839.231	24167
839.369	24334
839.506	24467
839.643	24479
839.781	24258
839.918	24095
840.055	24079
840.193	24174
840.33	24178
840.467	24041
840.604	24125
840.742	24433
840.879	23897
841.016	24003
841.153	24007
841.29	24197
841.427	24167
841.564	24068
841.701	24064
841.838	23939
841.975	24003
842.112	24072
842.249	23878
842.385	23821
842.522	24026
842.659	23980
842.796	23798
842.933	23920
843.069	23893
843.206	23824
843.343	23855
843.479	23767
843.616	23870
843.752	23611
843.889	23745
844.025	23882
844.162	23501
844.298	23642
844.435	23638
844.571	23619
844.708	23653
844.844	23767
844.98	23764
845.117	23760
845.253	23619
845.389	23376
845.525	23619
845.661	23421
845.798	23326
845.934	23398
846.07	23372
846.206	23425
846.342	23535
846.478	23349
846.614	23178
846.75	23003
846.886	23025
847.022	23250
847.158	23143
847.294	23140
847.429	23185
847.565	23132
847.701	23280
847.837	22694
847.972	22683
848.108	22946
848.244	22908
848.379	22767
848.515	22698
848.65	22683
848.786	22694
848.921	22683
849.057	22702
849.192	22752
849.328	22679
849.463	22645
849.598	22687
849.734	22641
849.869	22607
850.004	22440
850.14	22424
850.275	22596
850.41	22303
850.545	22405
850.68	22462
850.815	22405
850.95	22421
851.085	22786
851.22	22599
851.355	22531
851.49	22455
851.625	22375
851.76	22409
851.895	22352
852.03	22478
852.165	22432
852.299	22580
852.434	22481
852.569	22481
852.703	22375
852.838	22466
852.973	22618
853.107	22459
853.242	22386
853.376	22200
853.511	22120
853.645	22166
853.78	22371
853.914	22257
854.048	22287
854.183	22177
854.317	22303
854.451	22481
854.585	22333
854.72	22223
854.854	22341
854.988	22276
855.122	22287
855.256	22169
855.39	22238
855.524	22356
855.658	22409
855.792	22287
855.926	22314
856.06	22386
856.194	22329
856.327	22204
856.461	22166
856.595	22086
856.729	22166
856.862	22360
856.996	22261
857.13	22375
857.263	22268
857.397	22253
857.53	22196
857.664	22303
857.797	22371
857.931	22306
858.064	22181
858.197	22322
858.331	22284
858.464	22291
858.597	22261
858.731	22246
858.864	22093
858.997	22295
859.13	22291
859.263	22230
859.396	22341
859.529	22162
859.662	22192
859.795	22192
859.928	22299
860.061	22398
860.194	22462
860.327	22261
860.46	22287
860.592	22500
860.725	22428
860.858	22322
860.99	22226
861.123	22253
861.256	22257
861.388	22158
861.521	23109
861.653	22055
861.786	22051
861.918	22109
862.05	22051
862.183	22074
862.315	22322
862.447	22246
862.58	22116
862.712	21934
862.844	21865
862.976	22051
863.108	21972
863.24	22493
863.372	21991
863.504	21854
863.636	21884
863.768	22055
863.9	21937
864.032	21842
864.164	21991
864.296	22063
864.428	22105
864.559	22010
864.691	22025
864.823	21926
864.954	21998
865.086	21991
865.217	21861
865.349	21823
865.48	21922
865.612	21861
865.743	21911
865.875	21899
866.006	21751
866.137	21930
866.269	21876
866.4	21846
866.531	21759
866.662	21789
866.793	21789
866.924	21819
867.055	21918
867.186	21857
867.317	21713
867.448	21694
867.579	21671
867.71	21736
867.841	21667
867.972	21846
868.103	21800
868.233	21846
868.364	21804
868.495	21816
868.625	22101
868.756	22109
868.886	21915
869.017	22013
869.147	22143
869.278	22223
869.408	22025
869.539	21994
869.669	22070
869.799	22105
869.929	22101
870.06	22112
870.19	22356
870.32	22360
870.45	22379
870.58	22409
870.71	22622
870.84	22531
870.97	22375
871.1	22455
871.23	22603
871.36	22653
871.489	22546
871.619	22615
871.749	22584
871.879	22740
872.008	22702
872.138	22611
872.267	22641
872.397	22417
872.526	22409
872.656	22474
872.785	22546
872.915	22683
873.044	22706
873.173	22710
873.303	22702
873.432	22702
873.561	22596
873.69	22573
873.819	22668
873.948	22675
874.077	22683
874.206	22478
874.335	22748
874.464	22721
874.593	22911
874.722	22763
874.851	22965
874.979	22862
875.108	23025
875.237	22763
875.365	22767
875.494	22904
875.623	22862
875.751	22793
875.88	22820
876.008	22934
876.136	23056
876.265	23353
876.393	23364
876.521	23288
876.65	23296
876.778	23284
876.906	23250
877.034	23239
877.162	23288
877.29	23216
877.418	23208
877.546	23208
877.674	23109
877.802	23098
877.93	23235
878.058	23151
878.185	23090
878.313	23143
878.441	23140
878.568	23071
878.696	23185
878.824	23227
878.951	23345
879.079	23353
879.206	23520
879.333	23395
879.461	23212
879.588	23337
879.715	23368
879.842	23512
879.97	23322
880.097	23064
880.224	23113
880.351	23064
880.478	22965
880.605	23044
880.732	23029
880.859	23216
880.986	22896
881.112	23052
881.239	22904
881.366	22656
881.493	22713
881.619	22626
881.746	22679
881.872	22504
881.999	22656
882.125	22500
882.252	22603
882.378	22493
882.505	22637
882.631	22360
882.757	22272
882.883	22276
883.01	22257
883.136	22230
883.262	22215
883.388	22128
883.514	22344
883.64	22322
883.766	22185
883.892	22082
884.018	22002
884.143	22154
884.269	22318
884.395	22105
884.52	21808
884.646	22021
884.772	21797
884.897	21785
885.023	21876
885.148	22002
885.274	22067
885.399	21994
885.524	21991
885.65	21861
885.775	21983
885.9	21876
886.025	21918
886.15	21823
886.275	21778
886.4	21766
886.525	21918
886.65	21816
886.775	21816
886.9	21880
887.025	22090
887.149	21941
887.274	21797
887.399	21732
887.523	21618
887.648	21610
887.773	21701
887.897	21793
888.021	21660
888.146	21633
888.27	21800
888.395	21686
888.519	21663
888.643	21663
888.767	21652
888.891	21511
889.015	21583
889.139	21519
889.263	21393
889.387	21523
889.511	21671
889.635	21542
889.759	21519
889.883	21359
890.006	21401
890.13	21523
890.254	21439
890.377	21367
890.501	21214
890.624	21020
890.748	21325
890.871	21176
890.995	20921
891.118	20998
891.241	21043
891.364	21005
891.488	21211
891.611	21062
891.734	20979
891.857	21058
891.98	21123
892.103	20990
892.226	21119
892.349	21005
892.471	20819
892.594	20845
892.717	20998
892.839	20910
892.962	20925
893.085	20826
893.207	20880
893.33	20819
893.452	20845
893.575	21089
893.697	20853
893.819	21070
893.941	21165
894.064	21066
894.186	20971
894.308	20781
894.43	20944
894.552	20975
894.674	21032
894.796	20743
894.918	20811
895.04	20815
895.161	20883
895.283	20975
895.405	20682
895.526	20921
895.648	20929
895.769	20811
895.891	20906
896.012	20872
896.134	20929
896.255	20887
896.376	20918
896.498	20902
896.619	20891
896.74	20971
896.861	20883
896.982	21184
897.103	21249
897.224	21135
897.345	21058
897.466	20914
897.587	21176
897.708	21226
897.828	21173
897.949	20891
898.07	20918
898.19	20979
898.311	21074
898.431	21100
898.552	21112
898.672	21188
898.792	21230
898.913	21066
899.033	20956
899.153	20899
899.273	20811
899.393	20815
899.513	20933
899.633	20800
899.753	20910
899.873	20693
899.993	20891
900.113	20750
900.232	20838
900.352	20773
900.472	20686
900.591	20583
900.711	20549
900.83	20602
900.95	20674
901.069	20629
901.189	20564
901.308	20256
901.427	20157
901.546	20081
901.665	20237
901.784	20138
901.904	20024
902.023	19997
902.141	19731
902.26	19696
902.379	19871
902.498	19651
902.617	19696
902.735	19765
902.854	19643
902.973	19571
903.091	19327
903.21	19316
903.328	19426
903.446	19316
903.565	19072
903.683	19190
903.801	19072
903.919	19137
904.038	19057
904.156	18856
904.274	18985
904.392	18837
904.51	18757
904.627	18852
904.745	18920
904.863	18859
904.981	18772
905.098	18418
905.216	18563
905.334	18589
905.451	18604
905.569	18532
905.686	18563
905.803	18601
905.921	18270
906.038	18441
906.155	18475
906.272	18205
906.389	18308
906.506	18076
906.623	18087
906.74	18117
906.857	18011
906.974	18019
907.091	18049
907.208	18190
907.324	18068
907.441	17958
907.557	17866
907.674	17809
907.79	17737
907.907	17783
908.023	17752
908.139	17851
908.256	17699
908.372	17653
908.488	17615
908.604	17608
908.72	17474
908.836	17573
908.952	17539
909.068	17501
909.184	17543
909.3	17467
909.415	17676
909.531	17486
909.647	17356
909.762	17242
909.878	17197
909.993	17315
910.108	16995
910.224	17121
910.339	17227
910.454	17037
910.57	16961
910.685	16923
910.8	17174
910.915	17212
911.03	17121
911.145	16862
911.259	16820
911.374	16862
911.489	16694
911.604	16634
911.718	16527
911.833	16538
911.947	16462
912.062	16424
912.176	16531
912.291	16584
912.405	16550
912.519	16672
912.633	16691
912.748	16573
912.862	16569
912.976	16386
913.09	16234
913.204	16306
913.318	16360
913.431	16451
913.545	16341
913.659	16535
913.772	16405
913.886	16173
914	16154
914.113	16192
914.226	16303
914.34	16143
914.453	16078
914.566	16173
914.68	16074
914.793	16017
914.906	15873
915.019	15682
915.132	15724
915.245	15717
915.358	15743
915.47	15774
915.583	15701
915.696	15614
915.809	15747
915.921	15816
916.034	15622
916.146	15557
916.259	15606
916.371	15679
916.483	15629
916.595	15507
916.708	15561
916.82	15492
916.932	15431
917.044	15492
917.156	15450
917.268	15393
917.38	15458
917.491	15382
917.603	15344
917.715	15359
917.826	15428
917.938	15214
918.049	15237
918.161	15291
918.272	15439
918.384	15294
918.495	15332
918.606	15039
918.717	15116
918.828	14906
918.939	15146
919.05	15001
919.161	15112
919.272	14834
919.383	15009
919.494	15195
919.604	15226
919.715	15001
919.826	14990
919.936	14948
920.047	15100
920.157	15062
920.267	15260
920.378	15077
920.488	14982
920.598	15180
920.708	15268
920.818	15218
920.928	15173
921.038	15363
921.148	15218
921.258	14944
921.368	14891
921.477	14773
921.587	14815
921.697	14720
921.806	14773
921.916	14731
922.025	14507
922.134	14461
922.244	14290
922.353	14434
922.462	14256
922.571	14248
922.68	14016
922.789	13989
922.898	14073
923.007	13963
923.116	14149
923.224	13978
923.333	13906
923.442	13944
923.55	13837
923.659	13902
923.767	13921
923.876	13883
923.984	13963
924.092	13696
924.201	13830
924.309	13814
924.417	13769
924.525	13742
924.633	13746
924.741	14682
924.849	13556
924.956	13632
925.064	13506
925.172	13434
925.279	13415
925.387	13559
925.494	13445
925.602	13525
925.709	13529
925.816	13289
925.924	13502
926.031	13544
926.138	13365
926.245	13422
926.352	13285
926.459	13430
926.566	13426
926.673	13297
926.779	13244
926.886	13133
926.993	13065
927.099	13031
927.206	12935
927.312	12859
927.419	12913
927.525	12878
927.631	12966
927.737	12962
927.843	12795
927.95	12772
928.056	12791
928.162	12814
928.267	12916
928.373	13415
928.479	12856
928.585	12555
928.69	12776
928.796	12745
928.901	12696
929.007	12612
929.112	12544
929.218	12601
929.323	12513
929.428	12555
929.533	12582
929.638	12403
929.743	12414
929.848	12570
929.953	12486
930.058	12308
930.163	12194
930.267	12232
930.372	12369
930.477	12125
930.581	12372
930.685	12167
930.79	12060
930.894	12064
930.998	12095
931.103	12110
931.207	11813
931.311	11748
931.415	11623
931.519	11459
931.623	11402
