Data from test_V78500241_2256.txt Node
Date: Fri Mar 25 15:57:25 CST 2022
User: usil
Spectrometer: V785-0024
Trigger mode: 0
Integration Time (sec): 4.000000E-1
Scans to average: 1
Nonlinearity correction enabled: false
Boxcar width: 0
Storing dark spectrum: false
XAxis mode: Wavelengths
Number of Pixels in Spectrum: 1024
>>>>>Begin Spectral Data<<<<<
801.071	29421
801.214	29307
801.356	29124
801.499	28942
801.641	28812
801.783	28850
801.926	28919
802.068	28892
802.211	28828
802.353	28771
802.496	28557
802.638	28565
802.78	28512
802.923	28451
803.065	28417
803.208	28474
803.35	28698
803.492	28725
803.635	28866
803.777	28637
803.919	28717
804.061	29185
804.204	28961
804.346	28805
804.488	28630
804.63	28774
804.773	28637
804.915	28934
805.057	28999
805.199	28717
805.341	28999
805.483	28942
805.626	28961
805.768	28942
805.91	29048
806.052	29064
806.194	28968
806.336	29121
806.478	28999
806.62	28866
806.762	29136
806.904	29395
807.046	29524
807.188	29562
807.33	29440
807.472	29471
807.614	29497
807.756	29379
807.898	29334
808.04	29273
808.182	29296
808.324	29227
808.465	29337
808.607	29547
808.749	29604
808.891	29885
809.033	29752
809.174	29775
809.316	29737
809.458	29638
809.6	29452
809.741	29752
809.883	29832
810.025	30003
810.166	29893
810.308	29901
810.45	29813
810.591	29939
810.733	29783
810.875	29600
811.016	29722
811.158	29756
811.299	29855
811.441	29882
811.582	29824
811.724	29794
811.865	29832
812.007	29710
812.148	29687
812.29	29779
812.431	29980
812.573	30011
812.714	30148
812.855	30194
812.997	30369
813.138	30441
813.279	30509
813.421	30277
813.562	30121
813.703	30216
813.845	29988
813.986	29684
814.127	29547
814.268	29379
814.41	29463
814.551	29478
814.692	29539
814.833	29512
814.974	29463
815.115	29395
815.256	29395
815.397	29303
815.539	29398
815.68	29277
815.821	29181
815.962	29318
816.103	29318
816.244	29174
816.385	29109
816.526	29041
816.666	28850
816.807	28858
816.948	28733
817.089	28873
817.23	28850
817.371	28744
817.512	28835
817.653	28847
817.793	28672
817.934	28786
818.075	28812
818.216	28759
818.356	28679
818.497	28755
818.638	28459
818.778	28577
818.919	28569
819.06	28592
819.2	28767
819.341	28752
819.481	28881
819.622	28946
819.762	29124
819.903	29212
820.043	29117
820.184	28938
820.324	28930
820.465	28999
820.605	28972
820.746	28972
820.886	28866
821.026	29010
821.167	28885
821.307	29124
821.447	28774
821.588	28634
821.728	28615
821.868	28371
822.008	28367
822.149	28303
822.289	28344
822.429	28105
822.569	27941
822.709	28029
822.849	27743
822.99	27755
823.13	27724
823.27	27751
823.41	27705
823.55	27450
823.69	27583
823.83	27622
823.97	27553
824.11	27447
824.25	27374
824.389	27507
824.529	27641
824.669	27591
824.809	27561
824.949	27492
825.089	27568
825.228	27511
825.368	27412
825.508	27462
825.648	27382
825.787	27340
825.927	27401
826.067	27401
826.206	27340
826.346	27378
826.485	27435
826.625	27397
826.765	27321
826.904	27443
827.044	27051
827.183	27321
827.323	27207
827.462	27157
827.601	27077
827.741	27077
827.88	27245
828.02	26975
828.159	26975
828.298	27214
828.437	27142
828.577	27036
828.716	27268
828.855	27047
828.994	26864
829.134	26823
829.273	26826
829.412	26735
829.551	26727
829.69	26845
829.829	26807
829.968	26750
830.107	26758
830.246	26849
830.385	26621
830.524	26670
830.663	26480
830.802	26495
830.941	26408
831.08	26370
831.219	26480
831.357	26355
831.496	26545
831.635	26355
831.774	26313
831.913	26153
832.051	26062
832.19	26149
832.329	26111
832.467	26065
832.606	25959
832.744	25799
832.883	26062
833.022	26039
833.16	25883
833.299	26119
833.437	26183
833.576	26050
833.714	26142
833.852	26046
833.991	26122
834.129	26172
834.267	26195
834.406	26100
834.544	26092
834.682	26100
834.821	26191
834.959	26130
835.097	26122
835.235	26016
835.373	26046
835.511	26103
835.65	25955
835.788	25879
835.926	25788
836.064	25757
836.202	25841
836.34	25928
836.478	25944
836.615	25856
836.753	25997
836.891	25898
837.029	26035
837.167	25791
837.305	25742
837.443	25769
837.58	25868
837.718	25712
837.856	25788
837.993	25590
838.131	25708
838.269	25594
838.406	25613
838.544	25658
838.681	25381
838.819	25407
838.956	25266
839.094	25209
839.231	25263
839.369	25266
839.506	25582
839.643	25533
839.781	25236
839.918	25122
840.055	25145
840.193	25042
840.33	25137
840.467	25187
840.604	25168
840.742	25225
840.879	24924
841.016	25072
841.153	24989
841.29	25133
841.427	24992
841.564	24977
841.701	25137
841.838	24985
841.975	24947
842.112	25084
842.249	25019
842.385	24852
842.522	25023
842.659	24909
842.796	24867
842.933	24890
843.069	24707
843.206	24707
843.343	24973
843.479	24882
843.616	24856
843.752	24730
843.889	24696
844.025	24776
844.162	24623
844.298	24707
844.435	24585
844.571	24513
844.708	24791
844.844	24692
844.98	24848
845.117	24578
845.253	24460
845.389	24452
845.525	24452
845.661	24426
845.798	24285
845.934	24372
846.07	24308
846.206	24235
846.342	24547
846.478	24247
846.614	24163
846.75	24038
846.886	24060
847.022	24254
847.158	24060
847.294	24049
847.429	24095
847.565	24079
847.701	24323
847.837	23805
847.972	23684
848.108	23893
848.244	23805
848.379	23695
848.515	23608
848.65	23627
848.786	23642
848.921	23630
849.057	23691
849.192	23718
849.328	23714
849.463	23600
849.598	23558
849.734	23505
849.869	23467
850.004	23531
850.14	23376
850.275	23288
850.41	23356
850.545	23288
850.68	23303
850.815	23345
850.95	23402
851.085	23608
851.22	23505
851.355	23444
851.49	23414
851.625	23387
851.76	23341
851.895	23345
852.03	23417
852.165	23376
852.299	23455
852.434	23516
852.569	23516
852.703	23383
852.838	23322
852.973	23497
853.107	23547
853.242	23315
853.376	23265
853.511	23037
853.645	23094
853.78	23364
853.914	23185
854.048	23239
854.183	23189
854.317	23296
854.451	23444
854.585	23242
854.72	23216
854.854	23341
854.988	23136
855.122	23193
855.256	22987
855.39	23326
855.524	23326
855.658	23231
855.792	23364
855.926	23292
856.06	23364
856.194	23277
856.327	23140
856.461	23124
856.595	23204
856.729	23155
856.862	23280
856.996	23280
857.13	23311
857.263	23345
857.397	23349
857.53	23341
857.664	23223
857.797	23356
857.931	23235
858.064	23227
858.197	23322
858.331	23193
858.464	23193
858.597	23178
858.731	23178
858.864	23242
858.997	23246
859.13	23220
859.263	23235
859.396	23440
859.529	23273
859.662	23143
859.795	23315
859.928	23250
860.061	23326
860.194	23463
860.327	23227
860.46	23231
860.592	23395
860.725	23337
860.858	23414
860.99	23246
861.123	23227
861.256	23212
861.388	23261
861.521	23882
861.653	23155
861.786	22957
861.918	22965
862.05	23162
862.183	23117
862.315	23094
862.447	23185
862.58	23029
862.712	22991
862.844	22839
862.976	23071
863.108	23037
863.24	23406
863.372	22908
863.504	22927
863.636	22908
863.768	22892
863.9	22972
864.032	22850
864.164	22854
864.296	22923
864.428	23018
864.559	22854
864.691	23041
864.823	22953
864.954	22942
865.086	22927
865.217	22816
865.349	22710
865.48	22771
865.612	22675
865.743	22805
865.875	22790
866.006	22740
866.137	22763
866.269	22790
866.4	22778
866.531	22710
866.662	22641
866.793	22649
866.924	22656
867.055	22869
867.186	22713
867.317	22660
867.448	22603
867.579	22691
867.71	22611
867.841	22550
867.972	22694
868.103	22683
868.233	22717
868.364	22679
868.495	22877
868.625	22801
868.756	22972
868.886	22919
869.017	22961
869.147	23102
869.278	23052
869.408	22911
869.539	22858
869.669	23044
869.799	23003
869.929	23102
870.06	23056
870.19	23414
870.32	23212
870.45	23318
870.58	23356
870.71	23463
870.84	23474
870.97	23387
871.1	23242
871.23	23448
871.36	23486
871.489	23387
871.619	23611
871.749	23459
871.879	23581
872.008	23703
872.138	23490
872.267	23634
872.397	23551
872.526	23315
872.656	23349
872.785	23337
872.915	23619
873.044	23665
873.173	23608
873.303	23566
873.432	23604
873.561	23600
873.69	23665
873.819	23551
873.948	23760
874.077	23577
874.206	23501
874.335	23543
874.464	23695
874.593	23805
874.722	23661
874.851	23687
874.979	23798
875.108	23821
875.237	23653
875.365	23604
875.494	23638
875.623	23638
875.751	23805
875.88	23897
876.008	23901
876.136	23908
876.265	24194
876.393	24232
876.521	24216
876.65	24182
876.778	24076
876.906	24060
877.034	24144
877.162	24144
877.29	24034
877.418	24110
877.546	24041
877.674	24083
877.802	24201
877.93	24136
878.058	23965
878.185	24034
878.313	23904
878.441	24018
878.568	23889
878.696	23961
878.824	24106
878.951	24022
879.079	24311
879.206	24300
879.333	24110
879.461	24030
879.588	24194
879.715	24155
879.842	24334
879.97	24285
880.097	23874
880.224	23927
880.351	23916
880.478	23958
880.605	23882
880.732	24011
880.859	24197
880.986	23885
881.112	23980
881.239	23767
881.366	23623
881.493	23512
881.619	23531
881.746	23490
881.872	23429
881.999	23372
882.125	23360
882.252	23505
882.378	23337
882.505	23425
882.631	23155
882.757	23174
882.883	23166
883.01	23124
883.136	23143
883.262	22976
883.388	22896
883.514	23128
883.64	23132
883.766	23006
883.892	22816
884.018	23037
884.143	23044
884.269	23014
884.395	22877
884.52	22607
884.646	22668
884.772	22675
884.897	22649
885.023	22694
885.148	22744
885.274	22782
885.399	22778
885.524	22797
885.65	22866
885.775	22710
885.9	22668
886.025	22919
886.15	22752
886.275	22702
886.4	22710
886.525	22675
886.65	22664
886.775	22698
886.9	22717
887.025	22843
887.149	22786
887.274	22481
887.399	22428
887.523	22512
887.648	22455
887.773	22432
887.897	22656
888.021	22485
888.146	22436
888.27	22634
888.395	22554
888.519	22569
888.643	22474
888.767	22523
888.891	22268
889.015	22223
889.139	22421
889.263	22268
889.387	22443
889.511	22390
889.635	22356
889.759	22257
889.883	22379
890.006	22223
890.13	22280
890.254	22162
890.377	22112
890.501	22036
890.624	21915
890.748	21991
890.871	21953
890.995	21804
891.118	21759
891.241	21819
891.364	21937
891.488	21972
891.611	21861
891.734	21778
891.857	21884
891.98	21918
892.103	21789
892.226	21922
892.349	21804
892.471	21633
892.594	21728
892.717	21819
892.839	21561
892.962	21724
893.085	21618
893.207	21751
893.33	21488
893.452	21648
893.575	21857
893.697	21580
893.819	21793
893.941	21850
894.064	21819
894.186	21492
894.308	21679
894.43	21709
894.552	21823
894.674	21682
894.796	21466
894.918	21648
895.04	21580
895.161	21755
895.283	21553
895.405	21534
895.526	21690
895.648	21587
895.769	21648
895.891	21675
896.012	21755
896.134	21781
896.255	21637
896.376	21587
896.498	21633
896.619	21576
896.74	21728
896.861	21778
896.982	22086
897.103	22017
897.224	21850
897.345	21915
897.466	21789
897.587	21850
897.708	22097
897.828	21930
897.949	21739
898.07	21682
898.19	21728
898.311	21823
898.431	21732
898.552	21736
898.672	21873
898.792	21884
898.913	21812
899.033	21698
899.153	21656
899.273	21462
899.393	21568
899.513	21603
899.633	21523
899.753	21625
899.873	21507
899.993	21515
900.113	21469
900.232	21622
900.352	21359
900.472	21252
900.591	21233
900.711	21245
900.83	21313
900.95	21473
901.069	21325
901.189	21131
901.308	20933
901.427	20785
901.546	20899
901.665	20952
901.784	20899
901.904	20735
902.023	20667
902.141	20541
902.26	20374
902.379	20412
902.498	20400
902.617	20393
902.735	20366
902.854	20298
902.973	20343
903.091	20145
903.21	19955
903.328	20046
903.446	19967
903.565	19799
903.683	19837
903.801	19727
903.919	19712
904.038	19719
904.156	19632
904.274	19715
904.392	19460
904.51	19613
904.627	19578
904.745	19712
904.863	19582
904.981	19312
905.098	19396
905.216	19274
905.334	19396
905.451	19293
905.569	19133
905.686	19266
905.803	19221
905.921	19023
906.038	19095
906.155	19088
906.272	18954
906.389	18882
906.506	18711
906.623	18757
906.74	18661
906.857	18692
906.974	18661
907.091	18840
907.208	18825
907.324	18749
907.441	18673
907.557	18604
907.674	18490
907.79	18414
907.907	18429
908.023	18479
908.139	18429
908.256	18388
908.372	18361
908.488	18369
908.604	18178
908.72	18190
908.836	18133
908.952	18140
909.068	18213
909.184	18323
909.3	18152
909.415	18273
909.531	18159
909.647	17988
909.762	17996
909.878	17813
909.993	17935
910.108	17779
910.224	17790
910.339	17824
910.454	17695
910.57	17551
910.685	17551
910.8	17843
910.915	17737
911.03	17585
911.145	17539
911.259	17463
911.374	17311
911.489	17398
911.604	17330
911.718	17113
911.833	17212
911.947	17079
912.062	17086
912.176	17121
912.291	17159
912.405	17113
912.519	17383
912.633	17334
912.748	17200
912.862	17208
912.976	17037
913.09	16908
913.204	16972
913.318	16946
913.431	16984
913.545	17121
913.659	17033
913.772	16854
913.886	16889
914	16713
914.113	16881
914.226	16847
914.34	16797
914.453	16679
914.566	16755
914.68	16615
914.793	16721
914.906	16348
915.019	16306
915.132	16333
915.245	16268
915.358	16238
915.47	16348
915.583	16417
915.696	16272
915.809	16356
915.921	16375
916.034	16348
916.146	16169
916.259	16196
916.371	16261
916.483	16405
916.595	16120
916.708	16101
916.82	16135
916.932	15998
917.044	15930
917.156	16173
917.268	15953
917.38	15998
917.491	15873
917.603	15907
917.715	16006
917.826	16124
917.938	15812
918.049	15781
918.161	15888
918.272	15903
918.384	15979
918.495	15785
918.606	15724
918.717	15526
918.828	15743
918.939	15694
919.05	15618
919.161	15660
919.272	15439
919.383	15492
919.494	15709
919.604	15880
919.715	15682
919.826	15576
919.936	15523
920.047	15656
920.157	15622
920.267	15774
920.378	15564
920.488	15561
920.598	15789
920.708	15918
920.818	15785
920.928	15701
921.038	15873
921.148	15800
921.258	15580
921.368	15492
921.477	15447
921.587	15260
921.697	15169
921.806	15386
921.916	15135
922.025	14982
922.134	15066
922.244	14861
922.353	14929
922.462	14727
922.571	14674
922.68	14495
922.789	14530
922.898	14522
923.007	14480
923.116	14492
923.224	14530
923.333	14571
923.442	14480
923.55	14362
923.659	14442
923.767	14488
923.876	14389
923.984	14431
924.092	14237
924.201	14393
924.309	14374
924.417	14366
924.525	14176
924.633	14195
924.741	14948
924.849	14100
924.956	14096
925.064	13974
925.172	13909
925.279	13963
925.387	13913
925.494	13898
925.602	14157
925.709	13993
925.816	13803
925.924	13860
926.031	13955
926.138	13818
926.245	13837
926.352	13731
926.459	13803
926.566	13909
926.673	13837
926.779	13708
926.886	13651
926.993	13430
927.099	13502
927.206	13426
927.312	13419
927.419	13491
927.525	13464
927.631	13438
927.737	13297
927.843	13331
927.95	13152
928.056	13297
928.162	13221
928.267	13365
928.373	13921
928.479	13282
928.585	13107
928.69	13240
928.796	13236
928.901	13023
929.007	12981
929.112	13145
929.218	13000
929.323	13015
929.428	12985
929.533	13038
929.638	12863
929.743	12924
929.848	12878
929.953	12897
930.058	12806
930.163	12681
930.267	12563
930.372	12890
930.477	12536
930.581	12741
930.685	12593
930.79	12525
930.894	12517
930.998	12490
931.103	12631
931.207	12262
931.311	12228
931.415	12076
931.519	11889
931.623	11882
