Data from test_V78500241_364.txt Node
Date: Fri Mar 25 15:44:19 CST 2022
User: usil
Spectrometer: V785-0024
Trigger mode: 0
Integration Time (sec): 4.000000E-1
Scans to average: 1
Nonlinearity correction enabled: false
Boxcar width: 0
Storing dark spectrum: false
XAxis mode: Wavelengths
Number of Pixels in Spectrum: 1024
>>>>>Begin Spectral Data<<<<<
801.071	29714
801.214	29760
801.356	29653
801.499	29653
801.641	29417
801.783	29547
801.926	29600
802.068	29490
802.211	29421
802.353	29318
802.496	29143
802.638	29094
802.78	29075
802.923	29105
803.065	28915
803.208	29029
803.35	29178
803.492	29067
803.635	29277
803.777	29147
803.919	29372
804.061	29566
804.204	29322
804.346	29318
804.488	29239
804.63	29425
804.773	29307
804.915	29280
805.057	29448
805.199	29391
805.341	29330
805.483	29615
805.626	29395
805.768	29284
805.91	29402
806.052	29398
806.194	29330
806.336	29722
806.478	29531
806.62	29398
806.762	29581
806.904	29741
807.046	30152
807.188	30053
807.33	30060
807.472	29874
807.614	29748
807.756	29870
807.898	29752
808.04	29847
808.182	29687
808.324	29832
808.465	29729
808.607	29965
808.749	30068
808.891	30232
809.033	30357
809.174	30197
809.316	30064
809.458	30167
809.6	30194
809.741	30349
809.883	30292
810.025	30372
810.166	30369
810.308	30403
810.45	30361
810.591	30403
810.733	30251
810.875	30117
811.016	30053
811.158	30159
811.299	30262
811.441	30285
811.582	30296
811.724	30152
811.865	29980
812.007	30136
812.148	30228
812.29	30171
812.431	30292
812.573	30395
812.714	30399
812.855	30810
812.997	30905
813.138	30791
813.279	30741
813.421	30703
813.562	30597
813.703	30650
813.845	30448
813.986	30182
814.127	29908
814.268	29821
814.41	29874
814.551	29821
814.692	29958
814.833	29783
814.974	29828
815.115	29840
815.256	29695
815.397	29699
815.539	29615
815.68	29558
815.821	29516
815.962	29467
816.103	29436
816.244	29577
816.385	29292
816.526	29349
816.666	29124
816.807	29197
816.948	29193
817.089	29105
817.23	29124
817.371	29105
817.512	29041
817.653	29010
817.793	29014
817.934	29128
818.075	29159
818.216	29132
818.356	28999
818.497	28778
818.638	28740
818.778	28786
818.919	28888
819.06	28828
819.2	28809
819.341	29018
819.481	28984
819.622	29033
819.762	29322
819.903	29254
820.043	29353
820.184	29223
820.324	29151
820.465	29315
820.605	29003
820.746	29048
820.886	29048
821.026	29200
821.167	29086
821.307	29136
821.447	29018
821.588	29018
821.728	28790
821.868	28653
822.008	28557
822.149	28519
822.289	28436
822.429	28226
822.569	28135
822.709	28329
822.849	27907
822.99	27975
823.13	27911
823.27	27884
823.41	27736
823.55	27694
823.69	27747
823.83	27759
823.97	27736
824.11	27587
824.25	27561
824.389	27629
824.529	27591
824.669	27603
824.809	27671
824.949	27766
825.089	27698
825.228	27698
825.368	27545
825.508	27500
825.648	27545
825.787	27500
825.927	27454
826.067	27344
826.206	27450
826.346	27466
826.485	27538
826.625	27416
826.765	27408
826.904	27462
827.044	27211
827.183	27165
827.323	27180
827.462	27089
827.601	27100
827.741	26876
827.88	27135
828.02	27001
828.159	27131
828.298	27188
828.437	27062
828.577	27051
828.716	27268
828.855	27055
828.994	26682
829.134	26724
829.273	26857
829.412	26849
829.551	26708
829.69	26750
829.829	26845
829.968	26727
830.107	26864
830.246	26750
830.385	26712
830.524	26720
830.663	26415
830.802	26514
830.941	26446
831.08	26259
831.219	26351
831.357	26488
831.496	26602
831.635	26366
831.774	26301
831.913	26142
832.051	26183
832.19	26168
832.329	26214
832.467	26020
832.606	25974
832.744	25887
832.883	25978
833.022	25947
833.16	25887
833.299	25932
833.437	25982
833.576	26122
833.714	26012
833.852	26214
833.991	26084
834.129	26199
834.267	26077
834.406	26153
834.544	26005
834.682	26115
834.821	26039
834.959	26035
835.097	25940
835.235	26012
835.373	25833
835.511	26016
835.65	25845
835.788	25883
835.926	25670
836.064	25670
836.202	25635
836.34	25818
836.478	25780
836.615	25761
836.753	25902
836.891	25883
837.029	25890
837.167	25761
837.305	25666
837.443	25696
837.58	25666
837.718	25841
837.856	25753
837.993	25666
838.131	25677
838.269	25468
838.406	25548
838.544	25362
838.681	25202
838.819	25221
838.956	24985
839.094	25137
839.231	25133
839.369	25209
839.506	25441
839.643	25293
839.781	24996
839.918	24913
840.055	24977
840.193	24951
840.33	24989
840.467	25000
840.604	24951
840.742	25301
840.879	24848
841.016	24795
841.153	24821
841.29	25023
841.427	24943
841.564	25008
841.701	24989
841.838	24924
841.975	24867
842.112	24878
842.249	24787
842.385	24768
842.522	25015
842.659	24837
842.796	24635
842.933	24783
843.069	24627
843.206	24711
843.343	24821
843.479	24642
843.616	24578
843.752	24486
843.889	24555
844.025	24521
844.162	24315
844.298	24452
844.435	24311
844.571	24464
844.708	24445
844.844	24467
844.98	24593
845.117	24513
845.253	24441
845.389	24292
845.525	24300
845.661	24197
845.798	24064
845.934	24277
846.07	24106
846.206	24129
846.342	24205
846.478	24045
846.614	23939
846.75	23851
846.886	23741
847.022	24049
847.158	23878
847.294	23783
847.429	23912
847.565	23805
847.701	23988
847.837	23558
847.972	23509
848.108	23577
848.244	23805
848.379	23395
848.515	23398
848.65	23410
848.786	23459
848.921	23311
849.057	23463
849.192	23478
849.328	23554
849.463	23414
849.598	23307
849.734	23326
849.869	23288
850.004	23170
850.14	23079
850.275	23155
850.41	23014
850.545	23075
850.68	23022
850.815	23162
850.95	23147
851.085	23292
851.22	23239
851.355	23162
851.49	23140
851.625	23121
851.76	23083
851.895	23056
852.03	23033
852.165	23086
852.299	23227
852.434	23216
852.569	23143
852.703	23216
852.838	23113
852.973	23288
853.107	23227
853.242	23079
853.376	22930
853.511	22824
853.645	22869
853.78	22995
853.914	22919
854.048	23033
854.183	22938
854.317	22938
854.451	23189
854.585	22843
854.72	22885
854.854	23102
854.988	22824
855.122	22908
855.256	22733
855.39	22858
855.524	22995
855.658	22938
855.792	22873
855.926	22930
856.06	23029
856.194	23018
856.327	22961
856.461	22896
856.595	22999
856.729	22930
856.862	22957
856.996	22847
857.13	23037
857.263	23067
857.397	23025
857.53	22911
857.664	22968
857.797	22949
857.931	23064
858.064	22889
858.197	23060
858.331	22805
858.464	22805
858.597	22889
858.731	22797
858.864	22649
858.997	22862
859.13	22820
859.263	22881
859.396	22915
859.529	22812
859.662	22885
859.795	22713
859.928	22877
860.061	22976
860.194	23018
860.327	22965
860.46	22782
860.592	23025
860.725	23006
860.858	22987
860.99	22987
861.123	22850
861.256	22774
861.388	22972
861.521	23505
861.653	22812
861.786	22523
861.918	22615
862.05	22850
862.183	22816
862.315	22824
862.447	22809
862.58	22771
862.712	22603
862.844	22641
862.976	22755
863.108	22683
863.24	22934
863.372	22459
863.504	22561
863.636	22554
863.768	22519
863.9	22694
864.032	22428
864.164	22580
864.296	22630
864.428	22596
864.559	22683
864.691	22710
864.823	22573
864.954	22577
865.086	22478
865.217	22379
865.349	22329
865.48	22462
865.612	22504
865.743	22436
865.875	22557
866.006	22341
866.137	22459
866.269	22459
866.4	22325
866.531	22246
866.662	22306
866.793	22291
866.924	22462
867.055	22402
867.186	22306
867.317	22367
867.448	22249
867.579	22360
867.71	22287
867.841	22253
867.972	22287
868.103	22360
868.233	22325
868.364	22417
868.495	22459
868.625	22531
868.756	22721
868.886	22615
869.017	22489
869.147	22554
869.278	22538
869.408	22634
869.539	22634
869.669	22634
869.799	22626
869.929	22653
870.06	22611
870.19	22850
870.32	22801
870.45	23052
870.58	22949
870.71	23094
870.84	23140
870.97	22923
871.1	23048
871.23	23109
871.36	23204
871.489	23098
871.619	23140
871.749	23075
871.879	23220
872.008	23265
872.138	23155
872.267	23242
872.397	22934
872.526	22919
872.656	23006
872.785	23052
872.915	23140
873.044	23292
873.173	23208
873.303	23269
873.432	23193
873.561	23250
873.69	23246
873.819	23200
873.948	23292
874.077	23181
874.206	23140
874.335	23250
874.464	23311
874.593	23334
874.722	23334
874.851	23436
874.979	23463
875.108	23535
875.237	23391
875.365	23280
875.494	23288
875.623	23334
875.751	23383
875.88	23364
876.008	23535
876.136	23668
876.265	23920
876.393	23920
876.521	23855
876.65	23882
876.778	23745
876.906	23737
877.034	23718
877.162	23733
877.29	23718
877.418	23821
877.546	23855
877.674	23745
877.802	23680
877.93	23634
878.058	23649
878.185	23570
878.313	23668
878.441	23737
878.568	23562
878.696	23608
878.824	23653
878.951	23908
879.079	23889
879.206	23866
879.333	23771
879.461	23756
879.588	23828
879.715	23969
879.842	24026
879.97	23695
880.097	23478
880.224	23452
880.351	23539
880.478	23604
880.605	23425
880.732	23581
880.859	23760
880.986	23653
881.112	23608
881.239	23356
881.366	23341
881.493	23220
881.619	23200
881.746	23185
881.872	22980
881.999	23075
882.125	23102
882.252	23094
882.378	23189
882.505	23246
882.631	22968
882.757	22904
882.883	22824
883.01	22812
883.136	22752
883.262	22687
883.388	22691
883.514	22755
883.64	22831
883.766	22668
883.892	22607
884.018	22523
884.143	22748
884.269	22786
884.395	22573
884.52	22436
884.646	22436
884.772	22386
884.897	22287
885.023	22337
885.148	22557
885.274	22584
885.399	22470
885.524	22462
885.65	22455
885.775	22497
885.9	22436
886.025	22588
886.15	22424
886.275	22390
886.4	22337
886.525	22440
886.65	22249
886.775	22303
886.9	22436
887.025	22672
887.149	22310
887.274	22200
887.399	22207
887.523	22154
887.648	22200
887.773	22128
887.897	22166
888.021	22147
888.146	22101
888.27	22310
888.395	22188
888.519	22150
888.643	22200
888.767	22150
888.891	21964
889.015	21895
889.139	21953
889.263	21922
889.387	21907
889.511	22112
889.635	21972
889.759	21903
889.883	21819
890.006	21797
890.13	21953
890.254	21819
890.377	21915
890.501	21553
890.624	21625
890.748	21736
890.871	21542
890.995	21595
891.118	21523
891.241	21443
891.364	21393
891.488	21545
891.611	21340
891.734	21466
891.857	21496
891.98	21435
892.103	21568
892.226	21492
892.349	21504
892.471	21313
892.594	21351
892.717	21424
892.839	21283
892.962	21435
893.085	21466
893.207	21401
893.33	21313
893.452	21332
893.575	21473
893.697	21405
893.819	21416
893.941	21428
894.064	21275
894.186	21370
894.308	21218
894.43	21488
894.552	21553
894.674	21454
894.796	21226
894.918	21294
895.04	21275
895.161	21462
895.283	21477
895.405	21237
895.526	21245
895.648	21306
895.769	21306
895.891	21462
896.012	21424
896.134	21306
896.255	21348
896.376	21272
896.498	21256
896.619	21424
896.74	21291
896.861	21412
896.982	21739
897.103	21816
897.224	21564
897.345	21614
897.466	21488
897.587	21435
897.708	21629
897.828	21534
897.949	21496
898.07	21389
898.19	21450
898.311	21595
898.431	21511
898.552	21500
898.672	21553
898.792	21545
898.913	21408
899.033	21378
899.153	21287
899.273	21226
899.393	21214
899.513	21275
899.633	21146
899.753	21188
899.873	21127
899.993	21260
900.113	21066
900.232	21192
900.352	21100
900.472	20967
900.591	20918
900.711	21081
900.83	20998
900.95	21161
901.069	21055
901.189	20773
901.308	20670
901.427	20522
901.546	20503
901.665	20667
901.784	20495
901.904	20355
902.023	20484
902.141	20149
902.26	20157
902.379	20069
902.498	20142
902.617	20084
902.735	20119
902.854	19982
902.973	20035
903.091	19841
903.21	19784
903.328	19719
903.446	19582
903.565	19472
903.683	19491
903.801	19430
903.919	19445
904.038	19377
904.156	19304
904.274	19396
904.392	19316
904.51	19228
904.627	19221
904.745	19251
904.863	19308
904.981	19084
905.098	18924
905.216	18928
905.334	19015
905.451	18871
905.569	18894
905.686	18970
905.803	18977
905.921	18730
906.038	18798
906.155	18696
906.272	18585
906.389	18559
906.506	18506
906.623	18418
906.74	18441
906.857	18304
906.974	18338
907.091	18418
907.208	18532
907.324	18448
907.441	18357
907.557	18091
907.674	18155
907.79	18129
907.907	18083
908.023	18053
908.139	17980
908.256	18129
908.372	18049
908.488	17901
908.604	17897
908.72	17878
908.836	17817
908.952	17851
909.068	17904
909.184	17824
909.3	17790
909.415	17840
909.531	17885
909.647	17520
909.762	17524
909.878	17448
909.993	17551
910.108	17532
910.224	17497
910.339	17509
910.454	17471
910.57	17337
910.685	17181
910.8	17463
910.915	17467
911.03	17170
911.145	17200
911.259	17128
911.374	16984
911.489	17041
911.604	16889
911.718	16892
911.833	16915
911.947	16683
912.062	16626
912.176	16748
912.291	16835
912.405	16786
912.519	16930
912.633	17014
912.748	16729
912.862	16778
912.976	16558
913.09	16519
913.204	16565
913.318	16653
913.431	16660
913.545	16664
913.659	16660
913.772	16554
913.886	16489
914	16421
914.113	16508
914.226	16459
914.34	16474
914.453	16276
914.566	16466
914.68	16158
914.793	16196
914.906	16040
915.019	16082
915.132	15979
915.245	15937
915.358	16074
915.47	16059
915.583	15934
915.696	15994
915.809	16032
915.921	16181
916.034	15835
916.146	15797
916.259	15911
916.371	15956
916.483	15861
916.595	15717
916.708	15793
916.82	15884
916.932	15793
917.044	15751
917.156	15724
917.268	15595
917.38	15622
917.491	15576
917.603	15557
917.715	15682
917.826	15675
917.938	15500
918.049	15466
918.161	15545
918.272	15663
918.384	15633
918.495	15492
918.606	15332
918.717	15348
918.828	15401
918.939	15214
919.05	15245
919.161	15268
919.272	15013
919.383	15176
919.494	15351
919.604	15561
919.715	15207
919.826	15176
919.936	15207
920.047	15317
920.157	15214
920.267	15424
920.378	15291
920.488	15169
920.598	15450
920.708	15462
920.818	15386
920.928	15367
921.038	15557
921.148	15504
921.258	15245
921.368	15135
921.477	14914
921.587	14834
921.697	14857
921.806	14883
921.916	14845
922.025	14670
922.134	14541
922.244	14594
922.353	14568
922.462	14503
922.571	14438
922.68	14381
922.789	14199
922.898	14145
923.007	14069
923.116	14256
923.224	14206
923.333	14233
923.442	14077
923.55	14016
923.659	14031
923.767	14161
923.876	14073
923.984	14054
924.092	13947
924.201	13936
924.309	13887
924.417	14001
924.525	13875
924.633	13860
924.741	14648
924.849	13727
924.956	13814
925.064	13677
925.172	13529
925.279	13594
925.387	13601
925.494	13594
925.602	13700
925.709	13594
925.816	13578
925.924	13552
926.031	13613
926.138	13514
926.245	13476
926.352	13434
926.459	13590
926.566	13609
926.673	13449
926.779	13327
926.886	13354
926.993	13198
927.099	13126
927.206	13050
927.312	13050
927.419	13171
927.525	13129
927.631	13171
927.737	12973
927.843	12939
927.95	12897
928.056	12935
928.162	12890
928.267	12958
928.373	13567
928.479	13034
928.585	12814
928.69	12920
928.796	12943
928.901	12856
929.007	12601
929.112	12791
929.218	12760
929.323	12677
929.428	12593
929.533	12772
929.638	12585
929.743	12547
929.848	12662
929.953	12570
930.058	12441
930.163	12342
930.267	12319
930.372	12384
930.477	12251
930.581	12536
930.685	12350
930.79	12266
930.894	12216
930.998	12102
931.103	12308
931.207	11889
931.311	11843
931.415	11714
931.519	11581
931.623	11490
