Data from test_V78500241_2800.txt Node
Date: Fri Mar 25 16:01:11 CST 2022
User: usil
Spectrometer: V785-0024
Trigger mode: 0
Integration Time (sec): 4.000000E-1
Scans to average: 1
Nonlinearity correction enabled: false
Boxcar width: 0
Storing dark spectrum: false
XAxis mode: Wavelengths
Number of Pixels in Spectrum: 1024
>>>>>Begin Spectral Data<<<<<
801.071	28877
801.214	29003
801.356	28729
801.499	28584
801.641	28634
801.783	28535
801.926	28569
802.068	28672
802.211	28424
802.353	28409
802.496	28211
802.638	28223
802.78	28211
802.923	28105
803.065	28112
803.208	28135
803.35	28246
803.492	28341
803.635	28375
803.777	28386
803.919	28493
804.061	28782
804.204	28424
804.346	28348
804.488	28299
804.63	28398
804.773	28409
804.915	28672
805.057	28645
805.199	28637
805.341	28580
805.483	28736
805.626	28763
805.768	28565
805.91	28729
806.052	28641
806.194	28672
806.336	28873
806.478	28778
806.62	28721
806.762	28881
806.904	28923
807.046	29181
807.188	29117
807.33	29166
807.472	29166
807.614	29033
807.756	29075
807.898	28938
808.04	28839
808.182	28908
808.324	29022
808.465	28976
808.607	29185
808.749	29372
808.891	29501
809.033	29528
809.174	29398
809.316	29379
809.458	29387
809.6	29364
809.741	29490
809.883	29531
810.025	29646
810.166	29577
810.308	29630
810.45	29592
810.591	29497
810.733	29417
810.875	29387
811.016	29280
811.158	29216
811.299	29398
811.441	29497
811.582	29543
811.724	29486
811.865	29299
812.007	29356
812.148	29303
812.29	29356
812.431	29691
812.573	29821
812.714	29783
812.855	29866
812.997	29904
813.138	30311
813.279	30015
813.421	29828
813.562	29779
813.703	29649
813.845	29619
813.986	29387
814.127	29254
814.268	29132
814.41	29162
814.551	29025
814.692	29113
814.833	29204
814.974	29079
815.115	29094
815.256	28991
815.397	28942
815.539	28908
815.68	28900
815.821	28793
815.962	28919
816.103	28946
816.244	28778
816.385	28516
816.526	28649
816.666	28535
816.807	28310
816.948	28470
817.089	28607
817.23	28360
817.371	28500
817.512	28310
817.653	28306
817.793	28280
817.934	28382
818.075	28443
818.216	28333
818.356	28424
818.497	28322
818.638	28135
818.778	28192
818.919	28116
819.06	28306
819.2	28253
819.341	28440
819.481	28386
819.622	28622
819.762	28679
819.903	28721
820.043	28744
820.184	28706
820.324	28512
820.465	28592
820.605	28481
820.746	28550
820.886	28443
821.026	28504
821.167	28500
821.307	28668
821.447	28424
821.588	28253
821.728	28333
821.868	27994
822.008	28025
822.149	27907
822.289	27724
822.429	27561
822.569	27629
822.709	27397
822.849	27393
822.99	27336
823.13	27466
823.27	27458
823.41	27245
823.55	27150
823.69	27256
823.83	27131
823.97	27222
824.11	26944
824.25	26944
824.389	26963
824.529	27047
824.669	27070
824.809	27283
824.949	27154
825.089	27157
825.228	27051
825.368	26864
825.508	26819
825.648	27001
825.787	27036
825.927	27024
826.067	26910
826.206	26971
826.346	27085
826.485	26971
826.625	27039
826.765	27039
826.904	27032
827.044	26750
827.183	26845
827.323	26788
827.462	26804
827.601	26648
827.741	26678
827.88	26651
828.02	26514
828.159	26655
828.298	26613
828.437	26686
828.577	26613
828.716	26739
828.855	26495
828.994	26271
829.134	26476
829.273	26473
829.412	26339
829.551	26320
829.69	26347
829.829	26381
829.968	26305
830.107	26396
830.246	26317
830.385	26351
830.524	26199
830.663	26320
830.802	26092
830.941	26035
831.08	26024
831.219	26027
831.357	26012
831.496	26237
831.635	26035
831.774	25837
831.913	25803
832.051	25674
832.19	25651
832.329	25738
832.467	25620
832.606	25647
832.744	25594
832.883	25575
833.022	25689
833.16	25601
833.299	25571
833.437	25700
833.576	25750
833.714	25734
833.852	25833
833.991	25727
834.129	25788
834.267	25689
834.406	25780
834.544	25772
834.682	25681
834.821	25624
834.959	25875
835.097	25677
835.235	25715
835.373	25624
835.511	25746
835.65	25449
835.788	25544
835.926	25472
836.064	25316
836.202	25365
836.34	25320
836.478	25552
836.615	25441
836.753	25438
836.891	25658
837.029	25453
837.167	25350
837.305	25430
837.443	25407
837.58	25373
837.718	25411
837.856	25373
837.993	25194
838.131	25350
838.269	25148
838.406	25179
838.544	25137
838.681	25050
838.819	25084
838.956	24833
839.094	24821
839.231	24890
839.369	24954
839.506	25304
839.643	25034
839.781	24859
839.918	24890
840.055	24787
840.193	24730
840.33	24597
840.467	24654
840.604	24844
840.742	25015
840.879	24646
841.016	24509
841.153	24578
841.29	24814
841.427	24726
841.564	24654
841.701	24715
841.838	24661
841.975	24559
842.112	24654
842.249	24505
842.385	24498
842.522	24661
842.659	24433
842.796	24475
842.933	24452
843.069	24410
843.206	24448
843.343	24399
843.479	24479
843.616	24448
843.752	24239
843.889	24315
844.025	24346
844.162	24220
844.298	24292
844.435	24190
844.571	24174
844.708	24171
844.844	24536
844.98	24357
845.117	24300
845.253	24182
845.389	24060
845.525	24068
845.661	23961
845.798	24030
845.934	23988
846.07	23885
846.206	23996
846.342	24068
846.478	23942
846.614	23748
846.75	23600
846.886	23665
847.022	23859
847.158	23794
847.294	23718
847.429	23661
847.565	23630
847.701	23859
847.837	23425
847.972	23341
848.108	23318
848.244	23490
848.379	23330
848.515	23311
848.65	23174
848.786	23326
848.921	23277
849.057	23398
849.192	23433
849.328	23353
849.463	23227
849.598	23296
849.734	23105
849.869	23014
850.004	23044
850.14	23033
850.275	22965
850.41	22908
850.545	22976
850.68	22976
850.815	23022
850.95	23197
851.085	23159
851.22	23090
851.355	22858
851.49	22991
851.625	22987
851.76	23003
851.895	22805
852.03	23056
852.165	23048
852.299	23060
852.434	23071
852.569	23014
852.703	23029
852.838	23117
852.973	23170
853.107	22995
853.242	23003
853.376	22843
853.511	22774
853.645	22900
853.78	22904
853.914	22854
854.048	22725
854.183	22816
854.317	22908
854.451	23010
854.585	22873
854.72	22816
854.854	22908
854.988	22748
855.122	22869
855.256	22672
855.39	22805
855.524	22930
855.658	22869
855.792	22782
855.926	22885
856.06	22824
856.194	22930
856.327	22881
856.461	22683
856.595	22812
856.729	22824
856.862	22900
856.996	22866
857.13	22816
857.263	22892
857.397	23071
857.53	22908
857.664	22908
857.797	22995
857.931	22927
858.064	22854
858.197	22972
858.331	22831
858.464	22927
858.597	22740
858.731	22908
858.864	22778
858.997	22744
859.13	22812
859.263	22812
859.396	23010
859.529	22828
859.662	22869
859.795	22873
859.928	22752
860.061	22965
860.194	23098
860.327	22919
860.46	22873
860.592	22942
860.725	23041
860.858	22904
860.99	22938
861.123	22911
861.256	22740
861.388	22869
861.521	23573
861.653	22649
861.786	22615
861.918	22790
862.05	22839
862.183	22622
862.315	22755
862.447	22816
862.58	22717
862.712	22565
862.844	22447
862.976	22599
863.108	22508
863.24	22908
863.372	22470
863.504	22596
863.636	22535
863.768	22596
863.9	22497
864.032	22584
864.164	22546
864.296	22634
864.428	22573
864.559	22592
864.691	22497
864.823	22580
864.954	22470
865.086	22531
865.217	22424
865.349	22295
865.48	22413
865.612	22363
865.743	22580
865.875	22497
866.006	22333
866.137	22489
866.269	22493
866.4	22394
866.531	22344
866.662	22325
866.793	22272
866.924	22295
867.055	22375
867.186	22500
867.317	22382
867.448	22291
867.579	22280
867.71	22272
867.841	22207
867.972	22196
868.103	22242
868.233	22417
868.364	22215
868.495	22500
868.625	22508
868.756	22653
868.886	22470
869.017	22538
869.147	22755
869.278	22698
869.408	22516
869.539	22584
869.669	22778
869.799	22603
869.929	22721
870.06	22691
870.19	22858
870.32	22949
870.45	22869
870.58	22972
870.71	23090
870.84	23086
870.97	22961
871.1	23166
871.23	23124
871.36	23239
871.489	23079
871.619	23124
871.749	23231
871.879	23284
872.008	23372
872.138	23250
872.267	23204
872.397	23037
872.526	23075
872.656	23052
872.785	22957
872.915	23109
873.044	23376
873.173	23121
873.303	23216
873.432	23170
873.561	23166
873.69	23162
873.819	23109
873.948	23261
874.077	23223
874.206	23235
874.335	23326
874.464	23478
874.593	23459
874.722	23383
874.851	23448
874.979	23360
875.108	23482
875.237	23360
875.365	23334
875.494	23433
875.623	23455
875.751	23372
875.88	23440
876.008	23592
876.136	23668
876.265	23893
876.393	23992
876.521	23885
876.65	23908
876.778	23779
876.906	23855
877.034	23718
877.162	23779
877.29	23786
877.418	23699
877.546	23790
877.674	23843
877.802	23718
877.93	23790
878.058	23741
878.185	23676
878.313	23638
878.441	23680
878.568	23547
878.696	23703
878.824	23752
878.951	23882
879.079	23893
879.206	23973
879.333	23878
879.461	23889
879.588	23764
879.715	23908
879.842	24072
879.97	23901
880.097	23680
880.224	23661
880.351	23634
880.478	23619
880.605	23535
880.732	23581
880.859	23764
880.986	23615
881.112	23615
881.239	23497
881.366	23330
881.493	23239
881.619	23124
881.746	23189
881.872	23128
881.999	23090
882.125	22995
882.252	23094
882.378	23075
882.505	23246
882.631	22957
882.757	22843
882.883	22908
883.01	22797
883.136	22717
883.262	22626
883.388	22706
883.514	22847
883.64	22706
883.766	22733
883.892	22596
884.018	22531
884.143	22778
884.269	22771
884.395	22580
884.52	22470
884.646	22500
884.772	22352
884.897	22303
885.023	22428
885.148	22421
885.274	22603
885.399	22542
885.524	22577
885.65	22382
885.775	22394
885.9	22280
886.025	22462
886.15	22447
886.275	22424
886.4	22276
886.525	22386
886.65	22360
886.775	22188
886.9	22538
887.025	22527
887.149	22329
887.274	22181
887.399	22306
887.523	22139
887.648	22196
887.773	22109
887.897	22280
888.021	22257
888.146	22013
888.27	22177
888.395	22287
888.519	22093
888.643	22173
888.767	22318
888.891	22059
889.015	21994
889.139	22063
889.263	21979
889.387	22116
889.511	22112
889.635	21994
889.759	21964
889.883	21895
890.006	21960
890.13	21945
890.254	21926
890.377	21922
890.501	21679
890.624	21785
890.748	21686
890.871	21576
890.995	21481
891.118	21454
891.241	21496
891.364	21504
891.488	21679
891.611	21542
891.734	21511
891.857	21504
891.98	21580
892.103	21564
892.226	21580
892.349	21374
892.471	21272
892.594	21329
892.717	21428
892.839	21363
892.962	21477
893.085	21439
893.207	21473
893.33	21332
893.452	21412
893.575	21370
893.697	21298
893.819	21378
893.941	21511
894.064	21595
894.186	21420
894.308	21329
894.43	21561
894.552	21496
894.674	21355
894.796	21252
894.918	21302
895.04	21363
895.161	21488
895.283	21397
895.405	21348
895.526	21462
895.648	21401
895.769	21412
895.891	21386
896.012	21435
896.134	21412
896.255	21462
896.376	21401
896.498	21447
896.619	21389
896.74	21389
896.861	21420
896.982	21671
897.103	21827
897.224	21515
897.345	21694
897.466	21428
897.587	21606
897.708	21743
897.828	21530
897.949	21625
898.07	21443
898.19	21386
898.311	21679
898.431	21405
898.552	21614
898.672	21781
898.792	21599
898.913	21523
899.033	21393
899.153	21351
899.273	21180
899.393	21359
899.513	21317
899.633	21302
899.753	21363
899.873	21173
899.993	21241
900.113	21100
900.232	21272
900.352	21131
900.472	21245
900.591	21020
900.711	21062
900.83	20929
900.95	21112
901.069	21195
901.189	20876
901.308	20765
901.427	20625
901.546	20617
901.665	20579
901.784	20613
901.904	20492
902.023	20408
902.141	20214
902.26	20130
902.379	20240
902.498	20020
902.617	20008
902.735	20195
902.854	20062
902.973	20046
903.091	19799
903.21	19852
903.328	19670
903.446	19681
903.565	19693
903.683	19597
903.801	19472
903.919	19537
904.038	19582
904.156	19339
904.274	19327
904.392	19221
904.51	19331
904.627	19308
904.745	19350
904.863	19403
904.981	19084
905.098	18954
905.216	19069
905.334	19050
905.451	18996
905.569	18951
905.686	18989
905.803	18954
905.921	18798
906.038	18814
906.155	18833
906.272	18726
906.389	18825
906.506	18517
906.623	18574
906.74	18513
906.857	18330
906.974	18403
907.091	18479
907.208	18555
907.324	18566
907.441	18460
907.557	18239
907.674	18254
907.79	18076
907.907	18155
908.023	18285
908.139	18129
908.256	18114
908.372	18095
908.488	18152
908.604	17961
908.72	17939
908.836	17954
908.952	17878
909.068	17897
909.184	18030
909.3	17969
909.415	17946
909.531	17882
909.647	17554
909.762	17581
909.878	17589
909.993	17573
910.108	17619
910.224	17703
910.339	17486
910.454	17406
910.57	17429
910.685	17391
910.8	17589
910.915	17490
911.03	17455
911.145	17136
911.259	17181
911.374	17265
911.489	17048
911.604	17003
911.718	16824
911.833	17045
911.947	16915
912.062	16839
912.176	16991
912.291	16908
912.405	16976
912.519	17006
912.633	17117
912.748	16862
912.862	16790
912.976	16816
913.09	16691
913.204	16733
913.318	16656
913.431	16786
913.545	16873
913.659	16862
913.772	16679
913.886	16634
914	16516
914.113	16611
914.226	16596
914.34	16622
914.453	16497
914.566	16565
914.68	16417
914.793	16322
914.906	16223
915.019	16105
915.132	15937
915.245	16078
915.358	16128
915.47	16139
915.583	16036
915.696	16147
915.809	16150
915.921	16306
916.034	15983
916.146	16013
916.259	15926
916.371	16048
916.483	16051
916.595	15888
916.708	15838
916.82	15975
916.932	15846
917.044	15907
917.156	15873
917.268	15804
917.38	15755
917.491	15720
917.603	15720
917.715	15774
917.826	15759
917.938	15591
918.049	15526
918.161	15652
918.272	15705
918.384	15724
918.495	15644
918.606	15420
918.717	15313
918.828	15485
918.939	15591
919.05	15401
919.161	15435
919.272	15192
919.383	15329
919.494	15496
919.604	15637
919.715	15370
919.826	15401
919.936	15359
920.047	15363
920.157	15359
920.267	15622
920.378	15336
920.488	15382
920.598	15526
920.708	15698
920.818	15492
920.928	15485
921.038	15701
921.148	15686
921.258	15302
921.368	15245
921.477	15119
921.587	15077
921.697	15043
921.806	15123
921.916	14982
922.025	14750
922.134	14781
922.244	14754
922.353	14804
922.462	14697
922.571	14518
922.68	14404
922.789	14438
922.898	14480
923.007	14374
923.116	14454
923.224	14347
923.333	14347
923.442	14294
923.55	14206
923.659	14157
923.767	14229
923.876	14195
923.984	14172
924.092	14069
924.201	14142
924.309	14100
924.417	14126
924.525	14119
924.633	14024
924.741	14979
924.849	13803
924.956	13970
925.064	13894
925.172	13753
925.279	13784
925.387	13883
925.494	13807
925.602	13856
925.709	13727
925.816	13578
925.924	13685
926.031	13757
926.138	13784
926.245	13788
926.352	13605
926.459	13655
926.566	13765
926.673	13582
926.779	13540
926.886	13514
926.993	13339
927.099	13324
927.206	13263
927.312	13278
927.419	13278
927.525	13266
927.631	13438
927.737	13206
927.843	13091
927.95	12951
928.056	13091
928.162	13072
928.267	13152
928.373	13677
928.479	13160
928.585	12882
928.69	12947
928.796	13122
928.901	12863
929.007	12837
929.112	12897
929.218	12905
929.323	12783
929.428	12852
929.533	12882
929.638	12711
929.743	12730
929.848	12810
929.953	12738
930.058	12597
930.163	12441
930.267	12502
930.372	12612
930.477	12448
930.581	12650
930.685	12563
930.79	12376
930.894	12369
930.998	12285
931.103	12467
931.207	12098
931.311	11988
931.415	11908
931.519	11688
931.623	11634
