Data from test_V78500241_1682.txt Node
Date: Fri Mar 25 15:53:27 CST 2022
User: usil
Spectrometer: V785-0024
Trigger mode: 0
Integration Time (sec): 4.000000E-1
Scans to average: 1
Nonlinearity correction enabled: false
Boxcar width: 0
Storing dark spectrum: false
XAxis mode: Wavelengths
Number of Pixels in Spectrum: 1024
>>>>>Begin Spectral Data<<<<<
801.071	28367
801.214	28417
801.356	28158
801.499	28139
801.641	27842
801.783	28002
801.926	28078
802.068	27781
802.211	27960
802.353	27793
802.496	27762
802.638	27759
802.78	27587
802.923	27671
803.065	27583
803.208	27519
803.35	27800
803.492	27804
803.635	27812
803.777	27671
803.919	27975
804.061	28204
804.204	27975
804.346	27736
804.488	27854
804.63	27873
804.773	27884
804.915	27743
805.057	28074
805.199	27835
805.341	27903
805.483	28135
805.626	28067
805.768	27895
805.91	28070
806.052	28025
806.194	27846
806.336	28280
806.478	27987
806.62	27960
806.762	28268
806.904	28455
807.046	28451
807.188	28462
807.33	28474
807.472	28618
807.614	28443
807.756	28481
807.898	28303
808.04	28261
808.182	28314
808.324	28318
808.465	28493
808.607	28569
808.749	28706
808.891	28786
809.033	28866
809.174	28854
809.316	28717
809.458	28831
809.6	28717
809.741	28923
809.883	28904
810.025	28938
810.166	28999
810.308	29010
810.45	28968
810.591	28942
810.733	28592
810.875	28656
811.016	28637
811.158	28653
811.299	28862
811.441	28790
811.582	28858
811.724	28672
811.865	28763
812.007	28729
812.148	28637
812.29	28710
812.431	28911
812.573	28835
812.714	29098
812.855	29265
812.997	29318
813.138	29395
813.279	29265
813.421	29242
813.562	29212
813.703	29086
813.845	28934
813.986	28573
814.127	28554
814.268	28489
814.41	28512
814.551	28409
814.692	28500
814.833	28367
814.974	28398
815.115	28303
815.256	28192
815.397	28185
815.539	28405
815.68	28173
815.821	28124
815.962	28169
816.103	28074
816.244	28051
816.385	28063
816.526	27975
816.666	27823
816.807	27705
816.948	27747
817.089	27895
817.23	27747
817.371	27797
817.512	27785
817.653	27743
817.793	27652
817.934	27690
818.075	27701
818.216	27675
818.356	27644
818.497	27545
818.638	27500
818.778	27431
818.919	27511
819.06	27530
819.2	27690
819.341	27606
819.481	27682
819.622	27812
819.762	27953
819.903	28097
820.043	27964
820.184	27793
820.324	27884
820.465	27903
820.605	27819
820.746	27762
820.886	27701
821.026	27842
821.167	27808
821.307	27827
821.447	27850
821.588	27622
821.728	27534
821.868	27348
822.008	27252
822.149	27226
822.289	27245
822.429	26971
822.569	26823
822.709	26845
822.849	26640
822.99	26758
823.13	26632
823.27	26644
823.41	26617
823.55	26404
823.69	26522
823.83	26556
823.97	26347
824.11	26294
824.25	26263
824.389	26400
824.529	26313
824.669	26290
824.809	26400
824.949	26396
825.089	26370
825.228	26446
825.368	26237
825.508	26187
825.648	26164
825.787	26199
825.927	26225
826.067	26035
826.206	26164
826.346	26351
826.485	26233
826.625	26145
826.765	26332
826.904	26336
827.044	25944
827.183	25974
827.323	25883
827.462	26012
827.601	25906
827.741	25913
827.88	25944
828.02	25898
828.159	25826
828.298	26008
828.437	26065
828.577	25833
828.716	26039
828.855	25856
828.994	25662
829.134	25742
829.273	25689
829.412	25719
829.551	25350
829.69	25537
829.829	25746
829.968	25620
830.107	25537
830.246	25609
830.385	25605
830.524	25491
830.663	25495
830.802	25335
830.941	25278
831.08	25175
831.219	25232
831.357	25232
831.496	25510
831.635	25217
831.774	25137
831.913	25114
832.051	24951
832.19	25057
832.329	24867
832.467	24943
832.606	24882
832.744	24802
832.883	24966
833.022	24840
833.16	24951
833.299	25095
833.437	24985
833.576	25076
833.714	25023
833.852	24890
833.991	25027
834.129	25057
834.267	24996
834.406	25042
834.544	24981
834.682	25046
834.821	24897
834.959	25015
835.097	24856
835.235	25023
835.373	24932
835.511	24981
835.65	24871
835.788	24996
835.926	24684
836.064	24635
836.202	24528
836.34	24745
836.478	24951
836.615	24844
836.753	24844
836.891	24852
837.029	24852
837.167	24821
837.305	24760
837.443	24601
837.58	24623
837.718	24673
837.856	24791
837.993	24566
838.131	24593
838.269	24380
838.406	24490
838.544	24361
838.681	24281
838.819	24152
838.956	24163
839.094	24030
839.231	24258
839.369	24197
839.506	24502
839.643	24365
839.781	24106
839.918	24064
840.055	24136
840.193	24022
840.33	23969
840.467	24121
840.604	24121
840.742	24232
840.879	23904
841.016	23950
841.153	23805
841.29	24095
841.427	24076
841.564	23969
841.701	24022
841.838	23950
841.975	23866
842.112	23973
842.249	23824
842.385	23775
842.522	23946
842.659	23821
842.796	23699
842.933	23703
843.069	23687
843.206	23695
843.343	23718
843.479	23737
843.616	23847
843.752	23539
843.889	23573
844.025	23585
844.162	23474
844.298	23608
844.435	23547
844.571	23471
844.708	23452
844.844	23661
844.98	23707
845.117	23600
845.253	23429
845.389	23387
845.525	23444
845.661	23436
845.798	23280
845.934	23208
846.07	23185
846.206	23292
846.342	23356
846.478	23208
846.614	22930
846.75	22900
846.886	22980
847.022	23041
847.158	22999
847.294	23090
847.429	22915
847.565	22957
847.701	23223
847.837	22744
847.972	22634
848.108	22729
848.244	22755
848.379	22656
848.515	22474
848.65	22565
848.786	22481
848.921	22622
849.057	22618
849.192	22672
849.328	22573
849.463	22424
849.598	22531
849.734	22443
849.869	22371
850.004	22497
850.14	22341
850.275	22322
850.41	22215
850.545	22287
850.68	22268
850.815	22360
850.95	22242
851.085	22440
851.22	22421
851.355	22352
851.49	22287
851.625	22348
851.76	22128
851.895	22352
852.03	22375
852.165	22341
852.299	22344
852.434	22363
852.569	22318
852.703	22402
852.838	22405
852.973	22440
853.107	22440
853.242	22249
853.376	22093
853.511	21979
853.645	22139
853.78	22181
853.914	22158
854.048	22173
854.183	22105
854.317	22249
854.451	22303
854.585	22200
854.72	22040
854.854	22287
854.988	22086
855.122	22295
855.256	22097
855.39	22226
855.524	22284
855.658	22135
855.792	22204
855.926	22230
856.06	22166
856.194	22150
856.327	22029
856.461	22226
856.595	22120
856.729	22105
856.862	22325
856.996	22120
857.13	22299
857.263	22371
857.397	22158
857.53	22093
857.664	22162
857.797	22207
857.931	22310
858.064	22124
858.197	22223
858.331	22150
858.464	22067
858.597	21953
858.731	22181
858.864	22101
858.997	22109
859.13	22173
859.263	22173
859.396	22246
859.529	22097
859.662	22116
859.795	22078
859.928	22169
860.061	22428
860.194	22329
860.327	22109
860.46	22238
860.592	22234
860.725	22303
860.858	22386
860.99	22265
861.123	22006
861.256	21975
861.388	22177
861.521	22809
861.653	21968
861.786	21869
861.918	22017
862.05	22059
862.183	22051
862.315	22048
862.447	22116
862.58	22067
862.712	21915
862.844	21804
862.976	21926
863.108	21850
863.24	22226
863.372	21842
863.504	21873
863.636	21781
863.768	21903
863.9	22010
864.032	21770
864.164	21873
864.296	21819
864.428	21987
864.559	21869
864.691	21956
864.823	21876
864.954	21816
865.086	21789
865.217	21675
865.349	21713
865.48	21679
865.612	21622
865.743	21808
865.875	21663
866.006	21671
866.137	21675
866.269	21759
866.4	21770
866.531	21622
866.662	21618
866.793	21656
866.924	21606
867.055	21762
867.186	21679
867.317	21717
867.448	21500
867.579	21629
867.71	21526
867.841	21606
867.972	21682
868.103	21648
868.233	21652
868.364	21709
868.495	21789
868.625	21945
868.756	21979
868.886	21823
869.017	21945
869.147	21873
869.278	21994
869.408	21934
869.539	21869
869.669	21972
869.799	21953
869.929	22093
870.06	22017
870.19	22257
870.32	22215
870.45	22276
870.58	22398
870.71	22462
870.84	22440
870.97	22249
871.1	22238
871.23	22432
871.36	22523
871.489	22367
871.619	22413
871.749	22489
871.879	22538
872.008	22622
872.138	22542
872.267	22573
872.397	22432
872.526	22371
872.656	22436
872.785	22314
872.915	22580
873.044	22641
873.173	22474
873.303	22580
873.432	22538
873.561	22557
873.69	22497
873.819	22546
873.948	22702
874.077	22523
874.206	22489
874.335	22516
874.464	22748
874.593	22843
874.722	22656
874.851	22767
874.979	22660
875.108	22774
875.237	22664
875.365	22656
875.494	22755
875.623	22752
875.751	22664
875.88	22702
876.008	22847
876.136	22866
876.265	23083
876.393	23197
876.521	23159
876.65	23223
876.778	23284
876.906	23128
877.034	23064
877.162	23102
877.29	23121
877.418	23022
877.546	23018
877.674	23037
877.802	23014
877.93	23132
878.058	23113
878.185	23018
878.313	22968
878.441	22927
878.568	22930
878.696	23010
878.824	23075
878.951	23124
879.079	23258
879.206	23417
879.333	23193
879.461	23060
879.588	23223
879.715	23197
879.842	23299
879.97	23181
880.097	22896
880.224	22812
880.351	22911
880.478	22885
880.605	22896
880.732	22839
880.859	23094
880.986	22953
881.112	22900
881.239	22843
881.366	22801
881.493	22588
881.619	22478
881.746	22493
881.872	22413
881.999	22440
882.125	22405
882.252	22599
882.378	22432
882.505	22538
882.631	22371
882.757	22261
882.883	22394
883.01	22192
883.136	22124
883.262	22093
883.388	22010
883.514	22044
883.64	22223
883.766	22070
883.892	21873
884.018	21907
884.143	22086
884.269	22242
884.395	21804
884.52	21679
884.646	21736
884.772	21663
884.897	21717
885.023	21778
885.148	21850
885.274	21838
885.399	21888
885.524	21804
885.65	21819
885.775	21743
885.9	21633
886.025	21903
886.15	21816
886.275	21701
886.4	21713
886.525	21622
886.65	21709
886.775	21755
886.9	21865
887.025	21998
887.149	21762
887.274	21622
887.399	21568
887.523	21568
887.648	21549
887.773	21549
887.897	21622
888.021	21576
888.146	21382
888.27	21682
888.395	21595
888.519	21663
888.643	21583
888.767	21450
888.891	21515
889.015	21363
889.139	21428
889.263	21329
889.387	21538
889.511	21553
889.635	21523
889.759	21355
889.883	21408
890.006	21439
890.13	21382
890.254	21370
890.377	21180
890.501	21070
890.624	21066
890.748	21028
890.871	21020
890.995	20944
891.118	20781
891.241	20868
891.364	20937
891.488	21070
891.611	20861
891.734	20864
891.857	20982
891.98	20823
892.103	20982
892.226	20910
892.349	20830
892.471	20621
892.594	20864
892.717	20868
892.839	20765
892.962	20845
893.085	20792
893.207	20842
893.33	20708
893.452	20769
893.575	20796
893.697	20754
893.819	20994
893.941	21024
894.064	20887
894.186	20701
894.308	20720
894.43	20872
894.552	20918
894.674	20838
894.796	20800
894.918	20701
895.04	20792
895.161	20857
895.283	20910
895.405	20773
895.526	20655
895.648	20712
895.769	20807
895.891	20697
896.012	20849
896.134	20819
896.255	20754
896.376	20727
896.498	20705
896.619	20819
896.74	20716
896.861	20899
896.982	21020
897.103	21233
897.224	21005
897.345	21009
897.466	20906
897.587	21070
897.708	21218
897.828	21009
897.949	20963
898.07	20826
898.19	20948
898.311	21096
898.431	21047
898.552	20994
898.672	20956
898.792	21009
898.913	21024
899.033	20861
899.153	20857
899.273	20518
899.393	20663
899.513	20819
899.633	20678
899.753	20636
899.873	20678
899.993	20701
900.113	20594
900.232	20705
900.352	20629
900.472	20514
900.591	20393
900.711	20522
900.83	20473
900.95	20625
901.069	20564
901.189	20336
901.308	20161
901.427	20115
901.546	19917
901.665	20088
901.784	20046
901.904	19830
902.023	19856
902.141	19674
902.26	19605
902.379	19563
902.498	19567
902.617	19483
902.735	19594
902.854	19594
902.973	19559
903.091	19206
903.21	19141
903.328	19145
903.446	19221
903.565	19107
903.683	18973
903.801	19008
903.919	19023
904.038	18943
904.156	18817
904.274	18863
904.392	18741
904.51	18768
904.627	18779
904.745	18711
904.863	18962
904.981	18490
905.098	18506
905.216	18380
905.334	18475
905.451	18509
905.569	18445
905.686	18521
905.803	18327
905.921	18201
906.038	18235
906.155	18296
906.272	17996
906.389	18152
906.506	18095
906.623	17916
906.74	17923
906.857	17916
906.974	17897
907.091	18026
907.208	18064
907.324	17969
907.441	17961
907.557	17813
907.674	17729
907.79	17714
907.907	17661
908.023	17657
908.139	17680
908.256	17718
908.372	17547
908.488	17627
908.604	17398
908.72	17345
908.836	17436
908.952	17356
909.068	17421
909.184	17566
909.3	17440
909.415	17554
909.531	17429
909.647	17064
909.762	17136
909.878	17075
909.993	17075
910.108	17117
910.224	17189
910.339	16976
910.454	16961
910.57	16858
910.685	16805
910.8	17071
910.915	17094
911.03	16900
911.145	16801
911.259	16656
911.374	16744
911.489	16649
911.604	16615
911.718	16493
911.833	16436
911.947	16363
912.062	16242
912.176	16447
912.291	16375
912.405	16405
912.519	16706
912.633	16561
912.748	16447
912.862	16424
912.976	16204
913.09	16147
913.204	16261
913.318	16242
913.431	16390
913.545	16314
913.659	16352
913.772	16181
913.886	16196
914	16093
914.113	16162
914.226	16135
914.34	16063
914.453	16006
914.566	16116
914.68	15922
914.793	15835
914.906	15698
915.019	15606
915.132	15641
915.245	15679
915.358	15587
915.47	15595
915.583	15633
915.696	15568
915.809	15717
915.921	15682
916.034	15534
916.146	15462
916.259	15488
916.371	15591
916.483	15587
916.595	15416
916.708	15507
916.82	15416
916.932	15439
917.044	15431
917.156	15382
917.268	15226
917.38	15268
917.491	15237
917.603	15226
917.715	15214
917.826	15329
917.938	15157
918.049	15112
918.161	15081
918.272	15294
918.384	15363
918.495	15241
918.606	15093
918.717	14990
918.828	14990
918.939	15085
919.05	14941
919.161	14998
919.272	14815
919.383	14849
919.494	15036
919.604	15230
919.715	15062
919.826	14880
919.936	15017
920.047	15062
920.157	14971
920.267	15146
920.378	14960
920.488	14925
920.598	15192
920.708	15252
920.818	15150
920.928	15036
921.038	15264
921.148	15214
921.258	14933
921.368	14899
921.477	14678
921.587	14670
921.697	14579
921.806	14617
921.916	14583
922.025	14431
922.134	14332
922.244	14343
922.353	14301
922.462	14191
922.571	14195
922.68	14027
922.789	13875
922.898	13947
923.007	13868
923.116	14012
923.224	14024
923.333	13902
923.442	13830
923.55	13906
923.659	13852
923.767	13898
923.876	13761
923.984	13890
924.092	13723
924.201	13738
924.309	13666
924.417	13753
924.525	13647
924.633	13567
924.741	14446
924.849	13350
924.956	13563
925.064	13388
925.172	13308
925.279	13400
925.387	13400
925.494	13403
925.602	13468
925.709	13384
925.816	13293
925.924	13289
926.031	13407
926.138	13312
926.245	13384
926.352	13168
926.459	13312
926.566	13343
926.673	13221
926.779	13061
926.886	13114
926.993	12954
927.099	12954
927.206	12856
927.312	12806
927.419	12890
927.525	12871
927.631	13004
927.737	12745
927.843	12757
927.95	12711
928.056	12734
928.162	12764
928.267	12715
928.373	13362
928.479	12795
928.585	12517
928.69	12620
928.796	12707
928.901	12582
929.007	12471
929.112	12616
929.218	12585
929.323	12464
929.428	12388
929.533	12536
929.638	12403
929.743	12441
929.848	12334
929.953	12426
930.058	12285
930.163	12178
930.267	12171
930.372	12232
930.477	12083
930.581	12258
930.685	12155
930.79	12106
930.894	12011
930.998	12049
931.103	12102
931.207	11821
931.311	11695
931.415	11558
931.519	11349
931.623	11360
