Data from test_V78500241_2172.txt Node
Date: Fri Mar 25 15:56:50 CST 2022
User: usil
Spectrometer: V785-0024
Trigger mode: 0
Integration Time (sec): 4.000000E-1
Scans to average: 1
Nonlinearity correction enabled: false
Boxcar width: 0
Storing dark spectrum: false
XAxis mode: Wavelengths
Number of Pixels in Spectrum: 1024
>>>>>Begin Spectral Data<<<<<
801.071	28812
801.214	28721
801.356	28428
801.499	28500
801.641	28325
801.783	28333
801.926	28390
802.068	28352
802.211	28249
802.353	28196
802.496	28051
802.638	28040
802.78	27983
802.923	27941
803.065	27945
803.208	27941
803.35	27983
803.492	28135
803.635	28188
803.777	28090
803.919	28185
804.061	28573
804.204	28223
804.346	28143
804.488	28040
804.63	28173
804.773	28101
804.915	28352
805.057	28348
805.199	28234
805.341	28379
805.483	28398
805.626	28409
805.768	28188
805.91	28314
806.052	28512
806.194	28386
806.336	28470
806.478	28523
806.62	28421
806.762	28538
806.904	28710
807.046	28919
807.188	28733
807.33	29124
807.472	28866
807.614	28850
807.756	28934
807.898	28721
808.04	28603
808.182	28497
808.324	28748
808.465	28774
808.607	29056
808.749	29044
808.891	29155
809.033	29231
809.174	29128
809.316	29159
809.458	29048
809.6	29018
809.741	28976
809.883	29159
810.025	29528
810.166	29379
810.308	29288
810.45	29505
810.591	29330
810.733	29086
810.875	29041
811.016	29044
811.158	28999
811.299	29189
811.441	29269
811.582	29227
811.724	29090
811.865	29132
812.007	29155
812.148	28980
812.29	29170
812.431	29356
812.573	29471
812.714	29562
812.855	29577
812.997	29627
813.138	29748
813.279	29691
813.421	29581
813.562	29486
813.703	29216
813.845	29315
813.986	29162
814.127	28885
814.268	28850
814.41	28927
814.551	28835
814.692	28847
814.833	28759
814.974	28672
815.115	28820
815.256	28634
815.397	28618
815.539	28759
815.68	28618
815.821	28443
815.962	28500
816.103	28584
816.244	28447
816.385	28390
816.526	28280
816.666	28070
816.807	28173
816.948	28169
817.089	28261
817.23	28112
817.371	28086
817.512	27964
817.653	27956
817.793	28067
817.934	28074
818.075	28105
818.216	28082
818.356	28093
818.497	28082
818.638	27857
818.778	27663
818.919	27869
819.06	27823
819.2	28101
819.341	28150
819.481	28105
819.622	28333
819.762	28481
819.903	28306
820.043	28261
820.184	28230
820.324	28314
820.465	28246
820.605	28375
820.746	28128
820.886	28086
821.026	28200
821.167	28166
821.307	28238
821.447	28204
821.588	28135
821.728	27960
821.868	27926
822.008	27724
822.149	27587
822.289	27568
822.429	27374
822.569	27249
822.709	27123
822.849	27100
822.99	27192
823.13	27131
823.27	27013
823.41	26940
823.55	26811
823.69	26998
823.83	26910
823.97	26804
824.11	26781
824.25	26716
824.389	26785
824.529	26705
824.669	26777
824.809	26750
824.949	26910
825.089	26754
825.228	26807
825.368	26811
825.508	26659
825.648	26739
825.787	26655
825.927	26758
826.067	26667
826.206	26640
826.346	26739
826.485	26823
826.625	26625
826.765	26800
826.904	26659
827.044	26377
827.183	26442
827.323	26385
827.462	26343
827.601	26473
827.741	26328
827.88	26442
828.02	26237
828.159	26343
828.298	26400
828.437	26355
828.577	26336
828.716	26461
828.855	26351
828.994	26077
829.134	25982
829.273	26103
829.412	25902
829.551	25921
829.69	26039
829.829	26020
829.968	26210
830.107	26081
830.246	25978
830.385	25909
830.524	25925
830.663	25807
830.802	25814
830.941	25632
831.08	25662
831.219	25769
831.357	25769
831.496	25852
831.635	25753
831.774	25696
831.913	25457
832.051	25491
832.19	25460
832.329	25518
832.467	25392
832.606	25232
832.744	25331
832.883	25285
833.022	25320
833.16	25297
833.299	25396
833.437	25400
833.576	25293
833.714	25327
833.852	25514
833.991	25388
834.129	25529
834.267	25502
834.406	25411
834.544	25457
834.682	25377
834.821	25266
834.959	25540
835.097	25270
835.235	25449
835.373	25430
835.511	25445
835.65	25293
835.788	25255
835.926	25084
836.064	24932
836.202	25069
836.34	25236
836.478	25270
836.615	25145
836.753	25194
836.891	25331
837.029	25190
837.167	25091
837.305	25164
837.443	25126
837.58	24939
837.718	25099
837.856	25034
837.993	24932
838.131	25137
838.269	24928
838.406	24920
838.544	24947
838.681	24612
838.819	24566
838.956	24471
839.094	24528
839.231	24631
839.369	24741
839.506	24928
839.643	24848
839.781	24593
839.918	24414
840.055	24525
840.193	24369
840.33	24517
840.467	24517
840.604	24475
840.742	24738
840.879	24213
841.016	24433
841.153	24270
841.29	24433
841.427	24433
841.564	24365
841.701	24353
841.838	24399
841.975	24273
842.112	24300
842.249	24235
842.385	24091
842.522	24388
842.659	24270
842.796	24079
842.933	24220
843.069	24087
843.206	24053
843.343	24220
843.479	24152
843.616	24224
843.752	23828
843.889	23916
844.025	24129
844.162	23973
844.298	24003
844.435	24026
844.571	24003
844.708	23935
844.844	24098
844.98	24053
845.117	24053
845.253	23920
845.389	23737
845.525	23855
845.661	23764
845.798	23539
845.934	23634
846.07	23707
846.206	23794
846.342	23707
846.478	23512
846.614	23478
846.75	23429
846.886	23398
847.022	23524
847.158	23387
847.294	23501
847.429	23425
847.565	23345
847.701	23558
847.837	23098
847.972	23025
848.108	23178
848.244	23223
848.379	23037
848.515	22949
848.65	22843
848.786	23022
848.921	22987
849.057	23197
849.192	23037
849.328	23018
849.463	22938
849.598	22984
849.734	22889
849.869	22881
850.004	22660
850.14	22740
850.275	22717
850.41	22710
850.545	22733
850.68	22744
850.815	22828
850.95	22694
851.085	23037
851.22	22949
851.355	22793
851.49	22626
851.625	22630
851.76	22687
851.895	22542
852.03	22645
852.165	22748
852.299	22729
852.434	22778
852.569	22736
852.703	22698
852.838	22828
852.973	22831
853.107	22786
853.242	22649
853.376	22554
853.511	22554
853.645	22493
853.78	22725
853.914	22649
854.048	22485
854.183	22436
854.317	22535
854.451	22664
854.585	22538
854.72	22497
854.854	22485
854.988	22527
855.122	22607
855.256	22451
855.39	22508
855.524	22645
855.658	22664
855.792	22538
855.926	22615
856.06	22508
856.194	22599
856.327	22550
856.461	22382
856.595	22538
856.729	22596
856.862	22618
856.996	22527
857.13	22672
857.263	22687
857.397	22672
857.53	22546
857.664	22573
857.797	22634
857.931	22634
858.064	22653
858.197	22588
858.331	22478
858.464	22462
858.597	22413
858.731	22493
858.864	22436
858.997	22569
859.13	22588
859.263	22618
859.396	22691
859.529	22557
859.662	22455
859.795	22504
859.928	22466
860.061	22611
860.194	22752
860.327	22630
860.46	22512
860.592	22664
860.725	22721
860.858	22694
860.99	22497
861.123	22371
861.256	22538
861.388	22554
861.521	23212
861.653	22382
861.786	22363
861.918	22382
862.05	22527
862.183	22500
862.315	22531
862.447	22557
862.58	22546
862.712	22299
862.844	22196
862.976	22337
863.108	22299
863.24	22653
863.372	22116
863.504	22230
863.636	22143
863.768	22276
863.9	22356
864.032	22242
864.164	22284
864.296	22390
864.428	22440
864.559	22261
864.691	22356
864.823	22329
864.954	22200
865.086	22230
865.217	22112
865.349	22131
865.48	22097
865.612	22143
865.743	22226
865.875	22063
866.006	22029
866.137	22230
866.269	22200
866.4	22070
866.531	22105
866.662	21949
866.793	21998
866.924	22116
867.055	22082
867.186	22067
867.317	21964
867.448	21998
867.579	21998
867.71	21937
867.841	22006
867.972	21956
868.103	21994
868.233	21956
868.364	22116
868.495	22139
868.625	22280
868.756	22402
868.886	22303
869.017	22299
869.147	22344
869.278	22405
869.408	22322
869.539	22504
869.669	22356
869.799	22234
869.929	22398
870.06	22459
870.19	22569
870.32	22550
870.45	22580
870.58	22675
870.71	22816
870.84	22797
870.97	22611
871.1	22706
871.23	22774
871.36	22862
871.489	22858
871.619	22771
871.749	22805
871.879	22949
872.008	22942
872.138	22923
872.267	22885
872.397	22797
872.526	22748
872.656	22668
872.785	22782
872.915	22976
873.044	23033
873.173	22881
873.303	22782
873.432	22839
873.561	23014
873.69	23018
873.819	23003
873.948	22953
874.077	22881
874.206	22908
874.335	22854
874.464	22911
874.593	23178
874.722	23102
874.851	23235
874.979	23204
875.108	23334
875.237	23216
875.365	22995
875.494	23136
875.623	23113
875.751	23041
875.88	23037
876.008	23315
876.136	23159
876.265	23509
876.393	23642
876.521	23509
876.65	23497
876.778	23516
876.906	23474
877.034	23395
877.162	23425
877.29	23452
877.418	23391
877.546	23676
877.674	23516
877.802	23353
877.93	23463
878.058	23417
878.185	23280
878.313	23436
878.441	23398
878.568	23337
878.696	23459
878.824	23543
878.951	23505
879.079	23615
879.206	23680
879.333	23589
879.461	23490
879.588	23619
879.715	23497
879.842	23703
879.97	23417
880.097	23315
880.224	23315
880.351	23360
880.478	23235
880.605	23220
880.732	23364
880.859	23566
880.986	23311
881.112	23166
881.239	23216
881.366	23052
881.493	22984
881.619	22915
881.746	22748
881.872	22828
881.999	22812
882.125	22923
882.252	22900
882.378	22809
882.505	22942
882.631	22767
882.757	22615
882.883	22561
883.01	22500
883.136	22481
883.262	22344
883.388	22341
883.514	22481
883.64	22497
883.766	22440
883.892	22360
884.018	22409
884.143	22360
884.269	22497
884.395	22135
884.52	22162
884.646	22109
884.772	21975
884.897	22025
885.023	22177
885.148	22261
885.274	22329
885.399	22238
885.524	22074
885.65	22139
885.775	22325
885.9	22139
886.025	22192
886.15	22192
886.275	22124
886.4	22032
886.525	22162
886.65	22067
886.775	22070
886.9	22173
887.025	22246
887.149	22154
887.274	21930
887.399	21953
887.523	21907
887.648	21838
887.773	21812
887.897	21915
888.021	21915
888.146	21793
888.27	21915
888.395	21876
888.519	21930
888.643	21987
888.767	21983
888.891	21888
889.015	21717
889.139	21762
889.263	21755
889.387	21743
889.511	21861
889.635	21823
889.759	21701
889.883	21660
890.006	21652
890.13	21690
890.254	21500
890.377	21580
890.501	21393
890.624	21488
890.748	21595
890.871	21298
890.995	21233
891.118	21161
891.241	21237
891.364	21252
891.488	21332
891.611	21222
891.734	21230
891.857	21302
891.98	21275
892.103	21237
892.226	21135
892.349	21146
892.471	21169
892.594	21074
892.717	21180
892.839	21207
892.962	21138
893.085	21161
893.207	21184
893.33	21081
893.452	21009
893.575	21192
893.697	21085
893.819	21336
893.941	21294
894.064	21291
894.186	21093
894.308	21009
894.43	21146
894.552	21237
894.674	21165
894.796	21077
894.918	21096
895.04	21043
895.161	21077
895.283	21138
895.405	21070
895.526	21017
895.648	21131
895.769	21070
895.891	21077
896.012	21203
896.134	21176
896.255	21081
896.376	21043
896.498	21047
896.619	21157
896.74	21142
896.861	21077
896.982	21431
897.103	21583
897.224	21363
897.345	21313
897.466	21207
897.587	21405
897.708	21374
897.828	21256
897.949	21161
898.07	21150
898.19	21192
898.311	21386
898.431	21233
898.552	21367
898.672	21378
898.792	21363
898.913	21408
899.033	21237
899.153	20998
899.273	21066
899.393	21047
899.513	21051
899.633	21047
899.753	21024
899.873	20994
899.993	21032
900.113	21001
900.232	21017
900.352	20792
900.472	20849
900.591	20800
900.711	20804
900.83	20754
900.95	20838
901.069	20823
901.189	20629
901.308	20412
901.427	20415
901.546	20415
901.665	20347
901.784	20381
901.904	20202
902.023	20145
902.141	19871
902.26	19963
902.379	19997
902.498	19921
902.617	19955
902.735	19875
902.854	19738
902.973	19681
903.091	19491
903.21	19388
903.328	19529
903.446	19403
903.565	19266
903.683	19308
903.801	19148
903.919	19346
904.038	19137
904.156	19187
904.274	19072
904.392	19050
904.51	19015
904.627	19103
904.745	19091
904.863	19129
904.981	18909
905.098	18764
905.216	18715
905.334	18817
905.451	18627
905.569	18726
905.686	18783
905.803	18734
905.921	18563
906.038	18738
906.155	18475
906.272	18369
906.389	18433
906.506	18346
906.623	18346
906.74	18270
906.857	18083
906.974	18178
907.091	18395
907.208	18441
907.324	18338
907.441	18121
907.557	18003
907.674	17969
907.79	17958
907.907	17889
908.023	18011
908.139	17977
908.256	17832
908.372	17828
908.488	17859
908.604	17665
908.72	17627
908.836	17577
908.952	17630
909.068	17718
909.184	17794
909.3	17680
909.415	17657
909.531	17691
909.647	17478
909.762	17379
909.878	17398
909.993	17448
910.108	17269
910.224	17269
910.339	17474
910.454	17231
910.57	17212
910.685	17086
910.8	17433
910.915	17330
911.03	17170
911.145	17014
911.259	16930
911.374	16862
911.489	16915
911.604	16816
911.718	16656
911.833	16672
911.947	16679
912.062	16599
912.176	16752
912.291	16653
912.405	16706
912.519	16900
912.633	16854
912.748	16706
912.862	16626
912.976	16580
913.09	16432
913.204	16466
913.318	16504
913.431	16641
913.545	16519
913.659	16607
913.772	16459
913.886	16329
914	16367
914.113	16325
914.226	16405
914.34	16223
914.453	16166
914.566	16424
914.68	16101
914.793	16139
914.906	15975
915.019	15861
915.132	15793
915.245	15846
915.358	15953
915.47	15857
915.583	15911
915.696	15911
915.809	16017
915.921	15968
916.034	15793
916.146	15819
916.259	15842
916.371	15888
916.483	15846
916.595	15770
916.708	15618
916.82	15736
916.932	15591
917.044	15614
917.156	15564
917.268	15492
917.38	15614
917.491	15473
917.603	15561
917.715	15599
917.826	15614
917.938	15458
918.049	15367
918.161	15393
918.272	15614
918.384	15584
918.495	15397
918.606	15279
918.717	15135
918.828	15336
918.939	15211
919.05	15058
919.161	15252
919.272	15017
919.383	15074
919.494	15336
919.604	15420
919.715	15283
919.826	15089
919.936	15154
920.047	15272
920.157	15207
920.267	15363
920.378	15161
920.488	15127
920.598	15332
920.708	15370
920.818	15173
920.928	15256
921.038	15454
921.148	15428
921.258	15207
921.368	15013
921.477	14899
921.587	14948
921.697	14765
921.806	14842
921.916	14750
922.025	14602
922.134	14640
922.244	14549
922.353	14533
922.462	14507
922.571	14415
922.68	14218
922.789	14195
922.898	14218
923.007	14096
923.116	14180
923.224	14210
923.333	14058
923.442	14012
923.55	14107
923.659	14100
923.767	14001
923.876	13925
923.984	13982
924.092	13928
924.201	13989
924.309	13841
924.417	13925
924.525	13811
924.633	13833
924.741	14602
924.849	13674
924.956	13761
925.064	13776
925.172	13472
925.279	13544
925.387	13632
925.494	13590
925.602	13704
925.709	13655
925.816	13468
925.924	13480
926.031	13651
926.138	13510
926.245	13499
926.352	13388
926.459	13544
926.566	13514
926.673	13460
926.779	13285
926.886	13198
926.993	13228
927.099	13126
927.206	13175
927.312	13023
927.419	13175
927.525	13038
927.631	13084
927.737	12985
927.843	13019
927.95	12878
928.056	12958
928.162	12943
928.267	13015
928.373	13594
928.479	12947
928.585	12703
928.69	12871
928.796	12916
928.901	12730
929.007	12658
929.112	12730
929.218	12753
929.323	12654
929.428	12696
929.533	12787
929.638	12525
929.743	12547
929.848	12513
929.953	12494
930.058	12494
930.163	12338
930.267	12353
930.372	12486
930.477	12292
930.581	12471
930.685	12330
930.79	12194
930.894	12243
930.998	12159
931.103	12266
931.207	11939
931.311	11855
931.415	11729
931.519	11592
931.623	11554
