Data from test_V78500241_2964.txt Node
Date: Fri Mar 25 16:02:20 CST 2022
User: usil
Spectrometer: V785-0024
Trigger mode: 0
Integration Time (sec): 4.000000E-1
Scans to average: 1
Nonlinearity correction enabled: false
Boxcar width: 0
Storing dark spectrum: false
XAxis mode: Wavelengths
Number of Pixels in Spectrum: 1024
>>>>>Begin Spectral Data<<<<<
801.071	28908
801.214	28828
801.356	28683
801.499	28645
801.641	28382
801.783	28451
801.926	28352
802.068	28371
802.211	28523
802.353	28215
802.496	28280
802.638	28230
802.78	28230
802.923	28124
803.065	28070
803.208	27979
803.35	28169
803.492	28291
803.635	28219
803.777	28211
803.919	28375
804.061	28691
804.204	28504
804.346	28455
804.488	28322
804.63	28367
804.773	28329
804.915	28348
805.057	28523
805.199	28356
805.341	28401
805.483	28622
805.626	28527
805.768	28424
805.91	28462
806.052	28535
806.194	28493
806.336	28733
806.478	28470
806.62	28550
806.762	28702
806.904	28786
807.046	29022
807.188	29033
807.33	29056
807.472	29044
807.614	29094
807.756	28888
807.898	28927
808.04	28805
808.182	28710
808.324	28934
808.465	28869
808.607	29102
808.749	29326
808.891	29417
809.033	29474
809.174	29375
809.316	29216
809.458	29193
809.6	29227
809.741	29254
809.883	29497
810.025	29436
810.166	29505
810.308	29505
810.45	29398
810.591	29509
810.733	29353
810.875	29223
811.016	29143
811.158	29151
811.299	29269
811.441	29372
811.582	29436
811.724	29231
811.865	29318
812.007	29178
812.148	29334
812.29	29220
812.431	29455
812.573	29642
812.714	29794
812.855	29783
812.997	29748
813.138	30030
813.279	29714
813.421	29737
813.562	29710
813.703	29699
813.845	29497
813.986	29193
814.127	29086
814.268	28820
814.41	28892
814.551	28881
814.692	29079
814.833	28873
814.974	28919
815.115	28938
815.256	28805
815.397	28740
815.539	28797
815.68	28778
815.821	28687
815.962	28843
816.103	28607
816.244	28721
816.385	28615
816.526	28474
816.666	28432
816.807	28318
816.948	28356
817.089	28337
817.23	28196
817.371	28284
817.512	28360
817.653	28234
817.793	28356
817.934	28265
818.075	28291
818.216	28234
818.356	28211
818.497	28188
818.638	28036
818.778	28006
818.919	28044
819.06	28131
819.2	28082
819.341	28261
819.481	28337
819.622	28379
819.762	28596
819.903	28592
820.043	28417
820.184	28405
820.324	28341
820.465	28512
820.605	28379
820.746	28371
820.886	28124
821.026	28379
821.167	28181
821.307	28443
821.447	28238
821.588	28238
821.728	28086
821.868	27827
822.008	27816
822.149	27736
822.289	27728
822.429	27622
822.569	27450
822.709	27401
822.849	27252
822.99	27332
823.13	27275
823.27	27233
823.41	27146
823.55	27020
823.69	27089
823.83	27112
823.97	27074
824.11	26849
824.25	26880
824.389	26861
824.529	26948
824.669	26788
824.809	27017
824.949	27032
825.089	27089
825.228	27020
825.368	26804
825.508	26682
825.648	26769
825.787	26998
825.927	27005
826.067	26788
826.206	26906
826.346	26758
826.485	26910
826.625	26765
826.765	26842
826.904	26864
827.044	26587
827.183	26583
827.323	26541
827.462	26583
827.601	26434
827.741	26434
827.88	26598
828.02	26507
828.159	26389
828.298	26571
828.437	26568
828.577	26370
828.716	26552
828.855	26385
828.994	26225
829.134	26244
829.273	26328
829.412	26237
829.551	26252
829.69	26103
829.829	26237
829.968	26252
830.107	26248
830.246	26172
830.385	26168
830.524	26039
830.663	26046
830.802	26001
830.941	25883
831.08	25658
831.219	25932
831.357	26001
831.496	26027
831.635	25719
831.774	25696
831.913	25719
832.051	25761
832.19	25647
832.329	25533
832.467	25521
832.606	25460
832.744	25343
832.883	25460
833.022	25468
833.16	25521
833.299	25430
833.437	25567
833.576	25464
833.714	25693
833.852	25643
833.991	25571
834.129	25628
834.267	25556
834.406	25468
834.544	25601
834.682	25544
834.821	25422
834.959	25628
835.097	25495
835.235	25643
835.373	25506
835.511	25540
835.65	25449
835.788	25392
835.926	25255
836.064	25091
836.202	25164
836.34	25377
836.478	25460
836.615	25346
836.753	25358
836.891	25369
837.029	25438
837.167	25263
837.305	25297
837.443	25266
837.58	25137
837.718	25255
837.856	25202
837.993	25156
838.131	25308
838.269	24848
838.406	24992
838.544	25046
838.681	24734
838.819	24833
838.956	24661
839.094	24738
839.231	24616
839.369	24806
839.506	25190
839.643	24871
839.781	24665
839.918	24620
840.055	24696
840.193	24578
840.33	24540
840.467	24517
840.604	24608
840.742	24776
840.879	24505
841.016	24517
841.153	24395
841.29	24486
841.427	24578
841.564	24555
841.701	24509
841.838	24517
841.975	24365
842.112	24357
842.249	24441
842.385	24194
842.522	24544
842.659	24384
842.796	24330
842.933	24266
843.069	24235
843.206	24235
843.343	24292
843.479	24319
843.616	24254
843.752	24152
843.889	24155
844.025	24376
844.162	23942
844.298	24163
844.435	24159
844.571	24152
844.708	24003
844.844	24232
844.98	24155
845.117	24281
845.253	23999
845.389	23939
845.525	23920
845.661	23980
845.798	23836
845.934	23794
846.07	23817
846.206	23866
846.342	24018
846.478	23665
846.614	23585
846.75	23577
846.886	23539
847.022	23570
847.158	23646
847.294	23482
847.429	23528
847.565	23531
847.701	23813
847.837	23239
847.972	23280
848.108	23372
848.244	23337
848.379	23132
848.515	23181
848.65	23052
848.786	23067
848.921	23109
849.057	23269
849.192	23178
849.328	23143
849.463	23105
849.598	23086
849.734	23010
849.869	22995
850.004	22938
850.14	23098
850.275	22877
850.41	22889
850.545	22866
850.68	22869
850.815	23037
850.95	22843
851.085	23094
851.22	22984
851.355	22957
851.49	22805
851.625	22759
851.76	22961
851.895	22805
852.03	22748
852.165	22885
852.299	22972
852.434	22953
852.569	22965
852.703	22877
852.838	22900
852.973	23033
853.107	22904
853.242	22839
853.376	22767
853.511	22691
853.645	22656
853.78	22858
853.914	22687
854.048	22675
854.183	22683
854.317	22759
854.451	22965
854.585	22759
854.72	22641
854.854	22892
854.988	22763
855.122	22733
855.256	22596
855.39	22694
855.524	22816
855.658	22679
855.792	22809
855.926	22759
856.06	22733
856.194	22854
856.327	22744
856.461	22721
856.595	22615
856.729	22694
856.862	22755
856.996	22763
857.13	22824
857.263	22900
857.397	22831
857.53	22622
857.664	22752
857.797	22824
857.931	22930
858.064	22839
858.197	22946
858.331	22706
858.464	22569
858.597	22592
858.731	22767
858.864	22702
858.997	22599
859.13	22755
859.263	22752
859.396	22858
859.529	22702
859.662	22645
859.795	22782
859.928	22721
860.061	22881
860.194	22904
860.327	22850
860.46	22824
860.592	22828
860.725	23022
860.858	22835
860.99	22736
861.123	22679
861.256	22668
861.388	22767
861.521	23592
861.653	22641
861.786	22508
861.918	22504
862.05	22512
862.183	22618
862.315	22641
862.447	22653
862.58	22634
862.712	22371
862.844	22409
862.976	22493
863.108	22447
863.24	22984
863.372	22402
863.504	22504
863.636	22531
863.768	22584
863.9	22409
864.032	22314
864.164	22333
864.296	22512
864.428	22466
864.559	22470
864.691	22550
864.823	22398
864.954	22409
865.086	22481
865.217	22344
865.349	22226
865.48	22287
865.612	22325
865.743	22421
865.875	22352
866.006	22299
866.137	22261
866.269	22246
866.4	22284
866.531	22219
866.662	22154
866.793	22158
866.924	22223
867.055	22348
867.186	22154
867.317	22211
867.448	22185
867.579	22207
867.71	22306
867.841	22067
867.972	22246
868.103	22169
868.233	22192
868.364	22185
868.495	22314
868.625	22485
868.756	22580
868.886	22382
869.017	22344
869.147	22634
869.278	22691
869.408	22474
869.539	22466
869.669	22630
869.799	22538
869.929	22634
870.06	22538
870.19	22816
870.32	22790
870.45	22790
870.58	22889
870.71	22999
870.84	23048
870.97	22854
871.1	22854
871.23	22869
871.36	22930
871.489	23113
871.619	23029
871.749	23143
871.879	23162
872.008	23147
872.138	23105
872.267	23041
872.397	22900
872.526	22946
872.656	23044
872.785	22786
872.915	23128
873.044	23227
873.173	23056
873.303	23235
873.432	23155
873.561	23174
873.69	23128
873.819	23075
873.948	23193
874.077	23193
874.206	22995
874.335	23162
874.464	23227
874.593	23277
874.722	23322
874.851	23417
874.979	23330
875.108	23383
875.237	23197
875.365	23337
875.494	23250
875.623	23315
875.751	23315
875.88	23288
876.008	23395
876.136	23531
876.265	23630
876.393	23817
876.521	23764
876.65	23665
876.778	23649
876.906	23604
877.034	23611
877.162	23710
877.29	23642
877.418	23695
877.546	23646
877.674	23600
877.802	23710
877.93	23684
878.058	23589
878.185	23463
878.313	23623
878.441	23630
878.568	23444
878.696	23619
878.824	23805
878.951	23802
879.079	23718
879.206	23901
879.333	23752
879.461	23786
879.588	23920
879.715	23687
879.842	23775
879.97	23718
880.097	23516
880.224	23520
880.351	23558
880.478	23592
880.605	23459
880.732	23505
880.859	23714
880.986	23429
881.112	23512
881.239	23246
881.366	23212
881.493	23212
881.619	23067
881.746	22987
881.872	23056
881.999	23037
882.125	22938
882.252	23071
882.378	23056
882.505	23018
882.631	22847
882.757	22702
882.883	22881
883.01	22691
883.136	22687
883.262	22645
883.388	22390
883.514	22698
883.64	22748
883.766	22706
883.892	22402
884.018	22516
884.143	22535
884.269	22706
884.395	22386
884.52	22291
884.646	22314
884.772	22230
884.897	22287
885.023	22394
885.148	22280
885.274	22500
885.399	22413
885.524	22246
885.65	22352
885.775	22413
885.9	22268
886.025	22466
886.15	22402
886.275	22192
886.4	22287
886.525	22497
886.65	22306
886.775	22196
886.9	22440
887.025	22436
887.149	22310
887.274	22173
887.399	22116
887.523	22059
887.648	21960
887.773	21934
887.897	22131
888.021	22070
888.146	22078
888.27	22074
888.395	22295
888.519	22048
888.643	22143
888.767	22048
888.891	22036
889.015	21819
889.139	22055
889.263	21850
889.387	21865
889.511	21937
889.635	21972
889.759	21759
889.883	21774
890.006	21983
890.13	21972
890.254	21755
890.377	21812
890.501	21701
890.624	21557
890.748	21652
890.871	21599
890.995	21477
891.118	21454
891.241	21416
891.364	21382
891.488	21564
891.611	21336
891.734	21428
891.857	21473
891.98	21447
892.103	21458
892.226	21386
892.349	21367
892.471	21218
892.594	21291
892.717	21252
892.839	21233
892.962	21344
893.085	21443
893.207	21348
893.33	21214
893.452	21207
893.575	21370
893.697	21226
893.819	21519
893.941	21431
894.064	21462
894.186	21260
894.308	21169
894.43	21428
894.552	21298
894.674	21310
894.796	21116
894.918	21283
895.04	21249
895.161	21492
895.283	21401
895.405	21260
895.526	21287
895.648	21340
895.769	21287
895.891	21355
896.012	21370
896.134	21355
896.255	21237
896.376	21275
896.498	21199
896.619	21363
896.74	21252
896.861	21378
896.982	21603
897.103	21804
897.224	21599
897.345	21473
897.466	21382
897.587	21473
897.708	21599
897.828	21564
897.949	21340
898.07	21306
898.19	21431
898.311	21583
898.431	21374
898.552	21458
898.672	21500
898.792	21572
898.913	21557
899.033	21405
899.153	21260
899.273	21108
899.393	21241
899.513	21195
899.633	21108
899.753	21256
899.873	21138
899.993	21233
900.113	21180
900.232	21207
900.352	21127
900.472	21081
900.591	20857
900.711	20956
900.83	20998
900.95	20960
901.069	20994
901.189	20754
901.308	20655
901.427	20594
901.546	20594
901.665	20507
901.784	20583
901.904	20396
902.023	20305
902.141	20142
902.26	20012
902.379	20191
902.498	20111
902.617	19928
902.735	20062
902.854	20005
902.973	19860
903.091	19677
903.21	19849
903.328	19780
903.446	19575
903.565	19613
903.683	19460
903.801	19388
903.919	19422
904.038	19468
904.156	19278
904.274	19331
904.392	19232
904.51	19198
904.627	19335
904.745	19289
904.863	19202
904.981	19053
905.098	18932
905.216	18882
905.334	18943
905.451	18958
905.569	18913
905.686	18939
905.803	18867
905.921	18741
906.038	18741
906.155	18715
906.272	18646
906.389	18635
906.506	18418
906.623	18464
906.74	18403
906.857	18414
906.974	18357
907.091	18403
907.208	18528
907.324	18486
907.441	18376
907.557	18224
907.674	18091
907.79	18098
907.907	18098
908.023	18224
908.139	18102
908.256	18129
908.372	17935
908.488	18087
908.604	17980
908.72	17927
908.836	17843
908.952	17851
909.068	17863
909.184	17942
909.3	17771
909.415	17897
909.531	17798
909.647	17596
909.762	17657
909.878	17512
909.993	17512
910.108	17516
910.224	17436
910.339	17490
910.454	17376
910.57	17391
910.685	17231
910.8	17551
910.915	17486
911.03	17356
911.145	17109
911.259	17124
911.374	17143
911.489	17067
911.604	16991
911.718	16771
911.833	16839
911.947	16774
912.062	16733
912.176	16839
912.291	16885
912.405	16835
912.519	16934
912.633	16961
912.748	16927
912.862	16854
912.976	16630
913.09	16493
913.204	16622
913.318	16710
913.431	16824
913.545	16744
913.659	16786
913.772	16615
913.886	16459
914	16451
914.113	16546
914.226	16561
914.34	16489
914.453	16356
914.566	16527
914.68	16303
914.793	16314
914.906	16109
915.019	15994
915.132	15998
915.245	15998
915.358	16059
915.47	16017
915.583	16036
915.696	16082
915.809	16086
915.921	16162
916.034	15972
916.146	15987
916.259	15838
916.371	16032
916.483	15918
916.595	15835
916.708	15804
916.82	15892
916.932	15751
917.044	15785
917.156	15709
917.268	15622
917.38	15686
917.491	15629
917.603	15675
917.715	15713
917.826	15789
917.938	15667
918.049	15526
918.161	15530
918.272	15633
918.384	15698
918.495	15564
918.606	15462
918.717	15332
918.828	15431
918.939	15367
919.05	15321
919.161	15401
919.272	15237
919.383	15252
919.494	15450
919.604	15652
919.715	15367
919.826	15283
919.936	15302
920.047	15355
920.157	15340
920.267	15443
920.378	15393
920.488	15336
920.598	15481
920.708	15625
920.818	15473
920.928	15428
921.038	15580
921.148	15587
921.258	15355
921.368	15195
921.477	15043
921.587	15097
921.697	14960
921.806	15123
921.916	14899
922.025	14674
922.134	14731
922.244	14575
922.353	14765
922.462	14610
922.571	14415
922.68	14309
922.789	14275
922.898	14358
923.007	14248
923.116	14210
923.224	14252
923.333	14313
923.442	14233
923.55	14100
923.659	14218
923.767	14176
923.876	14107
923.984	14145
924.092	14008
924.201	14145
924.309	14103
924.417	14065
924.525	14046
924.633	14024
924.741	14864
924.849	13746
924.956	14027
925.064	13795
925.172	13738
925.279	13552
925.387	13753
925.494	13731
925.602	13890
925.709	13761
925.816	13643
925.924	13696
926.031	13742
926.138	13696
926.245	13655
926.352	13563
926.459	13723
926.566	13738
926.673	13559
926.779	13616
926.886	13445
926.993	13320
927.099	13297
927.206	13270
927.312	13129
927.419	13236
927.525	13266
927.631	13263
927.737	13072
927.843	13152
927.95	12981
928.056	13088
928.162	13065
928.267	12966
928.373	13803
928.479	13080
928.585	12867
928.69	12981
928.796	12989
928.901	12905
929.007	12764
929.112	12875
929.218	12890
929.323	12798
929.428	12741
929.533	12821
929.638	12703
929.743	12700
929.848	12779
929.953	12696
930.058	12608
930.163	12502
930.267	12502
930.372	12559
930.477	12407
930.581	12658
930.685	12441
930.79	12308
930.894	12285
930.998	12369
931.103	12380
931.207	12011
931.311	11973
931.415	11958
931.519	11638
931.623	11688
