Data from test_V78500241_1717.txt Node
Date: Fri Mar 25 15:53:41 CST 2022
User: usil
Spectrometer: V785-0024
Trigger mode: 0
Integration Time (sec): 4.000000E-1
Scans to average: 1
Nonlinearity correction enabled: false
Boxcar width: 0
Storing dark spectrum: false
XAxis mode: Wavelengths
Number of Pixels in Spectrum: 1024
>>>>>Begin Spectral Data<<<<<
801.071	28447
801.214	28299
801.356	28131
801.499	27949
801.641	27831
801.783	27781
801.926	27785
802.068	27876
802.211	27774
802.353	27671
802.496	27720
802.638	27511
802.78	27427
802.923	27416
803.065	27382
803.208	27420
803.35	27671
803.492	27717
803.635	27682
803.777	27717
803.919	27789
804.061	28070
804.204	27838
804.346	27644
804.488	27663
804.63	27656
804.773	27762
804.915	27892
805.057	27945
805.199	27743
805.341	27850
805.483	27819
805.626	27918
805.768	27743
805.91	27914
806.052	27903
806.194	27873
806.336	27987
806.478	27972
806.62	27865
806.762	27949
806.904	28299
807.046	28436
807.188	28344
807.33	28261
807.472	28371
807.614	28318
807.756	28268
807.898	28192
808.04	28276
808.182	28135
808.324	28135
808.465	28341
808.607	28291
808.749	28535
808.891	28603
809.033	28634
809.174	28641
809.316	28615
809.458	28660
809.6	28485
809.741	28694
809.883	28596
810.025	28946
810.166	28854
810.308	28824
810.45	28820
810.591	28748
810.733	28436
810.875	28596
811.016	28440
811.158	28394
811.299	28706
811.441	28660
811.582	28721
811.724	28641
811.865	28447
812.007	28417
812.148	28653
812.29	28519
812.431	28733
812.573	28763
812.714	28972
812.855	29037
812.997	29197
813.138	29402
813.279	29318
813.421	29102
813.562	29075
813.703	28805
813.845	28759
813.986	28592
814.127	28375
814.268	28291
814.41	28265
814.551	28215
814.692	28284
814.833	28124
814.974	28105
815.115	28284
815.256	28063
815.397	28147
815.539	28185
815.68	27888
815.821	28029
815.962	27884
816.103	28021
816.244	27937
816.385	27865
816.526	27911
816.666	27595
816.807	27492
816.948	27599
817.089	27580
817.23	27736
817.371	27458
817.512	27507
817.653	27496
817.793	27545
817.934	27622
818.075	27610
818.216	27481
818.356	27485
818.497	27511
818.638	27374
818.778	27279
818.919	27188
819.06	27393
819.2	27420
819.341	27583
819.481	27660
819.622	27793
819.762	27918
819.903	27679
820.043	27747
820.184	27583
820.324	27797
820.465	27553
820.605	27698
820.746	27656
820.886	27492
821.026	27603
821.167	27564
821.307	27679
821.447	27679
821.588	27473
821.728	27344
821.868	27264
822.008	27093
822.149	27096
822.289	27001
822.429	26849
822.569	26796
822.709	26655
822.849	26511
822.99	26495
823.13	26457
823.27	26438
823.41	26324
823.55	26206
823.69	26457
823.83	26339
823.97	26240
824.11	26020
824.25	26168
824.389	26153
824.529	26237
824.669	26240
824.809	26366
824.949	26389
825.089	26134
825.228	26278
825.368	25902
825.508	26027
825.648	26103
825.787	26081
825.927	26008
826.067	26008
826.206	26058
826.346	26024
826.485	26050
826.625	26187
826.765	26122
826.904	26001
827.044	25719
827.183	25909
827.323	25662
827.462	25894
827.601	25776
827.741	25795
827.88	25795
828.02	25647
828.159	25693
828.298	25803
828.437	25795
828.577	25677
828.716	25776
828.855	25670
828.994	25430
829.134	25540
829.273	25495
829.412	25487
829.551	25369
829.69	25479
829.829	25506
829.968	25407
830.107	25422
830.246	25422
830.385	25479
830.524	25400
830.663	25228
830.802	25088
830.941	25152
831.08	25069
831.219	25187
831.357	25133
831.496	25247
831.635	25072
831.774	24890
831.913	24844
832.051	24886
832.19	24814
832.329	24772
832.467	24791
832.606	24642
832.744	24646
832.883	24627
833.022	24798
833.16	24658
833.299	24719
833.437	24658
833.576	24848
833.714	24768
833.852	24905
833.991	24741
834.129	24840
834.267	24886
834.406	24753
834.544	24886
834.682	24867
834.821	24692
834.959	24973
835.097	24719
835.235	24840
835.373	24894
835.511	24715
835.65	24585
835.788	24669
835.926	24467
836.064	24471
836.202	24395
836.34	24601
836.478	24654
836.615	24620
836.753	24544
836.891	24749
837.029	24555
837.167	24509
837.305	24574
837.443	24441
837.58	24369
837.718	24350
837.856	24566
837.993	24410
838.131	24448
838.269	24285
838.406	24361
838.544	24308
838.681	24091
838.819	24133
838.956	23931
839.094	23783
839.231	23920
839.369	24087
839.506	24369
839.643	24182
839.781	23904
839.918	23889
840.055	23988
840.193	23847
840.33	23863
840.467	23798
840.604	23942
840.742	24045
840.879	23733
841.016	23695
841.153	23695
841.29	23817
841.427	23840
841.564	23999
841.701	23847
841.838	23668
841.975	23741
842.112	23760
842.249	23695
842.385	23539
842.522	23722
842.659	23581
842.796	23573
842.933	23440
843.069	23493
843.206	23516
843.343	23573
843.479	23634
843.616	23608
843.752	23364
843.889	23421
844.025	23539
844.162	23292
844.298	23387
844.435	23395
844.571	23326
844.708	23315
844.844	23474
844.98	23566
845.117	23406
845.253	23356
845.389	23220
845.525	23261
845.661	23098
845.798	23102
845.934	23079
846.07	23033
846.206	23098
846.342	23200
846.478	22949
846.614	22961
846.75	22816
846.886	22873
847.022	22847
847.158	22869
847.294	22725
847.429	22778
847.565	22847
847.701	23003
847.837	22653
847.972	22421
848.108	22607
848.244	22702
848.379	22500
848.515	22462
848.65	22417
848.786	22341
848.921	22405
849.057	22379
849.192	22584
849.328	22428
849.463	22341
849.598	22398
849.734	22337
849.869	22215
850.004	22249
850.14	22169
850.275	22143
850.41	22162
850.545	22090
850.68	22265
850.815	22158
850.95	22280
851.085	22428
851.22	22291
851.355	22147
851.49	22204
851.625	22131
851.76	22169
851.895	22169
852.03	22067
852.165	22147
852.299	22147
852.434	22276
852.569	22131
852.703	22139
852.838	22314
852.973	22363
853.107	22333
853.242	22268
853.376	22044
853.511	21899
853.645	22025
853.78	22143
853.914	21994
854.048	21941
854.183	21983
854.317	22059
854.451	22226
854.585	21964
854.72	22025
854.854	22017
854.988	21983
855.122	21987
855.256	21934
855.39	22044
855.524	21979
855.658	22078
855.792	22063
855.926	21994
856.06	21968
856.194	22181
856.327	21873
856.461	21895
856.595	21956
856.729	21937
856.862	22196
856.996	22044
857.13	22048
857.263	22086
857.397	22131
857.53	22032
857.664	21983
857.797	22105
857.931	22109
858.064	22070
858.197	22101
858.331	22002
858.464	21915
858.597	21926
858.731	22010
858.864	22029
858.997	22013
859.13	21991
859.263	22021
859.396	22040
859.529	22010
859.662	22032
859.795	21979
859.928	22059
860.061	22230
860.194	22230
860.327	22139
860.46	22120
860.592	22169
860.725	22253
860.858	22086
860.99	22109
861.123	21998
861.256	21899
861.388	22124
861.521	22767
861.653	21827
861.786	21679
861.918	21846
862.05	21884
862.183	22029
862.315	21884
862.447	21998
862.58	21964
862.712	21705
862.844	21682
862.976	21728
863.108	21781
863.24	22124
863.372	21675
863.504	21766
863.636	21652
863.768	21854
863.9	21793
864.032	21709
864.164	21637
864.296	21808
864.428	21762
864.559	21705
864.691	21717
864.823	21679
864.954	21739
865.086	21641
865.217	21667
865.349	21610
865.48	21564
865.612	21648
865.743	21709
865.875	21568
866.006	21545
866.137	21591
866.269	21553
866.4	21580
866.531	21557
866.662	21557
866.793	21656
866.924	21534
867.055	21450
867.186	21549
867.317	21671
867.448	21507
867.579	21557
867.71	21458
867.841	21454
867.972	21660
868.103	21515
868.233	21545
868.364	21610
868.495	21534
868.625	21667
868.756	21823
868.886	21789
869.017	21686
869.147	21983
869.278	21884
869.408	21892
869.539	21804
869.669	21808
869.799	21827
869.929	21880
870.06	21937
870.19	22169
870.32	22006
870.45	22246
870.58	22124
870.71	22211
870.84	22207
870.97	22272
871.1	22074
871.23	22272
871.36	22375
871.489	22287
871.619	22432
871.749	22352
871.879	22371
872.008	22542
872.138	22333
872.267	22310
872.397	22341
872.526	22215
872.656	22143
872.785	22150
872.915	22405
873.044	22398
873.173	22398
873.303	22322
873.432	22417
873.561	22409
873.69	22413
873.819	22306
873.948	22379
874.077	22398
874.206	22223
874.335	22272
874.464	22390
874.593	22786
874.722	22443
874.851	22656
874.979	22672
875.108	22538
875.237	22584
875.365	22622
875.494	22561
875.623	22752
875.751	22622
875.88	22603
876.008	22812
876.136	22736
876.265	23044
876.393	23227
876.521	23200
876.65	23041
876.778	23037
876.906	22839
877.034	22812
877.162	22934
877.29	22923
877.418	23003
877.546	22942
877.674	22915
877.802	22911
877.93	22915
878.058	22923
878.185	22850
878.313	22854
878.441	22896
878.568	22919
878.696	22763
878.824	22987
878.951	23056
879.079	23140
879.206	23261
879.333	23105
879.461	22911
879.588	23056
879.715	23006
879.842	23200
879.97	22976
880.097	22812
880.224	22778
880.351	22733
880.478	22839
880.605	22702
880.732	22778
880.859	23010
880.986	22889
881.112	22885
881.239	22626
881.366	22546
881.493	22310
881.619	22367
881.746	22314
881.872	22360
881.999	22253
882.125	22200
882.252	22310
882.378	22238
882.505	22421
882.631	22078
882.757	22013
882.883	22029
883.01	21998
883.136	21949
883.262	21903
883.388	21918
883.514	22078
883.64	21892
883.766	21930
883.892	21937
884.018	21747
884.143	21960
884.269	21994
884.395	21694
884.52	21587
884.646	21671
884.772	21496
884.897	21568
885.023	21629
885.148	21770
885.274	21880
885.399	21736
885.524	21641
885.65	21648
885.775	21701
885.9	21542
886.025	21728
886.15	21656
886.275	21557
886.4	21599
886.525	21549
886.65	21507
886.775	21583
886.9	21819
887.025	21781
887.149	21660
887.274	21462
887.399	21382
887.523	21370
887.648	21325
887.773	21367
887.897	21511
888.021	21469
888.146	21344
888.27	21485
888.395	21447
888.519	21492
888.643	21336
888.767	21458
888.891	21287
889.015	21169
889.139	21268
889.263	21176
889.387	21367
889.511	21450
889.635	21363
889.759	21173
889.883	21245
890.006	21157
890.13	21214
890.254	21150
890.377	21077
890.501	20933
890.624	20834
890.748	21062
890.871	20895
890.995	20731
891.118	20720
891.241	20838
891.364	20735
891.488	20868
891.611	20872
891.734	20811
891.857	20914
891.98	20781
892.103	20788
892.226	20769
892.349	20708
892.471	20590
892.594	20667
892.717	20781
892.839	20667
892.962	20644
893.085	20663
893.207	20708
893.33	20659
893.452	20655
893.575	20708
893.697	20686
893.819	20910
893.941	20826
894.064	20796
894.186	20594
894.308	20530
894.43	20769
894.552	20804
894.674	20655
894.796	20575
894.918	20686
895.04	20598
895.161	20762
895.283	20796
895.405	20545
895.526	20663
895.648	20678
895.769	20739
895.891	20701
896.012	20743
896.134	20648
896.255	20674
896.376	20560
896.498	20674
896.619	20636
896.74	20716
896.861	20575
896.982	21093
897.103	21028
897.224	20960
897.345	20845
897.466	20739
897.587	20804
897.708	21024
897.828	20849
897.949	20804
898.07	20621
898.19	20716
898.311	20914
898.431	20842
898.552	20868
898.672	20971
898.792	20941
898.913	20921
899.033	20750
899.153	20667
899.273	20575
899.393	20617
899.513	20575
899.633	20613
899.753	20621
899.873	20526
899.993	20636
900.113	20621
900.232	20549
900.352	20514
900.472	20522
900.591	20355
900.711	20355
900.83	20256
900.95	20377
901.069	20522
901.189	20355
901.308	19936
901.427	19951
901.546	19887
901.665	19986
901.784	19852
901.904	19765
902.023	19807
902.141	19422
902.26	19510
902.379	19578
902.498	19567
902.617	19449
902.735	19392
902.854	19381
902.973	19316
903.091	19152
903.21	19065
903.328	19232
903.446	19050
903.565	19057
903.683	18935
903.801	18806
903.919	18863
904.038	18844
904.156	18753
904.274	18730
904.392	18597
904.51	18620
904.627	18661
904.745	18696
904.863	18753
904.981	18414
905.098	18384
905.216	18292
905.334	18384
905.451	18414
905.569	18300
905.686	18414
905.803	18327
905.921	18167
906.038	18228
906.155	18197
906.272	18117
906.389	18129
906.506	18003
906.623	17870
906.74	17855
906.857	17802
906.974	17832
907.091	17882
907.208	18167
907.324	17897
907.441	17752
907.557	17691
907.674	17577
907.79	17615
907.907	17539
908.023	17619
908.139	17554
908.256	17672
908.372	17486
908.488	17532
908.604	17303
908.72	17315
908.836	17349
908.952	17341
909.068	17341
909.184	17383
909.3	17269
909.415	17368
909.531	17311
909.647	17014
909.762	17132
909.878	16923
909.993	16991
910.108	16976
910.224	17018
910.339	16892
910.454	16850
910.57	16748
910.685	16729
910.8	16968
910.915	16980
911.03	16793
911.145	16637
911.259	16618
911.374	16634
911.489	16500
911.604	16542
911.718	16409
911.833	16306
911.947	16162
912.062	16082
912.176	16360
912.291	16230
912.405	16363
912.519	16561
912.633	16485
912.748	16405
912.862	16325
912.976	16230
913.09	16124
913.204	16105
913.318	16139
913.431	16192
913.545	16158
913.659	16207
913.772	16116
913.886	15975
914	15899
914.113	16139
914.226	16025
914.34	15983
914.453	15774
914.566	16048
914.68	15846
914.793	15667
914.906	15515
915.019	15538
915.132	15481
915.245	15447
915.358	15561
915.47	15618
915.583	15523
915.696	15629
915.809	15747
915.921	15625
916.034	15507
916.146	15416
916.259	15473
916.371	15523
916.483	15542
916.595	15389
916.708	15336
916.82	15340
916.932	15302
917.044	15199
917.156	15329
917.268	15123
917.38	15233
917.491	15211
917.603	15116
917.715	15241
917.826	15329
917.938	15112
918.049	14963
918.161	15150
918.272	15241
918.384	15211
918.495	15203
918.606	14857
918.717	14838
918.828	14971
918.939	14921
919.05	14864
919.161	14880
919.272	14727
919.383	14739
919.494	14906
919.604	15108
919.715	14838
919.826	14834
919.936	14826
920.047	15005
920.157	14883
920.267	15108
920.378	14948
920.488	14826
920.598	15036
920.708	15180
920.818	15017
920.928	15077
921.038	15252
921.148	15051
921.258	14823
921.368	14750
921.477	14621
921.587	14537
921.697	14552
921.806	14579
921.916	14423
922.025	14305
922.134	14278
922.244	14176
922.353	14172
922.462	14096
922.571	13963
922.68	13921
922.789	13837
922.898	13902
923.007	13807
923.116	14001
923.224	13837
923.333	13860
923.442	13837
923.55	13772
923.659	13704
923.767	13734
923.876	13681
923.984	13708
924.092	13582
924.201	13628
924.309	13643
924.417	13647
924.525	13483
924.633	13468
924.741	14206
924.849	13362
924.956	13472
925.064	13388
925.172	13247
925.279	13232
925.387	13327
925.494	13301
925.602	13426
925.709	13362
925.816	13141
925.924	13251
926.031	13301
926.138	13198
926.245	13274
926.352	13129
926.459	13236
926.566	13297
926.673	13194
926.779	12947
926.886	13099
926.993	12833
927.099	12920
927.206	12760
927.312	12798
927.419	12852
927.525	12829
927.631	12844
927.737	12715
927.843	12635
927.95	12513
928.056	12707
928.162	12639
928.267	12703
928.373	13346
928.479	12787
928.585	12475
928.69	12612
928.796	12726
928.901	12490
929.007	12403
929.112	12551
929.218	12483
929.323	12456
929.428	12410
929.533	12517
929.638	12334
929.743	12395
929.848	12330
929.953	12365
930.058	12205
930.163	12091
930.267	12030
930.372	12205
930.477	11996
930.581	12296
930.685	12114
930.79	11954
930.894	11958
930.998	11923
931.103	12057
931.207	11764
931.311	11619
931.415	11558
931.519	11277
931.623	11208
