Data from test_V78500241_3369.txt Node
Date: Fri Mar 25 16:05:08 CST 2022
User: usil
Spectrometer: V785-0024
Trigger mode: 0
Integration Time (sec): 4.000000E-1
Scans to average: 1
Nonlinearity correction enabled: false
Boxcar width: 0
Storing dark spectrum: false
XAxis mode: Wavelengths
Number of Pixels in Spectrum: 1024
>>>>>Begin Spectral Data<<<<<
801.071	28417
801.214	28344
801.356	28101
801.499	28116
801.641	28048
801.783	28116
801.926	27991
802.068	28017
802.211	27975
802.353	27930
802.496	27816
802.638	27713
802.78	27564
802.923	27591
803.065	27538
803.208	27603
803.35	27728
803.492	27861
803.635	27857
803.777	27770
803.919	27926
804.061	28246
804.204	27835
804.346	27800
804.488	27793
804.63	27918
804.773	27789
804.915	28025
805.057	28063
805.199	27850
805.341	27884
805.483	28010
805.626	28097
805.768	27987
805.91	28051
806.052	28074
806.194	28013
806.336	28166
806.478	27991
806.62	28120
806.762	28299
806.904	28299
807.046	28653
807.188	28630
807.33	28550
807.472	28432
807.614	28443
807.756	28459
807.898	28287
808.04	28322
808.182	28242
808.324	28337
808.465	28455
808.607	28474
808.749	28736
808.891	28774
809.033	28892
809.174	28721
809.316	28767
809.458	28763
809.6	28805
809.741	28923
809.883	28790
810.025	28938
810.166	28892
810.308	28987
810.45	28987
810.591	28953
810.733	28934
810.875	28797
811.016	28596
811.158	28561
811.299	28953
811.441	28892
811.582	28824
811.724	28675
811.865	28812
812.007	28812
812.148	28721
812.29	28679
812.431	28862
812.573	28953
812.714	29265
812.855	29296
812.997	29425
813.138	29455
813.279	29398
813.421	29174
813.562	29185
813.703	29178
813.845	28904
813.986	28805
814.127	28478
814.268	28523
814.41	28451
814.551	28470
814.692	28542
814.833	28337
814.974	28436
815.115	28322
815.256	28177
815.397	28291
815.539	28363
815.68	28169
815.821	28143
815.962	28249
816.103	28253
816.244	28162
816.385	28082
816.526	28032
816.666	27888
816.807	27732
816.948	27739
817.089	27781
817.23	27728
817.371	27656
817.512	27675
817.653	27827
817.793	27747
817.934	27770
818.075	27846
818.216	27774
818.356	27599
818.497	27515
818.638	27298
818.778	27568
818.919	27340
819.06	27561
819.2	27667
819.341	27728
819.481	27804
819.622	27914
819.762	28082
819.903	27960
820.043	27953
820.184	27895
820.324	27956
820.465	27865
820.605	27785
820.746	27793
820.886	27686
821.026	27865
821.167	27720
821.307	27884
821.447	27800
821.588	27797
821.728	27686
821.868	27344
822.008	27184
822.149	27214
822.289	27188
822.429	27055
822.569	26963
822.709	26826
822.849	26796
822.99	26754
823.13	26811
823.27	26670
823.41	26530
823.55	26518
823.69	26678
823.83	26533
823.97	26488
824.11	26393
824.25	26423
824.389	26214
824.529	26495
824.669	26423
824.809	26488
824.949	26606
825.089	26347
825.228	26381
825.368	26225
825.508	26214
825.648	26191
825.787	26271
825.927	26298
826.067	26199
826.206	26370
826.346	26370
826.485	26202
826.625	26248
826.765	26396
826.904	26328
827.044	26039
827.183	25993
827.323	25978
827.462	25974
827.601	25947
827.741	26043
827.88	25955
828.02	26027
828.159	25887
828.298	26043
828.437	26088
828.577	26024
828.716	26077
828.855	25868
828.994	25662
829.134	25799
829.273	25795
829.412	25575
829.551	25658
829.69	25731
829.829	25704
829.968	25666
830.107	25788
830.246	25788
830.385	25594
830.524	25460
830.663	25571
830.802	25251
830.941	25384
831.08	25175
831.219	25400
831.357	25453
831.496	25499
831.635	25164
831.774	25175
831.913	25137
832.051	25084
832.19	25046
832.329	25198
832.467	24894
832.606	24859
832.744	24814
832.883	24985
833.022	24764
833.16	24996
833.299	25046
833.437	24973
833.576	25027
833.714	25012
833.852	25072
833.991	24973
834.129	25000
834.267	25038
834.406	25046
834.544	25057
834.682	25000
834.821	24954
834.959	25331
835.097	24989
835.235	25061
835.373	24981
835.511	25004
835.65	24894
835.788	24779
835.926	24692
836.064	24711
836.202	24639
836.34	24859
836.478	24840
836.615	24825
836.753	24920
836.891	24882
837.029	24932
837.167	24863
837.305	24821
837.443	24783
837.58	24608
837.718	24821
837.856	24616
837.993	24623
838.131	24715
838.269	24528
838.406	24612
838.544	24479
838.681	24323
838.819	24334
838.956	24178
839.094	24190
839.231	24327
839.369	24403
839.506	24536
839.643	24403
839.781	24117
839.918	24178
840.055	24178
840.193	24133
840.33	23996
840.467	24140
840.604	24114
840.742	24266
840.879	24022
841.016	23931
841.153	23882
841.29	24159
841.427	24102
841.564	24178
841.701	24057
841.838	23984
841.975	24053
842.112	23946
842.249	23878
842.385	23863
842.522	24015
842.659	23889
842.796	23813
842.933	23855
843.069	23847
843.206	23817
843.343	23908
843.479	23851
843.616	23703
843.752	23516
843.889	23577
844.025	23710
844.162	23661
844.298	23794
844.435	23581
844.571	23562
844.708	23608
844.844	23714
844.98	23691
845.117	23672
845.253	23600
845.389	23577
845.525	23493
845.661	23372
845.798	23242
845.934	23433
846.07	23220
846.206	23223
846.342	23398
846.478	23284
846.614	23193
846.75	22991
846.886	22987
847.022	23044
847.158	23025
847.294	22961
847.429	23155
847.565	23041
847.701	23307
847.837	22801
847.972	22801
848.108	22816
848.244	22904
848.379	22653
848.515	22573
848.65	22584
848.786	22672
848.921	22569
849.057	22694
849.192	22668
849.328	22713
849.463	22649
849.598	22523
849.734	22538
849.869	22584
850.004	22299
850.14	22466
850.275	22546
850.41	22318
850.545	22390
850.68	22329
850.815	22402
850.95	22440
851.085	22599
851.22	22577
851.355	22424
851.49	22394
851.625	22200
851.76	22348
851.895	22230
852.03	22295
852.165	22352
852.299	22455
852.434	22489
852.569	22421
852.703	22303
852.838	22318
852.973	22519
853.107	22424
853.242	22390
853.376	22234
853.511	21953
853.645	22223
853.78	22394
853.914	22219
854.048	22147
854.183	22207
854.317	22219
854.451	22436
854.585	22211
854.72	22185
854.854	22158
854.988	22230
855.122	22128
855.256	22021
855.39	22131
855.524	22261
855.658	22265
855.792	22188
855.926	22253
856.06	22246
856.194	22284
856.327	22173
856.461	22150
856.595	22070
856.729	22329
856.862	22352
856.996	22276
857.13	22405
857.263	22287
857.397	22367
857.53	22169
857.664	22261
857.797	22249
857.931	22242
858.064	22306
858.197	22299
858.331	22116
858.464	22128
858.597	22036
858.731	22021
858.864	22310
858.997	22166
859.13	22139
859.263	22249
859.396	22314
859.529	22116
859.662	22169
859.795	22158
859.928	22280
860.061	22356
860.194	22421
860.327	22154
860.46	22169
860.592	22371
860.725	22363
860.858	22325
860.99	22257
861.123	22074
861.256	22135
861.388	22109
861.521	22858
861.653	22162
861.786	22139
861.918	21922
862.05	22124
862.183	22116
862.315	22181
862.447	22268
862.58	22158
862.712	21937
862.844	21804
862.976	22059
863.108	21945
863.24	22310
863.372	21823
863.504	21926
863.636	21842
863.768	21922
863.9	21968
864.032	21850
864.164	21994
864.296	22010
864.428	22044
864.559	22002
864.691	21979
864.823	21915
864.954	21846
865.086	21987
865.217	21797
865.349	21663
865.48	21808
865.612	21755
865.743	21865
865.875	21793
866.006	21800
866.137	21759
866.269	21743
866.4	21808
866.531	21755
866.662	21587
866.793	21701
866.924	21747
867.055	21709
867.186	21660
867.317	21705
867.448	21580
867.579	21724
867.71	21660
867.841	21766
867.972	21736
868.103	21739
868.233	21614
868.364	21774
868.495	21846
868.625	21876
868.756	21949
868.886	21945
869.017	21911
869.147	22070
869.278	21987
869.408	22051
869.539	22029
869.669	22032
869.799	22032
869.929	22124
870.06	22154
870.19	22204
870.32	22341
870.45	22344
870.58	22268
870.71	22447
870.84	22485
870.97	22504
871.1	22428
871.23	22607
871.36	22641
871.489	22519
871.619	22504
871.749	22557
871.879	22531
872.008	22580
872.138	22516
872.267	22565
872.397	22443
872.526	22386
872.656	22432
872.785	22500
872.915	22546
873.044	22565
873.173	22535
873.303	22725
873.432	22691
873.561	22668
873.69	22592
873.819	22660
873.948	22653
874.077	22634
874.206	22504
874.335	22668
874.464	22664
874.593	22850
874.722	22805
874.851	22816
874.979	22862
875.108	22881
875.237	22771
875.365	22710
875.494	22843
875.623	22919
875.751	22843
875.88	22976
876.008	22930
876.136	22984
876.265	23208
876.393	23349
876.521	23303
876.65	23284
876.778	23140
876.906	23136
877.034	23086
877.162	23132
877.29	23140
877.418	23200
877.546	23227
877.674	23105
877.802	23067
877.93	23121
878.058	23018
878.185	23056
878.313	23052
878.441	23178
878.568	23105
878.696	23014
878.824	23185
878.951	23280
879.079	23345
879.206	23398
879.333	23353
879.461	23216
879.588	23296
879.715	23326
879.842	23509
879.97	23197
880.097	22923
880.224	22911
880.351	23006
880.478	23094
880.605	22984
880.732	23064
880.859	23174
880.986	22961
881.112	22911
881.239	22824
881.366	22774
881.493	22637
881.619	22683
881.746	22485
881.872	22516
881.999	22607
882.125	22546
882.252	22542
882.378	22470
882.505	22580
882.631	22390
882.757	22200
882.883	22344
883.01	22268
883.136	22177
883.262	22036
883.388	22101
883.514	22204
883.64	22128
883.766	22116
883.892	22006
884.018	22082
884.143	22109
884.269	22242
884.395	21930
884.52	21759
884.646	21945
884.772	21816
884.897	21595
885.023	21835
885.148	21945
885.274	22017
885.399	21987
885.524	21888
885.65	21941
885.775	21899
885.9	21903
886.025	22021
886.15	21922
886.275	21656
886.4	21709
886.525	21816
886.65	21698
886.775	21698
886.9	21953
887.025	22059
887.149	21759
887.274	21557
887.399	21583
887.523	21625
887.648	21679
887.773	21462
887.897	21701
888.021	21629
888.146	21595
888.27	21622
888.395	21724
888.519	21625
888.643	21732
888.767	21629
888.891	21618
889.015	21428
889.139	21447
889.263	21477
889.387	21435
889.511	21641
889.635	21504
889.759	21378
889.883	21241
890.006	21458
890.13	21526
890.254	21336
890.377	21344
890.501	21218
890.624	21058
890.748	21192
890.871	20963
890.995	20998
891.118	20864
891.241	20891
891.364	20933
891.488	21005
891.611	20941
891.734	20834
891.857	21062
891.98	20948
892.103	21028
892.226	20967
892.349	20944
892.471	20731
892.594	20880
892.717	20937
892.839	20910
892.962	20785
893.085	20857
893.207	20781
893.33	20708
893.452	20777
893.575	20796
893.697	20788
893.819	21005
893.941	21001
894.064	20868
894.186	20861
894.308	20716
894.43	20956
894.552	20998
894.674	20902
894.796	20845
894.918	20754
895.04	20929
895.161	20891
895.283	20754
895.405	20785
895.526	20800
895.648	20800
895.769	20914
895.891	20899
896.012	20883
896.134	20849
896.255	20876
896.376	20826
896.498	20849
896.619	20918
896.74	20807
896.861	20823
896.982	21127
897.103	21298
897.224	21077
897.345	21032
897.466	20883
897.587	21005
897.708	21203
897.828	21089
897.949	21062
898.07	20849
898.19	21017
898.311	21093
898.431	20925
898.552	21131
898.672	21089
898.792	20998
898.913	21089
899.033	20880
899.153	20872
899.273	20800
899.393	20861
899.513	20743
899.633	20834
899.753	20724
899.873	20674
899.993	20754
900.113	20682
900.232	20739
900.352	20781
900.472	20556
900.591	20480
900.711	20644
900.83	20522
900.95	20682
901.069	20670
901.189	20511
901.308	20218
901.427	20164
901.546	20134
901.665	20126
901.784	20206
901.904	20027
902.023	19799
902.141	19704
902.26	19632
902.379	19704
902.498	19594
902.617	19495
902.735	19586
902.854	19483
902.973	19529
903.091	19285
903.21	19324
903.328	19396
903.446	19274
903.565	19171
903.683	19114
903.801	18989
903.919	19069
904.038	18973
904.156	18905
904.274	18924
904.392	18817
904.51	18783
904.627	18726
904.745	18875
904.863	18886
904.981	18620
905.098	18544
905.216	18532
905.334	18559
905.451	18593
905.569	18506
905.686	18616
905.803	18627
905.921	18296
906.038	18342
906.155	18361
906.272	18171
906.389	18186
906.506	18117
906.623	18095
906.74	18098
906.857	17878
906.974	17984
907.091	18136
907.208	18182
907.324	18125
907.441	17954
907.557	17802
907.674	17771
907.79	17627
907.907	17680
908.023	17691
908.139	17882
908.256	17741
908.372	17657
908.488	17562
908.604	17478
908.72	17406
908.836	17486
908.952	17520
909.068	17448
909.184	17497
909.3	17493
909.415	17467
909.531	17433
909.647	17197
909.762	17223
909.878	17102
909.993	17299
910.108	17113
910.224	17029
910.339	17060
910.454	16984
910.57	17037
910.685	16881
910.8	17208
910.915	17075
911.03	17022
911.145	16752
911.259	16698
911.374	16778
911.489	16721
911.604	16554
911.718	16561
911.833	16508
911.947	16341
912.062	16356
912.176	16527
912.291	16478
912.405	16493
912.519	16615
912.633	16664
912.748	16504
912.862	16466
912.976	16284
913.09	16226
913.204	16356
913.318	16246
913.431	16394
913.545	16363
913.659	16276
913.772	16215
913.886	16116
914	16086
914.113	16162
914.226	16230
914.34	16086
914.453	16048
914.566	16166
914.68	15926
914.793	15873
914.906	15739
915.019	15747
915.132	15663
915.245	15663
915.358	15618
915.47	15633
915.583	15717
915.696	15724
915.809	15804
915.921	15838
916.034	15667
916.146	15564
916.259	15469
916.371	15671
916.483	15618
916.595	15435
916.708	15492
916.82	15488
916.932	15519
917.044	15462
917.156	15401
917.268	15321
917.38	15370
917.491	15241
917.603	15344
917.715	15420
917.826	15367
917.938	15184
918.049	15123
918.161	15241
918.272	15370
918.384	15329
918.495	15176
918.606	15036
918.717	14872
918.828	15116
918.939	15100
919.05	14872
919.161	15028
919.272	14902
919.383	15013
919.494	15123
919.604	15256
919.715	15036
919.826	14842
919.936	14948
920.047	15017
920.157	15017
920.267	15188
920.378	14925
920.488	14998
920.598	15127
920.708	15298
920.818	15199
920.928	15100
921.038	15302
921.148	15291
921.258	14967
921.368	14849
921.477	14735
921.587	14686
921.697	14598
921.806	14823
921.916	14583
922.025	14412
922.134	14278
922.244	14286
922.353	14438
922.462	14237
922.571	14092
922.68	14123
922.789	13898
922.898	14031
923.007	13864
923.116	14020
923.224	13951
923.333	14005
923.442	13909
923.55	13814
923.659	13826
923.767	13868
923.876	13795
923.984	13845
924.092	13696
924.201	13784
924.309	13704
924.417	13715
924.525	13632
924.633	13563
924.741	14663
924.849	13419
924.956	13525
925.064	13426
925.172	13282
925.279	13324
925.387	13441
925.494	13327
925.602	13567
925.709	13434
925.816	13350
925.924	13339
926.031	13419
926.138	13358
926.245	13449
926.352	13228
926.459	13297
926.566	13438
926.673	13213
926.779	13118
926.886	13179
926.993	13095
927.099	12916
927.206	12916
927.312	12897
927.419	13034
927.525	12981
927.631	12951
927.737	12791
927.843	12753
927.95	12730
928.056	12665
928.162	12760
928.267	12833
928.373	13343
928.479	12798
928.585	12582
928.69	12700
928.796	12677
928.901	12601
929.007	12479
929.112	12612
929.218	12563
929.323	12563
929.428	12445
929.533	12692
929.638	12376
929.743	12380
929.848	12479
929.953	12384
930.058	12308
930.163	12224
930.267	12205
930.372	12365
930.477	12087
930.581	12429
930.685	12121
930.79	12060
930.894	12015
930.998	12068
931.103	12114
931.207	11752
931.311	11600
931.415	11592
931.519	11486
931.623	11326
