Data from test_V78500241_2378.txt Node
Date: Fri Mar 25 15:58:16 CST 2022
User: usil
Spectrometer: V785-0024
Trigger mode: 0
Integration Time (sec): 4.000000E-1
Scans to average: 1
Nonlinearity correction enabled: false
Boxcar width: 0
Storing dark spectrum: false
XAxis mode: Wavelengths
Number of Pixels in Spectrum: 1024
>>>>>Begin Spectral Data<<<<<
801.071	28881
801.214	28683
801.356	28710
801.499	28641
801.641	28386
801.783	28409
801.926	28508
802.068	28443
802.211	28272
802.353	28352
802.496	28135
802.638	28070
802.78	28261
802.923	28070
803.065	27964
803.208	28173
803.35	28154
803.492	28329
803.635	28516
803.777	28409
803.919	28398
804.061	28664
804.204	28432
804.346	28249
804.488	28268
804.63	28394
804.773	28295
804.915	28569
805.057	28580
805.199	28432
805.341	28546
805.483	28713
805.626	28618
805.768	28519
805.91	28653
806.052	28573
806.194	28497
806.336	28793
806.478	28656
806.62	28626
806.762	28622
806.904	28908
807.046	29079
807.188	29041
807.33	29181
807.472	29033
807.614	28953
807.756	29060
807.898	28972
808.04	28835
808.182	28904
808.324	28873
808.465	28930
808.607	29174
808.749	29277
808.891	29398
809.033	29341
809.174	29452
809.316	29246
809.458	29337
809.6	29113
809.741	29292
809.883	29429
810.025	29573
810.166	29471
810.308	29680
810.45	29611
810.591	29417
810.733	29364
810.875	29227
811.016	29296
811.158	29216
811.299	29356
811.441	29345
811.582	29455
811.724	29326
811.865	29197
812.007	29242
812.148	29250
812.29	29402
812.431	29509
812.573	29581
812.714	29741
812.855	29862
812.997	29821
813.138	30018
813.279	30003
813.421	29802
813.562	29794
813.703	29687
813.845	29558
813.986	29254
814.127	29239
814.268	28987
814.41	29052
814.551	29056
814.692	29094
814.833	28995
814.974	29010
815.115	29083
815.256	28934
815.397	28805
815.539	28923
815.68	28710
815.821	28774
815.962	28980
816.103	28740
816.244	28622
816.385	28740
816.526	28675
816.666	28394
816.807	28150
816.948	28470
817.089	28344
817.23	28257
817.371	28265
817.512	28173
817.653	28318
817.793	28135
817.934	28303
818.075	28188
818.216	28299
818.356	28272
818.497	28219
818.638	27884
818.778	28074
818.919	28082
819.06	28166
819.2	28154
819.341	28295
819.481	28352
819.622	28440
819.762	28577
819.903	28592
820.043	28561
820.184	28516
820.324	28516
820.465	28447
820.605	28447
820.746	28497
820.886	28261
821.026	28337
821.167	28436
821.307	28360
821.447	28443
821.588	28204
821.728	28131
821.868	27930
822.008	27888
822.149	27804
822.289	27720
822.429	27469
822.569	27420
822.709	27504
822.849	27355
822.99	27233
823.13	27275
823.27	27302
823.41	27154
823.55	27119
823.69	27154
823.83	27230
823.97	27157
824.11	26948
824.25	26838
824.389	26929
824.529	26887
824.669	26994
824.809	27020
824.949	26982
825.089	27085
825.228	26940
825.368	26853
825.508	26804
825.648	26937
825.787	26804
825.927	26849
826.067	26895
826.206	26849
826.346	26845
826.485	27028
826.625	26952
826.765	26883
826.904	26910
827.044	26583
827.183	26594
827.323	26473
827.462	26552
827.601	26568
827.741	26659
827.88	26644
828.02	26366
828.159	26575
828.298	26568
828.437	26571
828.577	26423
828.716	26476
828.855	26480
828.994	26324
829.134	26233
829.273	26240
829.412	26214
829.551	26210
829.69	26339
829.829	26298
829.968	26438
830.107	26256
830.246	26339
830.385	26161
830.524	26046
830.663	26107
830.802	25928
830.941	25947
831.08	25856
831.219	26005
831.357	25913
831.496	26088
831.635	25849
831.774	25822
831.913	25700
832.051	25685
832.19	25597
832.329	25704
832.467	25563
832.606	25525
832.744	25544
832.883	25468
833.022	25559
833.16	25529
833.299	25468
833.437	25479
833.576	25632
833.714	25582
833.852	25632
833.991	25635
834.129	25571
834.267	25731
834.406	25457
834.544	25651
834.682	25613
834.821	25601
834.959	25738
835.097	25590
835.235	25597
835.373	25658
835.511	25594
835.65	25312
835.788	25479
835.926	25251
836.064	25160
836.202	25301
836.34	25400
836.478	25460
836.615	25415
836.753	25384
836.891	25502
837.029	25422
837.167	25316
837.305	25232
837.443	25324
837.58	25289
837.718	25377
837.856	25270
837.993	25129
838.131	25137
838.269	25065
838.406	25164
838.544	25019
838.681	24871
838.819	24951
838.956	24665
839.094	24772
839.231	24764
839.369	24890
839.506	24985
839.643	25038
839.781	24650
839.918	24604
840.055	24745
840.193	24604
840.33	24574
840.467	24692
840.604	24684
840.742	24844
840.879	24498
841.016	24384
841.153	24540
841.29	24719
841.427	24589
841.564	24646
841.701	24578
841.838	24441
841.975	24551
842.112	24509
842.249	24327
842.385	24559
842.522	24692
842.659	24418
842.796	24220
842.933	24315
843.069	24220
843.206	24323
843.343	24292
843.479	24311
843.616	24304
843.752	24064
843.889	24114
844.025	24277
844.162	24133
844.298	24239
844.435	24068
844.571	24068
844.708	24247
844.844	24311
844.98	24197
845.117	24038
845.253	24129
845.389	23889
845.525	23946
845.661	24076
845.798	23931
845.934	23897
846.07	23726
846.206	23954
846.342	23961
846.478	23824
846.614	23642
846.75	23345
846.886	23630
847.022	23573
847.158	23535
847.294	23520
847.429	23497
847.565	23558
847.701	23703
847.837	23254
847.972	23231
848.108	23250
848.244	23334
848.379	23098
848.515	23178
848.65	23162
848.786	23121
848.921	23227
849.057	23288
849.192	23242
849.328	23220
849.463	23166
849.598	23208
849.734	23155
849.869	22919
850.004	22911
850.14	22801
850.275	22949
850.41	22866
850.545	22786
850.68	22892
850.815	22987
850.95	22812
851.085	23075
851.22	23060
851.355	22892
851.49	22854
851.625	22938
851.76	22862
851.895	22854
852.03	22892
852.165	22965
852.299	22877
852.434	22999
852.569	22930
852.703	22850
852.838	23018
852.973	22984
853.107	23121
853.242	22854
853.376	22820
853.511	22523
853.645	22733
853.78	22839
853.914	22790
854.048	22774
854.183	22755
854.317	22596
854.451	22892
854.585	22675
854.72	22782
854.854	22729
854.988	22691
855.122	22831
855.256	22596
855.39	22790
855.524	22873
855.658	22748
855.792	22793
855.926	22812
856.06	22736
856.194	22797
856.327	22752
856.461	22645
856.595	22679
856.729	22729
856.862	22873
856.996	22733
857.13	22892
857.263	22858
857.397	22790
857.53	22828
857.664	22805
857.797	22843
857.931	22816
858.064	22835
858.197	22824
858.331	22797
858.464	22637
858.597	22622
858.731	22702
858.864	22721
858.997	22771
859.13	22687
859.263	22782
859.396	22797
859.529	22679
859.662	22691
859.795	22668
859.928	22622
860.061	22946
860.194	22961
860.327	22782
860.46	22809
860.592	22862
860.725	22938
860.858	22862
860.99	22904
861.123	22653
861.256	22706
861.388	22816
861.521	23303
861.653	22717
861.786	22428
861.918	22516
862.05	22634
862.183	22565
862.315	22675
862.447	22805
862.58	22656
862.712	22455
862.844	22360
862.976	22535
863.108	22630
863.24	22957
863.372	22314
863.504	22485
863.636	22375
863.768	22485
863.9	22474
864.032	22303
864.164	22344
864.296	22390
864.428	22527
864.559	22500
864.691	22462
864.823	22421
864.954	22360
865.086	22386
865.217	22413
865.349	22424
865.48	22272
865.612	22310
865.743	22546
865.875	22405
866.006	22329
866.137	22299
866.269	22249
866.4	22291
866.531	22223
866.662	22234
866.793	22135
866.924	22226
867.055	22299
867.186	22215
867.317	22253
867.448	22200
867.579	22238
867.71	22029
867.841	22093
867.972	22268
868.103	22276
868.233	22272
868.364	22150
868.495	22276
868.625	22459
868.756	22580
868.886	22413
869.017	22459
869.147	22561
869.278	22554
869.408	22557
869.539	22398
869.669	22489
869.799	22577
869.929	22626
870.06	22588
870.19	22854
870.32	22767
870.45	22824
870.58	22919
870.71	22984
870.84	23022
870.97	22831
871.1	22919
871.23	23086
871.36	23025
871.489	23064
871.619	23025
871.749	23003
871.879	23246
872.008	23094
872.138	22980
872.267	23128
872.397	22984
872.526	22873
872.656	22854
872.785	22881
872.915	23025
873.044	23083
873.173	23121
873.303	23143
873.432	23231
873.561	23261
873.69	23067
873.819	23064
873.948	23128
874.077	23155
874.206	22908
874.335	23181
874.464	23029
874.593	23311
874.722	23341
874.851	23337
874.979	23303
875.108	23360
875.237	23185
875.365	23269
875.494	23311
875.623	23315
875.751	23349
875.88	23315
876.008	23524
876.136	23497
876.265	23623
876.393	23779
876.521	23775
876.65	23729
876.778	23775
876.906	23554
877.034	23551
877.162	23676
877.29	23516
877.418	23668
877.546	23657
877.674	23589
877.802	23653
877.93	23600
878.058	23505
878.185	23592
878.313	23653
878.441	23585
878.568	23459
878.696	23543
878.824	23638
878.951	23665
879.079	23710
879.206	23874
879.333	23870
879.461	23649
879.588	23794
879.715	23764
879.842	23908
879.97	23771
880.097	23303
880.224	23486
880.351	23440
880.478	23448
880.605	23471
880.732	23444
880.859	23779
880.986	23570
881.112	23383
881.239	23292
881.366	23124
881.493	23098
881.619	22889
881.746	23056
881.872	23178
881.999	23044
882.125	22972
882.252	22999
882.378	22934
882.505	23022
882.631	22763
882.757	22615
882.883	22805
883.01	22668
883.136	22687
883.262	22519
883.388	22459
883.514	22668
883.64	22774
883.766	22649
883.892	22417
884.018	22363
884.143	22626
884.269	22679
884.395	22417
884.52	22333
884.646	22360
884.772	22261
884.897	22181
885.023	22417
885.148	22333
885.274	22474
885.399	22417
885.524	22390
885.65	22337
885.775	22329
885.9	22344
886.025	22554
886.15	22382
886.275	22200
886.4	22204
886.525	22280
886.65	22226
886.775	22226
886.9	22424
887.025	22493
887.149	22246
887.274	22192
887.399	21994
887.523	22036
887.648	22025
887.773	21975
887.897	22101
888.021	22139
888.146	22055
888.27	22074
888.395	22086
888.519	22105
888.643	22150
888.767	22253
888.891	22013
889.015	21804
889.139	21850
889.263	21793
889.387	22025
889.511	22029
889.635	22025
889.759	21698
889.883	21861
890.006	21918
890.13	21892
890.254	21781
890.377	21819
890.501	21583
890.624	21568
890.748	21610
890.871	21462
890.995	21450
891.118	21401
891.241	21294
891.364	21397
891.488	21408
891.611	21515
891.734	21428
891.857	21397
891.98	21439
892.103	21526
892.226	21317
892.349	21424
892.471	21298
892.594	21291
892.717	21378
892.839	21268
892.962	21279
893.085	21389
893.207	21332
893.33	21032
893.452	21230
893.575	21397
893.697	21180
893.819	21370
893.941	21485
894.064	21329
894.186	21268
894.308	21207
894.43	21321
894.552	21306
894.674	21454
894.796	21233
894.918	21233
895.04	21241
895.161	21180
895.283	21237
895.405	21176
895.526	21256
895.648	21279
895.769	21367
895.891	21302
896.012	21340
896.134	21435
896.255	21283
896.376	21264
896.498	21283
896.619	21321
896.74	21249
896.861	21291
896.982	21606
897.103	21641
897.224	21469
897.345	21431
897.466	21401
897.587	21325
897.708	21644
897.828	21561
897.949	21458
898.07	21332
898.19	21492
898.311	21473
898.431	21340
898.552	21458
898.672	21408
898.792	21591
898.913	21477
899.033	21393
899.153	21256
899.273	21218
899.393	21192
899.513	21154
899.633	21150
899.753	21135
899.873	21077
899.993	21416
900.113	21074
900.232	21093
900.352	21062
900.472	21028
900.591	20762
900.711	20933
900.83	20925
900.95	20933
901.069	20975
901.189	20861
901.308	20670
901.427	20602
901.546	20617
901.665	20480
901.784	20465
901.904	20381
902.023	20301
902.141	20043
902.26	19955
902.379	20130
902.498	20069
902.617	20050
902.735	20054
902.854	19936
902.973	19947
903.091	19632
903.21	19719
903.328	19738
903.446	19613
903.565	19453
903.683	19529
903.801	19487
903.919	19434
904.038	19350
904.156	19365
904.274	19316
904.392	19247
904.51	19213
904.627	19217
904.745	19259
904.863	19297
904.981	19072
905.098	18905
905.216	18985
905.334	18943
905.451	18943
905.569	18863
905.686	19004
905.803	18859
905.921	18646
906.038	18722
906.155	18703
906.272	18585
906.389	18646
906.506	18441
906.623	18490
906.74	18426
906.857	18243
906.974	18350
907.091	18475
907.208	18551
907.324	18418
907.441	18372
907.557	18178
907.674	18102
907.79	18053
907.907	18079
908.023	18178
908.139	18167
908.256	18030
908.372	18095
908.488	18034
908.604	17893
908.72	17855
908.836	17893
908.952	17813
909.068	17843
909.184	17946
909.3	17885
909.415	17870
909.531	17805
909.647	17505
909.762	17551
909.878	17471
909.993	17493
910.108	17543
910.224	17486
910.339	17467
910.454	17353
910.57	17296
910.685	17193
910.8	17505
910.915	17505
911.03	17395
911.145	17174
911.259	17060
911.374	17064
911.489	16934
911.604	16919
911.718	16858
911.833	16843
911.947	16710
912.062	16733
912.176	16839
912.291	16854
912.405	16824
912.519	17025
912.633	16930
912.748	16824
912.862	16866
912.976	16615
913.09	16558
913.204	16702
913.318	16634
913.431	16805
913.545	16702
913.659	16752
913.772	16561
913.886	16538
914	16497
914.113	16538
914.226	16497
914.34	16546
914.453	16348
914.566	16508
914.68	16371
914.793	16257
914.906	16097
915.019	16032
915.132	15926
915.245	16101
915.358	16021
915.47	15998
915.583	15949
915.696	15949
915.809	16135
915.921	16196
916.034	15941
916.146	15835
916.259	15888
916.371	15979
916.483	15960
916.595	15827
916.708	15819
916.82	15743
916.932	15819
917.044	15762
917.156	15793
917.268	15618
917.38	15728
917.491	15671
917.603	15728
917.715	15705
917.826	15698
917.938	15564
918.049	15454
918.161	15557
918.272	15644
918.384	15591
918.495	15557
918.606	15378
918.717	15275
918.828	15466
918.939	15435
919.05	15298
919.161	15310
919.272	15093
919.383	15226
919.494	15412
919.604	15622
919.715	15306
919.826	15260
919.936	15252
920.047	15348
920.157	15332
920.267	15496
920.378	15291
920.488	15317
920.598	15523
920.708	15610
920.818	15431
920.928	15462
921.038	15625
921.148	15519
921.258	15272
921.368	15188
921.477	14998
921.587	15047
921.697	14872
921.806	15013
921.916	14845
922.025	14773
922.134	14686
922.244	14610
922.353	14648
922.462	14537
922.571	14476
922.68	14343
922.789	14328
922.898	14362
923.007	14309
923.116	14396
923.224	14290
923.333	14206
923.442	14119
923.55	14126
923.659	14202
923.767	14157
923.876	14050
923.984	14123
924.092	13993
924.201	14050
924.309	14031
924.417	13986
924.525	13989
924.633	14001
924.741	14937
924.849	13826
924.956	13898
925.064	13696
925.172	13609
925.279	13597
925.387	13670
925.494	13674
925.602	13791
925.709	13772
925.816	13632
925.924	13567
926.031	13791
926.138	13582
926.245	13601
926.352	13514
926.459	13647
926.566	13639
926.673	13597
926.779	13445
926.886	13453
926.993	13232
927.099	13270
927.206	13145
927.312	13179
927.419	13301
927.525	13137
927.631	13263
927.737	13107
927.843	13076
927.95	12932
928.056	13057
928.162	13122
928.267	13057
928.373	13731
928.479	13053
928.585	12852
928.69	12981
928.796	13076
928.901	12852
929.007	12719
929.112	12844
929.218	12882
929.323	12738
929.428	12711
929.533	12886
929.638	12665
929.743	12677
929.848	12821
929.953	12719
930.058	12597
930.163	12410
930.267	12369
930.372	12513
930.477	12414
930.581	12589
930.685	12521
930.79	12254
930.894	12292
930.998	12304
931.103	12441
931.207	12060
931.311	11977
931.415	11904
931.519	11668
931.623	11611
