Data from test_V78500241_2819.txt Node
Date: Fri Mar 25 16:01:19 CST 2022
User: usil
Spectrometer: V785-0024
Trigger mode: 0
Integration Time (sec): 4.000000E-1
Scans to average: 1
Nonlinearity correction enabled: false
Boxcar width: 0
Storing dark spectrum: false
XAxis mode: Wavelengths
Number of Pixels in Spectrum: 1024
>>>>>Begin Spectral Data<<<<<
801.071	29284
801.214	29181
801.356	28908
801.499	28919
801.641	28626
801.783	28755
801.926	28858
802.068	28805
802.211	28622
802.353	28630
802.496	28550
802.638	28569
802.78	28352
802.923	28344
803.065	28291
803.208	28546
803.35	28557
803.492	28649
803.635	28691
803.777	28478
803.919	28736
804.061	28888
804.204	28812
804.346	28778
804.488	28478
804.63	28664
804.773	28713
804.915	28812
805.057	28942
805.199	28748
805.341	28816
805.483	28812
805.626	28877
805.768	28809
805.91	28980
806.052	28835
806.194	28850
806.336	29022
806.478	28854
806.62	28923
806.762	29003
806.904	29166
807.046	29360
807.188	29265
807.33	29375
807.472	29375
807.614	29296
807.756	29258
807.898	29292
808.04	29060
808.182	29246
808.324	29204
808.465	29174
808.607	29448
808.749	29642
808.891	29767
809.033	29882
809.174	29672
809.316	29535
809.458	29722
809.6	29509
809.741	29836
809.883	29680
810.025	29935
810.166	29965
810.308	30053
810.45	29840
810.591	29741
810.733	29512
810.875	29638
811.016	29604
811.158	29440
811.299	29726
811.441	29729
811.582	29718
811.724	29672
811.865	29558
812.007	29611
812.148	29703
812.29	29627
812.431	29885
812.573	29939
812.714	30011
812.855	30201
812.997	30247
813.138	30452
813.279	30372
813.421	30315
813.562	30030
813.703	29935
813.845	29821
813.986	29710
814.127	29490
814.268	29292
814.41	29391
814.551	29277
814.692	29303
814.833	29258
814.974	29322
815.115	29246
815.256	29071
815.397	29227
815.539	29239
815.68	29235
815.821	29056
815.962	29292
816.103	29159
816.244	29044
816.385	29025
816.526	28892
816.666	28755
816.807	28584
816.948	28713
817.089	28790
817.23	28812
817.371	28630
817.512	28706
817.653	28694
817.793	28649
817.934	28736
818.075	28660
818.216	28752
818.356	28656
818.497	28478
818.638	28478
818.778	28485
818.919	28401
819.06	28379
819.2	28649
819.341	28839
819.481	28805
819.622	28763
819.762	29022
819.903	28911
820.043	28839
820.184	28888
820.324	28873
820.465	28843
820.605	28820
820.746	28740
820.886	28683
821.026	28717
821.167	28687
821.307	28919
821.447	28561
821.588	28710
821.728	28481
821.868	28386
822.008	28363
822.149	28177
822.289	28090
822.429	27930
822.569	27854
822.709	27880
822.849	27583
822.99	27682
823.13	27785
823.27	27580
823.41	27466
823.55	27386
823.69	27549
823.83	27420
823.97	27435
824.11	27370
824.25	27272
824.389	27351
824.529	27313
824.669	27317
824.809	27462
824.949	27515
825.089	27481
825.228	27256
825.368	27138
825.508	27176
825.648	27127
825.787	27161
825.927	27256
826.067	27138
826.206	27180
826.346	27207
826.485	27317
826.625	27382
826.765	27348
826.904	27306
827.044	27081
827.183	27074
827.323	26906
827.462	27036
827.601	27009
827.741	26887
827.88	26975
828.02	26872
828.159	26876
828.298	26937
828.437	26933
828.577	26883
828.716	27024
828.855	26872
828.994	26632
829.134	26522
829.273	26697
829.412	26507
829.551	26571
829.69	26796
829.829	26636
829.968	26648
830.107	26800
830.246	26708
830.385	26408
830.524	26606
830.663	26305
830.802	26415
830.941	26377
831.08	26225
831.219	26328
831.357	26278
831.496	26450
831.635	26202
831.774	26111
831.913	26202
832.051	26088
832.19	25959
832.329	26115
832.467	25951
832.606	25837
832.744	25826
832.883	26020
833.022	25811
833.16	25909
833.299	25955
833.437	25856
833.576	25902
833.714	25963
833.852	26008
833.991	26001
834.129	26119
834.267	26008
834.406	25955
834.544	25925
834.682	25871
834.821	25982
834.959	26142
835.097	25875
835.235	25993
835.373	25913
835.511	25940
835.65	25860
835.788	25807
835.926	25651
836.064	25529
836.202	25689
836.34	25868
836.478	25913
836.615	25609
836.753	25685
836.891	25807
837.029	25841
837.167	25605
837.305	25833
837.443	25704
837.58	25620
837.718	25677
837.856	25601
837.993	25537
838.131	25582
838.269	25445
838.406	25434
838.544	25396
838.681	25198
838.819	25171
838.956	25091
839.094	24992
839.231	25065
839.369	25156
839.506	25483
839.643	25308
839.781	24962
839.918	24970
840.055	24977
840.193	25038
840.33	24981
840.467	24909
840.604	25015
840.742	25346
840.879	24924
841.016	25000
841.153	24817
841.29	25031
841.427	24947
841.564	25053
841.701	24954
841.838	24890
841.975	24798
842.112	24776
842.249	24798
842.385	24719
842.522	24935
842.659	24741
842.796	24707
842.933	24658
843.069	24700
843.206	24631
843.343	24806
843.479	24760
843.616	24722
843.752	24528
843.889	24456
844.025	24646
844.162	24429
844.298	24673
844.435	24486
844.571	24475
844.708	24490
844.844	24688
844.98	24711
845.117	24631
845.253	24391
845.389	24308
845.525	24338
845.661	24304
845.798	24239
845.934	24270
846.07	24182
846.206	24235
846.342	24315
846.478	24178
846.614	23954
846.75	23916
846.886	23920
847.022	23950
847.158	23817
847.294	23901
847.429	23882
847.565	23904
847.701	24155
847.837	23638
847.972	23505
848.108	23855
848.244	23718
848.379	23585
848.515	23581
848.65	23471
848.786	23566
848.921	23463
849.057	23516
849.192	23775
849.328	23516
849.463	23600
849.598	23433
849.734	23368
849.869	23376
850.004	23318
850.14	23330
850.275	23345
850.41	23288
850.545	23193
850.68	23296
850.815	23322
850.95	23254
851.085	23509
851.22	23433
851.355	23239
851.49	23288
851.625	23155
851.76	23174
851.895	23193
852.03	23200
852.165	23345
852.299	23296
852.434	23387
852.569	23303
852.703	23307
852.838	23288
852.973	23490
853.107	23429
853.242	23166
853.376	23109
853.511	23056
853.645	23006
853.78	23242
853.914	23048
854.048	23044
854.183	23052
854.317	23132
854.451	23265
854.585	23006
854.72	23067
854.854	23162
854.988	23132
855.122	23140
855.256	23041
855.39	22984
855.524	23086
855.658	23121
855.792	23098
855.926	23044
856.06	23227
856.194	23189
856.327	22961
856.461	22911
856.595	23022
856.729	23052
856.862	23113
856.996	23094
857.13	23151
857.263	23181
857.397	23079
857.53	23132
857.664	23170
857.797	23166
857.931	23140
858.064	23128
858.197	23208
858.331	23006
858.464	22889
858.597	23075
858.731	23067
858.864	23109
858.997	23079
859.13	23064
859.263	23124
859.396	23136
859.529	23067
859.662	22957
859.795	23079
859.928	23090
860.061	23178
860.194	23113
860.327	23216
860.46	23117
860.592	23292
860.725	23288
860.858	23235
860.99	23094
861.123	23064
861.256	22957
861.388	23151
861.521	23668
861.653	22900
861.786	22881
861.918	22892
862.05	22980
862.183	23033
862.315	22972
862.447	23128
862.58	23003
862.712	22805
862.844	22790
862.976	22839
863.108	22801
863.24	23197
863.372	22820
863.504	22725
863.636	22767
863.768	22763
863.9	22721
864.032	22748
864.164	22736
864.296	22774
864.428	22869
864.559	22892
864.691	22843
864.823	22801
864.954	22656
865.086	22717
865.217	22748
865.349	22588
865.48	22736
865.612	22668
865.743	22740
865.875	22694
866.006	22478
866.137	22660
866.269	22622
866.4	22599
866.531	22554
866.662	22596
866.793	22687
866.924	22535
867.055	22569
867.186	22622
867.317	22561
867.448	22432
867.579	22580
867.71	22504
867.841	22523
867.972	22443
868.103	22523
868.233	22531
868.364	22489
868.495	22679
868.625	22733
868.756	22972
868.886	22725
869.017	22892
869.147	22862
869.278	22847
869.408	22740
869.539	22763
869.669	23029
869.799	22839
869.929	22965
870.06	22953
870.19	22984
870.32	23185
870.45	23143
870.58	23208
870.71	23334
870.84	23303
870.97	23113
871.1	23151
871.23	23368
871.36	23448
871.489	23258
871.619	23429
871.749	23433
871.879	23497
872.008	23478
872.138	23497
872.267	23402
872.397	23296
872.526	23258
872.656	23273
872.785	23185
872.915	23429
873.044	23493
873.173	23558
873.303	23410
873.432	23486
873.561	23589
873.69	23486
873.819	23402
873.948	23459
874.077	23471
874.206	23395
874.335	23334
874.464	23448
874.593	23573
874.722	23520
874.851	23729
874.979	23668
875.108	23539
875.237	23455
875.365	23440
875.494	23566
875.623	23676
875.751	23714
875.88	23600
876.008	23817
876.136	23729
876.265	23980
876.393	24319
876.521	24239
876.65	24030
876.778	24038
876.906	23946
877.034	24038
877.162	23999
877.29	23927
877.418	23939
877.546	23965
877.674	23958
877.802	24041
877.93	23996
878.058	24049
878.185	23718
878.313	23977
878.441	24079
878.568	23718
878.696	23847
878.824	23908
878.951	24098
879.079	24049
879.206	24410
879.333	24220
879.461	24026
879.588	23999
879.715	24072
879.842	24136
879.97	24064
880.097	23828
880.224	23745
880.351	23779
880.478	23828
880.605	23718
880.732	23783
880.859	23931
880.986	23802
881.112	23836
881.239	23695
881.366	23566
881.493	23440
881.619	23398
881.746	23341
881.872	23330
881.999	23288
882.125	23200
882.252	23379
882.378	23337
882.505	23459
882.631	23269
882.757	23048
882.883	22991
883.01	23029
883.136	23041
883.262	22896
883.388	22873
883.514	22961
883.64	23083
883.766	22889
883.892	22828
884.018	22805
884.143	23025
884.269	23124
884.395	22721
884.52	22596
884.646	22675
884.772	22588
884.897	22592
885.023	22683
885.148	22866
885.274	22759
885.399	22736
885.524	22645
885.65	22717
885.775	22729
885.9	22622
886.025	22744
886.15	22729
886.275	22637
886.4	22497
886.525	22672
886.65	22557
886.775	22474
886.9	22767
887.025	22915
887.149	22550
887.274	22546
887.399	22409
887.523	22303
887.648	22386
887.773	22242
887.897	22447
888.021	22577
888.146	22348
888.27	22489
888.395	22352
888.519	22398
888.643	22402
888.767	22443
888.891	22333
889.015	22143
889.139	22337
889.263	22162
889.387	22295
889.511	22531
889.635	22192
889.759	22204
889.883	22116
890.006	22223
890.13	22303
890.254	22059
890.377	22109
890.501	22055
890.624	21774
890.748	21888
890.871	21755
890.995	21698
891.118	21603
891.241	21720
891.364	21739
891.488	21835
891.611	21732
891.734	21755
891.857	21827
891.98	21781
892.103	21759
892.226	21641
892.349	21743
892.471	21587
892.594	21675
892.717	21701
892.839	21644
892.962	21622
893.085	21545
893.207	21606
893.33	21439
893.452	21488
893.575	21591
893.697	21553
893.819	21717
893.941	21827
894.064	21701
894.186	21458
894.308	21447
894.43	21629
894.552	21671
894.674	21622
894.796	21435
894.918	21583
895.04	21614
895.161	21599
895.283	21542
895.405	21534
895.526	21542
895.648	21648
895.769	21599
895.891	21644
896.012	21671
896.134	21652
896.255	21614
896.376	21515
896.498	21572
896.619	21610
896.74	21644
896.861	21568
896.982	21907
897.103	22010
897.224	21785
897.345	21869
897.466	21686
897.587	21770
897.708	21789
897.828	21865
897.949	21698
898.07	21507
898.19	21686
898.311	21835
898.431	21610
898.552	21812
898.672	21842
898.792	21739
898.913	21637
899.033	21568
899.153	21644
899.273	21477
899.393	21435
899.513	21542
899.633	21629
899.753	21439
899.873	21397
899.993	21507
900.113	21370
900.232	21420
900.352	21355
900.472	21268
900.591	21142
900.711	21291
900.83	21096
900.95	21275
901.069	21302
901.189	21070
901.308	20845
901.427	20788
901.546	20921
901.665	20838
901.784	20781
901.904	20583
902.023	20518
902.141	20351
902.26	20370
902.379	20389
902.498	20282
902.617	20275
902.735	20324
902.854	20263
902.973	20218
903.091	19928
903.21	19811
903.328	19925
903.446	19894
903.565	19715
903.683	19746
903.801	19544
903.919	19670
904.038	19632
904.156	19472
904.274	19578
904.392	19480
904.51	19483
904.627	19533
904.745	19518
904.863	19441
904.981	19358
905.098	19240
905.216	19274
905.334	19259
905.451	19152
905.569	19141
905.686	19156
905.803	19103
905.921	18981
906.038	19069
906.155	19023
906.272	18814
906.389	18867
906.506	18616
906.623	18738
906.74	18700
906.857	18521
906.974	18544
907.091	18772
907.208	18745
907.324	18608
907.441	18574
907.557	18460
907.674	18388
907.79	18304
907.907	18323
908.023	18350
908.139	18399
908.256	18304
908.372	18311
908.488	18216
908.604	18045
908.72	18174
908.836	18057
908.952	17977
909.068	18041
909.184	18220
909.3	17977
909.415	18129
909.531	17920
909.647	17855
909.762	17863
909.878	17676
909.993	17805
910.108	17726
910.224	17771
910.339	17802
910.454	17539
910.57	17551
910.685	17471
910.8	17783
910.915	17714
911.03	17551
911.145	17372
911.259	17292
911.374	17452
911.489	17208
911.604	17284
911.718	17086
911.833	17193
911.947	17048
912.062	16908
912.176	17113
912.291	17064
912.405	17014
912.519	17322
912.633	17303
912.748	17132
912.862	17109
912.976	16923
913.09	16850
913.204	16854
913.318	16904
913.431	16991
913.545	17029
913.659	16965
913.772	16873
913.886	16828
914	16683
914.113	16801
914.226	16763
914.34	16824
914.453	16630
914.566	16721
914.68	16497
914.793	16466
914.906	16409
915.019	16166
915.132	16261
915.245	16287
915.358	16219
915.47	16287
915.583	16200
915.696	16154
915.809	16325
915.921	16303
916.034	16291
916.146	16196
916.259	16097
916.371	16272
916.483	16188
916.595	16048
916.708	16093
916.82	16021
916.932	15960
917.044	15964
917.156	16029
917.268	15831
917.38	15918
917.491	15766
917.603	15762
917.715	15850
917.826	15835
917.938	15846
918.049	15713
918.161	15854
918.272	15812
918.384	15911
918.495	15762
918.606	15549
918.717	15519
918.828	15561
918.939	15466
919.05	15492
919.161	15523
919.272	15412
919.383	15378
919.494	15587
919.604	15846
919.715	15530
919.826	15431
919.936	15519
920.047	15633
920.157	15595
920.267	15717
920.378	15500
920.488	15511
920.598	15739
920.708	15759
920.818	15538
920.928	15644
921.038	15857
921.148	15701
921.258	15386
921.368	15401
921.477	15264
921.587	15306
921.697	15131
921.806	15195
921.916	15085
922.025	14941
922.134	14868
922.244	14819
922.353	14883
922.462	14842
922.571	14613
922.68	14537
922.789	14533
922.898	14545
923.007	14419
923.116	14526
923.224	14511
923.333	14473
923.442	14419
923.55	14332
923.659	14377
923.767	14362
923.876	14317
923.984	14332
924.092	14267
924.201	14271
924.309	14210
924.417	14183
924.525	14210
924.633	14172
924.741	15097
924.849	13932
924.956	14172
925.064	13894
925.172	13681
925.279	13868
925.387	13928
925.494	13826
925.602	13925
925.709	14027
925.816	13731
925.924	13772
926.031	13864
926.138	13765
926.245	13845
926.352	13651
926.459	13814
926.566	13841
926.673	13784
926.779	13590
926.886	13601
926.993	13472
927.099	13422
927.206	13369
927.312	13274
927.419	13460
927.525	13247
927.631	13362
927.737	13259
927.843	13335
927.95	13152
928.056	13316
928.162	13228
928.267	13266
928.373	13769
928.479	13251
928.585	13027
928.69	13209
928.796	13110
928.901	13061
929.007	12958
929.112	13050
929.218	13069
929.323	12951
929.428	12943
929.533	13038
929.638	12802
929.743	12859
929.848	12909
929.953	12894
930.058	12677
930.163	12544
930.267	12498
930.372	12658
930.477	12471
930.581	12681
930.685	12642
930.79	12369
930.894	12582
930.998	12384
931.103	12597
931.207	12186
931.311	12079
931.415	11984
931.519	11828
931.623	11779
