Data from test_V78500241_2234.txt Node
Date: Fri Mar 25 15:57:16 CST 2022
User: usil
Spectrometer: V785-0024
Trigger mode: 0
Integration Time (sec): 4.000000E-1
Scans to average: 1
Nonlinearity correction enabled: false
Boxcar width: 0
Storing dark spectrum: false
XAxis mode: Wavelengths
Number of Pixels in Spectrum: 1024
>>>>>Begin Spectral Data<<<<<
801.071	29121
801.214	29079
801.356	28850
801.499	28816
801.641	28683
801.783	28679
801.926	28645
802.068	28694
802.211	28546
802.353	28618
802.496	28516
802.638	28341
802.78	28322
802.923	28215
803.065	28223
803.208	28337
803.35	28409
803.492	28531
803.635	28656
803.777	28550
803.919	28656
804.061	28809
804.204	28721
804.346	28516
804.488	28584
804.63	28683
804.773	28649
804.915	28721
805.057	28809
805.199	28649
805.341	28748
805.483	28873
805.626	28786
805.768	28645
805.91	28774
806.052	28790
806.194	28881
806.336	28892
806.478	28809
806.62	29006
806.762	29025
806.904	29102
807.046	29406
807.188	29231
807.33	29242
807.472	29303
807.614	29250
807.756	29254
807.898	29185
808.04	29090
808.182	29018
808.324	29102
808.465	29189
808.607	29387
808.749	29463
808.891	29497
809.033	29752
809.174	29524
809.316	29471
809.458	29478
809.6	29425
809.741	29573
809.883	29630
810.025	29824
810.166	29855
810.308	29779
810.45	29798
810.591	29661
810.733	29562
810.875	29444
811.016	29459
811.158	29417
811.299	29611
811.441	29794
811.582	29752
811.724	29596
811.865	29570
812.007	29505
812.148	29543
812.29	29642
812.431	29794
812.573	29783
812.714	30022
812.855	30057
812.997	30133
813.138	30285
813.279	30125
813.421	30110
813.562	30148
813.703	29969
813.845	29710
813.986	29459
814.127	29414
814.268	29277
814.41	29326
814.551	29261
814.692	29223
814.833	29113
814.974	29227
815.115	29315
815.256	29185
815.397	29200
815.539	29075
815.68	29056
815.821	29064
815.962	29102
816.103	29033
816.244	29102
816.385	28706
816.526	28790
816.666	28721
816.807	28603
816.948	28618
817.089	28580
817.23	28531
817.371	28569
817.512	28569
817.653	28516
817.793	28596
817.934	28592
818.075	28531
818.216	28618
818.356	28542
818.497	28382
818.638	28303
818.778	28382
818.919	28386
819.06	28531
819.2	28516
819.341	28584
819.481	28557
819.622	28790
819.762	29003
819.903	28942
820.043	28812
820.184	28721
820.324	28607
820.465	28748
820.605	28694
820.746	28660
820.886	28634
821.026	28618
821.167	28672
821.307	28736
821.447	28687
821.588	28584
821.728	28363
821.868	28207
822.008	28029
822.149	28143
822.289	28078
822.429	27762
822.569	27770
822.709	27625
822.849	27580
822.99	27587
823.13	27671
823.27	27629
823.41	27401
823.55	27180
823.69	27359
823.83	27427
823.97	27523
824.11	27188
824.25	27302
824.389	27199
824.529	27405
824.669	27431
824.809	27454
824.949	27359
825.089	27340
825.228	27393
825.368	27199
825.508	27104
825.648	27180
825.787	27211
825.927	27294
826.067	27116
826.206	27047
826.346	27214
826.485	27192
826.625	27173
826.765	27085
826.904	27089
827.044	27020
827.183	26960
827.323	26902
827.462	26883
827.601	26876
827.741	26811
827.88	26845
828.02	26861
828.159	26845
828.298	26887
828.437	26948
828.577	26640
828.716	26940
828.855	26659
828.994	26518
829.134	26526
829.273	26659
829.412	26655
829.551	26442
829.69	26533
829.829	26682
829.968	26697
830.107	26705
830.246	26617
830.385	26453
830.524	26488
830.663	26355
830.802	26415
830.941	26157
831.08	26221
831.219	26149
831.357	26313
831.496	26408
831.635	26050
831.774	26081
831.913	26062
832.051	25928
832.19	25944
832.329	26126
832.467	25932
832.606	25811
832.744	25822
832.883	25803
833.022	25731
833.16	25814
833.299	25909
833.437	25856
833.576	26103
833.714	25826
833.852	25845
833.991	26001
834.129	26016
834.267	25989
834.406	25845
834.544	25883
834.682	25837
834.821	25818
834.959	26145
835.097	25921
835.235	25883
835.373	25814
835.511	25860
835.65	25734
835.788	25833
835.926	25556
836.064	25609
836.202	25594
836.34	25582
836.478	25822
836.615	25689
836.753	25696
836.891	25757
837.029	25753
837.167	25658
837.305	25620
837.443	25658
837.58	25518
837.718	25643
837.856	25639
837.993	25502
838.131	25533
838.269	25449
838.406	25445
838.544	25343
838.681	25160
838.819	25148
838.956	25088
839.094	24973
839.231	25031
839.369	25133
839.506	25468
839.643	25247
839.781	25031
839.918	24966
840.055	25034
840.193	24935
840.33	24962
840.467	24833
840.604	24829
840.742	25202
840.879	24783
841.016	24741
841.153	24757
841.29	25057
841.427	24738
841.564	24958
841.701	24825
841.838	24863
841.975	24825
842.112	24829
842.249	24681
842.385	24658
842.522	24856
842.659	24665
842.796	24700
842.933	24730
843.069	24673
843.206	24502
843.343	24719
843.479	24612
843.616	24627
843.752	24273
843.889	24433
844.025	24597
844.162	24334
844.298	24612
844.435	24437
844.571	24285
844.708	24376
844.844	24551
844.98	24623
845.117	24471
845.253	24323
845.389	24277
845.525	24197
845.661	24289
845.798	24076
845.934	24205
846.07	24076
846.206	24300
846.342	24277
846.478	24148
846.614	24007
846.75	23923
846.886	23874
847.022	23836
847.158	24041
847.294	23882
847.429	23965
847.565	23901
847.701	24125
847.837	23535
847.972	23539
848.108	23649
848.244	23596
848.379	23360
848.515	23440
848.65	23417
848.786	23512
848.921	23448
849.057	23520
849.192	23528
849.328	23459
849.463	23425
849.598	23356
849.734	23455
849.869	23330
850.004	23334
850.14	23273
850.275	23189
850.41	23170
850.545	23315
850.68	23239
850.815	23155
850.95	23159
851.085	23376
851.22	23391
851.355	23254
851.49	23140
851.625	23223
851.76	23288
851.895	23143
852.03	23147
852.165	23178
852.299	23341
852.434	23288
852.569	23128
852.703	23174
852.838	23200
852.973	23391
853.107	23307
853.242	23014
853.376	23029
853.511	22987
853.645	23018
853.78	23124
853.914	23029
854.048	23056
854.183	22885
854.317	23136
854.451	23280
854.585	23006
854.72	23025
854.854	23044
854.988	23094
855.122	22919
855.256	22854
855.39	22984
855.524	22995
855.658	23022
855.792	22965
855.926	23071
856.06	22991
856.194	23136
856.327	23136
856.461	22915
856.595	23079
856.729	22942
856.862	23086
856.996	23140
857.13	23083
857.263	23102
857.397	23071
857.53	23056
857.664	23124
857.797	23060
857.931	23102
858.064	23003
858.197	23075
858.331	22942
858.464	23105
858.597	22904
858.731	22896
858.864	22923
858.997	23048
859.13	22976
859.263	23018
859.396	23071
859.529	23006
859.662	22995
859.795	22949
859.928	23048
860.061	23124
860.194	23197
860.327	22980
860.46	23083
860.592	23086
860.725	23189
860.858	23105
860.99	23151
861.123	22923
861.256	23056
861.388	23033
861.521	23661
861.653	22828
861.786	22790
861.918	22908
862.05	22930
862.183	22885
862.315	23048
862.447	22904
862.58	22889
862.712	22721
862.844	22698
862.976	22889
863.108	22759
863.24	23117
863.372	22660
863.504	22702
863.636	22687
863.768	22706
863.9	22706
864.032	22615
864.164	22767
864.296	22858
864.428	22812
864.559	22782
864.691	22790
864.823	22740
864.954	22824
865.086	22729
865.217	22607
865.349	22577
865.48	22592
865.612	22561
865.743	22778
865.875	22542
866.006	22577
866.137	22569
866.269	22588
866.4	22535
866.531	22481
866.662	22443
866.793	22367
866.924	22409
867.055	22538
867.186	22519
867.317	22329
867.448	22394
867.579	22561
867.71	22497
867.841	22447
867.972	22580
868.103	22455
868.233	22546
868.364	22527
868.495	22615
868.625	22744
868.756	22702
868.886	22691
869.017	22653
869.147	22911
869.278	22915
869.408	22698
869.539	22778
869.669	22790
869.799	22850
869.929	22892
870.06	22915
870.19	23029
870.32	23162
870.45	23090
870.58	23071
870.71	23242
870.84	23277
870.97	23102
871.1	23155
871.23	23322
871.36	23353
871.489	23235
871.619	23429
871.749	23140
871.879	23307
872.008	23497
872.138	23387
872.267	23280
872.397	23147
872.526	23124
872.656	23193
872.785	23170
872.915	23360
873.044	23554
873.173	23280
873.303	23509
873.432	23349
873.561	23433
873.69	23395
873.819	23379
873.948	23509
874.077	23425
874.206	23391
874.335	23417
874.464	23535
874.593	23535
874.722	23581
874.851	23630
874.979	23653
875.108	23604
875.237	23570
875.365	23391
875.494	23596
875.623	23615
875.751	23551
875.88	23596
876.008	23748
876.136	23870
876.265	23942
876.393	24011
876.521	23992
876.65	24133
876.778	23870
876.906	23931
877.034	23737
877.162	23901
877.29	23954
877.418	23965
877.546	23843
877.674	23969
877.802	23939
877.93	23946
878.058	23745
878.185	23710
878.313	23794
878.441	23870
878.568	23802
878.696	23798
878.824	23942
878.951	23828
879.079	24114
879.206	24330
879.333	24076
879.461	23931
879.588	23908
879.715	24049
879.842	24152
879.97	23885
880.097	23741
880.224	23718
880.351	23665
880.478	23817
880.605	23623
880.732	23752
880.859	23992
880.986	23687
881.112	23653
881.239	23570
881.366	23436
881.493	23318
881.619	23349
881.746	23318
881.872	23189
881.999	23299
882.125	23204
882.252	23318
882.378	23284
882.505	23436
882.631	23128
882.757	23025
882.883	22999
883.01	22957
883.136	22801
883.262	22847
883.388	22637
883.514	22881
883.64	23022
883.766	22968
883.892	22675
884.018	22702
884.143	22957
884.269	22873
884.395	22702
884.52	22550
884.646	22493
884.772	22531
884.897	22519
885.023	22580
885.148	22721
885.274	22828
885.399	22538
885.524	22634
885.65	22542
885.775	22596
885.9	22550
886.025	22771
886.15	22733
886.275	22493
886.4	22398
886.525	22470
886.65	22398
886.775	22500
886.9	22596
887.025	22698
887.149	22546
887.274	22280
887.399	22390
887.523	22303
887.648	22154
887.773	22284
887.897	22436
888.021	22424
888.146	22215
888.27	22390
888.395	22489
888.519	22246
888.643	22265
888.767	22432
888.891	22234
889.015	22086
889.139	22169
889.263	22010
889.387	22135
889.511	22223
889.635	22242
889.759	22105
889.883	22120
890.006	22154
890.13	22105
890.254	21979
890.377	21987
890.501	21861
890.624	21778
890.748	21800
890.871	21854
890.995	21641
891.118	21610
891.241	21603
891.364	21679
891.488	21759
891.611	21686
891.734	21762
891.857	21732
891.98	21656
892.103	21682
892.226	21587
892.349	21610
892.471	21412
892.594	21519
892.717	21557
892.839	21504
892.962	21526
893.085	21652
893.207	21519
893.33	21302
893.452	21420
893.575	21599
893.697	21561
893.819	21595
893.941	21774
894.064	21705
894.186	21511
894.308	21306
894.43	21564
894.552	21625
894.674	21606
894.796	21515
894.918	21435
895.04	21428
895.161	21564
895.283	21625
895.405	21549
895.526	21485
895.648	21519
895.769	21416
895.891	21504
896.012	21492
896.134	21519
896.255	21443
896.376	21545
896.498	21401
896.619	21538
896.74	21504
896.861	21625
896.982	21797
897.103	21838
897.224	21675
897.345	21823
897.466	21652
897.587	21614
897.708	21816
897.828	21751
897.949	21622
898.07	21462
898.19	21591
898.311	21831
898.431	21572
898.552	21641
898.672	21865
898.792	21743
898.913	21698
899.033	21576
899.153	21599
899.273	21298
899.393	21469
899.513	21393
899.633	21473
899.753	21420
899.873	21272
899.993	21355
900.113	21374
900.232	21374
900.352	21408
900.472	21188
900.591	21043
900.711	21249
900.83	21211
900.95	21165
901.069	21252
901.189	20990
901.308	20857
901.427	20735
901.546	20746
901.665	20686
901.784	20727
901.904	20503
902.023	20412
902.141	20362
902.26	20320
902.379	20294
902.498	20240
902.617	20221
902.735	20252
902.854	20183
902.973	20115
903.091	19928
903.21	19883
903.328	19875
903.446	19837
903.565	19605
903.683	19791
903.801	19616
903.919	19666
904.038	19628
904.156	19426
904.274	19548
904.392	19316
904.51	19392
904.627	19499
904.745	19457
904.863	19575
904.981	19293
905.098	19080
905.216	19072
905.334	19088
905.451	19107
905.569	19023
905.686	19099
905.803	19072
905.921	18844
906.038	18977
906.155	18920
906.272	18753
906.389	18772
906.506	18593
906.623	18601
906.74	18544
906.857	18559
906.974	18506
907.091	18646
907.208	18677
907.324	18642
907.441	18517
907.557	18330
907.674	18342
907.79	18281
907.907	18247
908.023	18407
908.139	18270
908.256	18361
908.372	18213
908.488	18140
908.604	18110
908.72	17992
908.836	18038
908.952	17988
909.068	18026
909.184	18072
909.3	17988
909.415	18041
909.531	18015
909.647	17790
909.762	17684
909.878	17756
909.993	17729
910.108	17722
910.224	17665
910.339	17676
910.454	17623
910.57	17482
910.685	17471
910.8	17764
910.915	17600
911.03	17539
911.145	17360
911.259	17311
911.374	17353
911.489	17265
911.604	17147
911.718	17006
911.833	17086
911.947	16961
912.062	16839
912.176	17033
912.291	16965
912.405	17052
912.519	17265
912.633	17178
912.748	17056
912.862	16972
912.976	16873
913.09	16797
913.204	16736
913.318	16748
913.431	16896
913.545	16930
913.659	16927
913.772	16793
913.886	16702
914	16573
914.113	16702
914.226	16672
914.34	16755
914.453	16455
914.566	16702
914.68	16470
914.793	16481
914.906	16257
915.019	16223
915.132	16215
915.245	16226
915.358	16181
915.47	16181
915.583	16181
915.696	16147
915.809	16276
915.921	16348
916.034	16124
916.146	16067
916.259	16017
916.371	16093
916.483	16128
916.595	16067
916.708	15937
916.82	15979
916.932	16006
917.044	16040
917.156	15831
917.268	15861
917.38	15903
917.491	15751
917.603	15804
917.715	15869
917.826	15953
917.938	15584
918.049	15633
918.161	15785
918.272	15911
918.384	15751
918.495	15629
918.606	15660
918.717	15519
918.828	15580
918.939	15530
919.05	15511
919.161	15454
919.272	15344
919.383	15405
919.494	15549
919.604	15762
919.715	15530
919.826	15447
919.936	15519
920.047	15618
920.157	15443
920.267	15698
920.378	15504
920.488	15378
920.598	15568
920.708	15755
920.818	15603
920.928	15625
921.038	15793
921.148	15682
921.258	15393
921.368	15313
921.477	15272
921.587	15154
921.697	15051
921.806	15157
921.916	15104
922.025	14796
922.134	14804
922.244	14746
922.353	14845
922.462	14602
922.571	14583
922.68	14537
922.789	14347
922.898	14434
923.007	14495
923.116	14522
923.224	14480
923.333	14419
923.442	14408
923.55	14355
923.659	14355
923.767	14351
923.876	14229
923.984	14381
924.092	14092
924.201	14225
924.309	14218
924.417	14161
924.525	14103
924.633	14126
924.741	14823
924.849	13982
924.956	14062
925.064	13887
925.172	13852
925.279	13822
925.387	13894
925.494	13890
925.602	13894
925.709	13811
925.816	13746
925.924	13822
926.031	13841
926.138	13772
926.245	13708
926.352	13769
926.459	13845
926.566	13788
926.673	13605
926.779	13537
926.886	13559
926.993	13407
927.099	13282
927.206	13346
927.312	13274
927.419	13308
927.525	13324
927.631	13362
927.737	13285
927.843	13072
927.95	13042
928.056	13122
928.162	13152
928.267	13255
928.373	13734
928.479	13187
928.585	12962
928.69	13133
928.796	13072
928.901	12977
929.007	12791
929.112	12989
929.218	12905
929.323	12920
929.428	12939
929.533	12935
929.638	12848
929.743	12814
929.848	12875
929.953	12776
930.058	12726
930.163	12528
930.267	12616
930.372	12551
930.477	12437
930.581	12642
930.685	12494
930.79	12460
930.894	12399
930.998	12414
931.103	12578
931.207	12129
931.311	12053
931.415	11946
931.519	11824
931.623	11688
