Data from test_V78500241_925.txt Node
Date: Fri Mar 25 15:48:12 CST 2022
User: usil
Spectrometer: V785-0024
Trigger mode: 0
Integration Time (sec): 4.000000E-1
Scans to average: 1
Nonlinearity correction enabled: false
Boxcar width: 0
Storing dark spectrum: false
XAxis mode: Wavelengths
Number of Pixels in Spectrum: 1024
>>>>>Begin Spectral Data<<<<<
801.071	28135
801.214	27994
801.356	27857
801.499	27838
801.641	27625
801.783	27804
801.926	27694
802.068	27743
802.211	27561
802.353	27549
802.496	27382
802.638	27378
802.78	27325
802.923	27367
803.065	27192
803.208	27340
803.35	27412
803.492	27367
803.635	27469
803.777	27431
803.919	27587
804.061	27751
804.204	27652
804.346	27534
804.488	27272
804.63	27519
804.773	27469
804.915	27504
805.057	27564
805.199	27500
805.341	27713
805.483	27648
805.626	27618
805.768	27728
805.91	27557
806.052	27603
806.194	27610
806.336	27854
806.478	27789
806.62	27831
806.762	27854
806.904	28010
807.046	28162
807.188	28032
807.33	27994
807.472	28257
807.614	28067
807.756	28029
807.898	27994
808.04	27880
808.182	27903
808.324	27975
808.465	27949
808.607	28177
808.749	28280
808.891	28253
809.033	28451
809.174	28348
809.316	28310
809.458	28268
809.6	28295
809.741	28481
809.883	28516
810.025	28672
810.166	28816
810.308	28694
810.45	28641
810.591	28497
810.733	28280
810.875	28413
811.016	28325
811.158	28497
811.299	28417
811.441	28607
811.582	28516
811.724	28356
811.865	28238
812.007	28405
812.148	28352
812.29	28371
812.431	28675
812.573	28706
812.714	28767
812.855	28892
812.997	28991
813.138	29124
813.279	29052
813.421	29090
813.562	28915
813.703	28660
813.845	28630
813.986	28401
814.127	28230
814.268	28234
814.41	28162
814.551	28078
814.692	28185
814.833	28143
814.974	27960
815.115	27968
815.256	27972
815.397	27998
815.539	27983
815.68	27838
815.821	27774
815.962	27918
816.103	27816
816.244	27778
816.385	27766
816.526	27736
816.666	27386
816.807	27336
816.948	27454
817.089	27515
817.23	27351
817.371	27310
817.512	27355
817.653	27321
817.793	27287
817.934	27298
818.075	27382
818.216	27355
818.356	27424
818.497	27245
818.638	27036
818.778	27176
818.919	27005
819.06	27093
819.2	27233
819.341	27401
819.481	27241
819.622	27420
819.762	27618
819.903	27580
820.043	27386
820.184	27466
820.324	27439
820.465	27583
820.605	27427
820.746	27374
820.886	27310
821.026	27549
821.167	27576
821.307	27473
821.447	27264
821.588	27211
821.728	27135
821.868	26914
822.008	26910
822.149	26944
822.289	26940
822.429	26674
822.569	26484
822.709	26541
822.849	26488
822.99	26442
823.13	26202
823.27	26347
823.41	26176
823.55	26229
823.69	26142
823.83	26282
823.97	26077
824.11	26031
824.25	25883
824.389	26020
824.529	25982
824.669	26050
824.809	26172
824.949	26016
825.089	26088
825.228	25955
825.368	25784
825.508	25841
825.648	25894
825.787	25932
825.927	25940
826.067	25753
826.206	25811
826.346	25982
826.485	25963
826.625	25894
826.765	26031
826.904	25894
827.044	25689
827.183	25609
827.323	25613
827.462	25620
827.601	25670
827.741	25586
827.88	25655
828.02	25479
828.159	25674
828.298	25647
828.437	25632
828.577	25529
828.716	25670
828.855	25499
828.994	25335
829.134	25168
829.273	25384
829.412	25232
829.551	25278
829.69	25190
829.829	25198
829.968	25362
830.107	25339
830.246	25343
830.385	25312
830.524	25076
830.663	25069
830.802	25046
830.941	24958
831.08	24905
831.219	25061
831.357	25038
831.496	25107
831.635	24894
831.774	24810
831.913	24814
832.051	24684
832.19	24745
832.329	24688
832.467	24391
832.606	24517
832.744	24426
832.883	24467
833.022	24525
833.16	24547
833.299	24639
833.437	24547
833.576	24601
833.714	24631
833.852	24631
833.991	24589
834.129	24738
834.267	24669
834.406	24601
834.544	24608
834.682	24635
834.821	24627
834.959	24772
835.097	24513
835.235	24669
835.373	24555
835.511	24601
835.65	24620
835.788	24483
835.926	24300
836.064	24216
836.202	24315
836.34	24391
836.478	24574
836.615	24376
836.753	24486
836.891	24361
837.029	24585
837.167	24361
837.305	24380
837.443	24270
837.58	24426
837.718	24369
837.856	24197
837.993	24178
838.131	24384
838.269	24114
838.406	24190
838.544	24125
838.681	23859
838.819	23836
838.956	23794
839.094	23619
839.231	23661
839.369	23912
839.506	24079
839.643	24083
839.781	23798
839.918	23672
840.055	23752
840.193	23783
840.33	23676
840.467	23623
840.604	23703
840.742	23901
840.879	23520
841.016	23649
841.153	23471
841.29	23707
841.427	23649
841.564	23817
841.701	23543
841.838	23668
841.975	23619
842.112	23493
842.249	23421
842.385	23406
842.522	23630
842.659	23425
842.796	23440
842.933	23452
843.069	23337
843.206	23436
843.343	23535
843.479	23478
843.616	23379
843.752	23121
843.889	23197
844.025	23315
844.162	23223
844.298	23246
844.435	23140
844.571	23178
844.708	23193
844.844	23273
844.98	23277
845.117	23356
845.253	23029
845.389	22995
845.525	23041
845.661	23052
845.798	22900
845.934	23025
846.07	22831
846.206	22923
846.342	23048
846.478	22828
846.614	22675
846.75	22634
846.886	22668
847.022	22675
847.158	22557
847.294	22672
847.429	22592
847.565	22577
847.701	22877
847.837	22402
847.972	22333
848.108	22440
848.244	22455
848.379	22219
848.515	22082
848.65	22166
848.786	22226
848.921	22181
849.057	22314
849.192	22291
849.328	22379
849.463	22322
849.598	22032
849.734	22101
849.869	22029
850.004	21979
850.14	22109
850.275	21991
850.41	21922
850.545	21884
850.68	21956
850.815	22006
850.95	22078
851.085	22177
851.22	22139
851.355	21972
851.49	21892
851.625	21930
851.76	21831
851.895	21842
852.03	21956
852.165	21991
852.299	21998
852.434	22124
852.569	21994
852.703	21918
852.838	22109
852.973	22234
853.107	22074
853.242	21899
853.376	21831
853.511	21724
853.645	21755
853.78	21972
853.914	21888
854.048	21941
854.183	21720
854.317	21743
854.451	21987
854.585	21865
854.72	21637
854.854	21926
854.988	21781
855.122	21827
855.256	21610
855.39	21778
855.524	21819
855.658	21838
855.792	21823
855.926	21842
856.06	21850
856.194	21888
856.327	21831
856.461	21800
856.595	21652
856.729	21762
856.862	21888
856.996	21835
857.13	21861
857.263	21937
857.397	21895
857.53	21838
857.664	21987
857.797	21876
857.931	21915
858.064	21895
858.197	21983
858.331	21812
858.464	21800
858.597	21713
858.731	21785
858.864	21781
858.997	21736
859.13	21724
859.263	21732
859.396	21930
859.529	21614
859.662	21724
859.795	21804
859.928	21816
860.061	21953
860.194	21994
860.327	21838
860.46	21937
860.592	21846
860.725	21945
860.858	21903
860.99	21762
861.123	21759
861.256	21713
861.388	21876
861.521	22485
861.653	21804
861.786	21591
861.918	21701
862.05	21713
862.183	21736
862.315	21774
862.447	21720
862.58	21652
862.712	21500
862.844	21542
862.976	21500
863.108	21572
863.24	21846
863.372	21496
863.504	21485
863.636	21538
863.768	21538
863.9	21507
864.032	21485
864.164	21431
864.296	21606
864.428	21618
864.559	21603
864.691	21614
864.823	21454
864.954	21466
865.086	21614
865.217	21439
865.349	21302
865.48	21359
865.612	21283
865.743	21492
865.875	21443
866.006	21504
866.137	21428
866.269	21523
866.4	21443
866.531	21378
866.662	21173
866.793	21241
866.924	21252
867.055	21466
867.186	21340
867.317	21279
867.448	21184
867.579	21283
867.71	21116
867.841	21112
867.972	21252
868.103	21275
868.233	21237
868.364	21325
868.495	21431
868.625	21614
868.756	21644
868.886	21454
869.017	21538
869.147	21549
869.278	21705
869.408	21656
869.539	21523
869.669	21606
869.799	21511
869.929	21762
870.06	21686
870.19	21888
870.32	21842
870.45	21926
870.58	21956
870.71	22067
870.84	22120
870.97	21949
871.1	21964
871.23	22207
871.36	22067
871.489	22036
871.619	22207
871.749	22177
871.879	22242
872.008	22230
872.138	22124
872.267	22154
872.397	22067
872.526	22032
872.656	21987
872.785	22078
872.915	22166
873.044	22299
873.173	22246
873.303	22223
873.432	22284
873.561	22322
873.69	22109
873.819	22112
873.948	22211
874.077	22268
874.206	22025
874.335	22128
874.464	22352
874.593	22417
874.722	22394
874.851	22470
874.979	22405
875.108	22470
875.237	22329
875.365	22398
875.494	22356
875.623	22474
875.751	22371
875.88	22474
876.008	22615
876.136	22565
876.265	22774
876.393	22843
876.521	22968
876.65	22877
876.778	22812
876.906	22721
877.034	22694
877.162	22778
877.29	22786
877.418	22858
877.546	22809
877.674	22843
877.802	22812
877.93	22683
878.058	22592
878.185	22447
878.313	22679
878.441	22713
878.568	22630
878.696	22630
878.824	22835
878.951	22748
879.079	22927
879.206	23079
879.333	22900
879.461	22679
879.588	22915
879.715	22828
879.842	23083
879.97	22835
880.097	22455
880.224	22588
880.351	22626
880.478	22584
880.605	22523
880.732	22630
880.859	22809
880.986	22603
881.112	22554
881.239	22424
881.366	22367
881.493	22325
881.619	22139
881.746	22120
881.872	22185
881.999	22131
882.125	22116
882.252	22287
882.378	22097
882.505	22188
882.631	22013
882.757	21892
882.883	21979
883.01	21972
883.136	21838
883.262	21717
883.388	21682
883.514	21884
883.64	21899
883.766	21717
883.892	21595
884.018	21629
884.143	21778
884.269	21907
884.395	21564
884.52	21408
884.646	21610
884.772	21504
884.897	21382
885.023	21439
885.148	21477
885.274	21545
885.399	21549
885.524	21504
885.65	21641
885.775	21477
885.9	21572
886.025	21610
886.15	21504
886.275	21340
886.4	21378
886.525	21408
886.65	21302
886.775	21249
886.9	21504
887.025	21572
887.149	21469
887.274	21279
887.399	21348
887.523	21245
887.648	21283
887.773	21116
887.897	21252
888.021	21256
888.146	21180
888.27	21180
888.395	21363
888.519	21268
888.643	21294
888.767	21161
888.891	21112
889.015	21161
889.139	21043
889.263	20944
889.387	21245
889.511	21268
889.635	21127
889.759	21047
889.883	21017
890.006	21009
890.13	21100
890.254	20876
890.377	21013
890.501	20720
890.624	20716
890.748	20773
890.871	20743
890.995	20549
891.118	20598
891.241	20621
891.364	20629
891.488	20632
891.611	20613
891.734	20530
891.857	20712
891.98	20594
892.103	20701
892.226	20488
892.349	20514
892.471	20469
892.594	20598
892.717	20457
892.839	20381
892.962	20541
893.085	20545
893.207	20522
893.33	20362
893.452	20446
893.575	20419
893.697	20389
893.819	20590
893.941	20773
894.064	20609
894.186	20415
894.308	20431
894.43	20598
894.552	20549
894.674	20556
894.796	20507
894.918	20575
895.04	20366
895.161	20648
895.283	20492
895.405	20419
895.526	20454
895.648	20419
895.769	20587
895.891	20465
896.012	20598
896.134	20651
896.255	20522
896.376	20442
896.498	20427
896.619	20469
896.74	20324
896.861	20522
896.982	20788
897.103	20891
897.224	20777
897.345	20689
897.466	20746
897.587	20689
897.708	20849
897.828	20849
897.949	20693
898.07	20476
898.19	20663
898.311	20796
898.431	20670
898.552	20689
898.672	20876
898.792	20853
898.913	20682
899.033	20579
899.153	20431
899.273	20393
899.393	20450
899.513	20545
899.633	20461
899.753	20431
899.873	20396
899.993	20594
900.113	20377
900.232	20473
900.352	20309
900.472	20343
900.591	20240
900.711	20119
900.83	20122
900.95	20328
901.069	20324
901.189	20062
901.308	19921
901.427	19791
901.546	19955
901.665	19898
901.784	19830
901.904	19586
902.023	19635
902.141	19472
902.26	19312
902.379	19415
902.498	19278
902.617	19255
902.735	19381
902.854	19274
902.973	19194
903.091	19012
903.21	18939
903.328	18916
903.446	18897
903.565	18837
903.683	18722
903.801	18650
903.919	18703
904.038	18749
904.156	18639
904.274	18650
904.392	18452
904.51	18521
904.627	18490
904.745	18509
904.863	18536
904.981	18357
905.098	18129
905.216	18171
905.334	18201
905.451	18327
905.569	18152
905.686	18209
905.803	18152
905.921	18041
906.038	18095
906.155	18026
906.272	17874
906.389	17977
906.506	17786
906.623	17802
906.74	17760
906.857	17505
906.974	17672
907.091	17920
907.208	17893
907.324	17859
907.441	17767
907.557	17391
907.674	17562
907.79	17368
907.907	17345
908.023	17349
908.139	17402
908.256	17493
908.372	17318
908.488	17254
908.604	17200
908.72	17200
908.836	17102
908.952	17273
909.068	17246
909.184	17200
909.3	17128
909.415	17155
909.531	17162
909.647	16957
909.762	16854
909.878	16824
909.993	16847
910.108	16858
910.224	16824
910.339	16919
910.454	16744
910.57	16710
910.685	16569
910.8	16942
910.915	16831
911.03	16713
911.145	16462
911.259	16508
911.374	16432
911.489	16318
911.604	16371
911.718	16143
911.833	16109
911.947	16196
912.062	16074
912.176	16166
912.291	16162
912.405	16234
912.519	16527
912.633	16421
912.748	16177
912.862	16154
912.976	16025
913.09	15895
913.204	15949
913.318	16040
913.431	15987
913.545	16154
913.659	16074
913.772	15956
913.886	15823
914	15793
914.113	15869
914.226	15888
914.34	15926
914.453	15751
914.566	15827
914.68	15679
914.793	15660
914.906	15428
915.019	15492
915.132	15283
915.245	15321
915.358	15408
915.47	15530
915.583	15382
915.696	15412
915.809	15519
915.921	15515
916.034	15340
916.146	15226
916.259	15291
916.371	15367
916.483	15325
916.595	15241
916.708	15287
916.82	15192
916.932	15116
917.044	15131
917.156	15119
917.268	15013
917.38	15005
917.491	15066
917.603	14906
917.715	15119
917.826	15138
917.938	14994
918.049	14826
918.161	14990
918.272	15157
918.384	15142
918.495	15009
918.606	14746
918.717	14796
918.828	14830
918.939	14876
919.05	14773
919.161	14769
919.272	14560
919.383	14606
919.494	14788
919.604	15039
919.715	14853
919.826	14670
919.936	14712
920.047	14811
920.157	14762
920.267	14998
920.378	14834
920.488	14708
920.598	14906
920.708	14998
920.818	14933
920.928	14823
921.038	15001
921.148	15066
921.258	14746
921.368	14579
921.477	14602
921.587	14457
921.697	14339
921.806	14446
921.916	14404
922.025	14161
922.134	14111
922.244	14187
922.353	14157
922.462	14058
922.571	13917
922.68	13887
922.789	13814
922.898	13761
923.007	13658
923.116	13803
923.224	13674
923.333	13708
923.442	13563
923.55	13601
923.659	13628
923.767	13643
923.876	13575
923.984	13651
924.092	13434
924.201	13575
924.309	13525
924.417	13563
924.525	13426
924.633	13400
924.741	14351
924.849	13217
924.956	13419
925.064	13225
925.172	13076
925.279	13110
925.387	13141
925.494	13137
925.602	13381
925.709	13255
925.816	13129
925.924	13088
926.031	13183
926.138	13019
926.245	13137
926.352	12966
926.459	13190
926.566	13221
926.673	13050
926.779	12920
926.886	12916
926.993	12764
927.099	12730
927.206	12722
927.312	12662
927.419	12711
927.525	12738
927.631	12749
927.737	12730
927.843	12566
927.95	12479
928.056	12532
928.162	12540
928.267	12642
928.373	13091
928.479	12669
928.585	12456
928.69	12513
928.796	12623
928.901	12380
929.007	12342
929.112	12350
929.218	12380
929.323	12281
929.428	12308
929.533	12441
929.638	12201
929.743	12251
929.848	12190
929.953	12209
930.058	12171
930.163	12045
930.267	12038
930.372	12060
930.477	11912
930.581	12171
930.685	11969
930.79	11893
930.894	11805
930.998	11828
931.103	11939
931.207	11600
931.311	11520
931.415	11467
931.519	11201
931.623	11197
