Data from test_V78500241_128.txt Node
Date: Fri Mar 25 15:42:41 CST 2022
User: usil
Spectrometer: V785-0024
Trigger mode: 0
Integration Time (sec): 4.000000E-1
Scans to average: 1
Nonlinearity correction enabled: false
Boxcar width: 0
Storing dark spectrum: false
XAxis mode: Wavelengths
Number of Pixels in Spectrum: 1024
>>>>>Begin Spectral Data<<<<<
801.071	30296
801.214	30125
801.356	29973
801.499	29798
801.641	29809
801.783	29748
801.926	29805
802.068	29813
802.211	29661
802.353	29657
802.496	29421
802.638	29372
802.78	29406
802.923	29284
803.065	29299
803.208	29288
803.35	29417
803.492	29406
803.635	29684
803.777	29379
803.919	29387
804.061	29767
804.204	29547
804.346	29383
804.488	29474
804.63	29562
804.773	29417
804.915	29501
805.057	29627
805.199	29497
805.341	29600
805.483	29638
805.626	29668
805.768	29497
805.91	29627
806.052	29642
806.194	29562
806.336	29958
806.478	29535
806.62	29646
806.762	29649
806.904	29893
807.046	29977
807.188	29996
807.33	30106
807.472	30018
807.614	29931
807.756	29942
807.898	29954
808.04	29775
808.182	29729
808.324	29878
808.465	29794
808.607	29942
808.749	30171
808.891	30369
809.033	30273
809.174	30125
809.316	30102
809.458	30201
809.6	30262
809.741	30228
809.883	30258
810.025	30448
810.166	30342
810.308	30349
810.45	30201
810.591	30251
810.733	30186
810.875	30243
811.016	29916
811.158	29897
811.299	30243
811.441	30251
811.582	30270
811.724	30205
811.865	30041
812.007	30053
812.148	30136
812.29	30239
812.431	30228
812.573	30467
812.714	30574
812.855	30502
812.997	30566
813.138	30852
813.279	30700
813.421	30555
813.562	30608
813.703	30418
813.845	30407
813.986	30159
814.127	29980
814.268	29722
814.41	29790
814.551	29779
814.692	29703
814.833	29566
814.974	29840
815.115	29775
815.256	29493
815.397	29497
815.539	29722
815.68	29493
815.821	29353
815.962	29505
816.103	29463
816.244	29345
816.385	29189
816.526	29223
816.666	29014
816.807	28930
816.948	28999
817.089	29018
817.23	29056
817.371	28938
817.512	28976
817.653	28892
817.793	28877
817.934	28786
818.075	28961
818.216	28839
818.356	28717
818.497	28626
818.638	28710
818.778	28611
818.919	28504
819.06	28622
819.2	28573
819.341	28733
819.481	28820
819.622	29022
819.762	29189
819.903	29136
820.043	29022
820.184	28953
820.324	28847
820.465	29014
820.605	28911
820.746	28995
820.886	28672
821.026	28809
821.167	28824
821.307	28892
821.447	28630
821.588	28649
821.728	28596
821.868	28443
822.008	28268
822.149	28131
822.289	28082
822.429	27983
822.569	27884
822.709	27892
822.849	27610
822.99	27641
823.13	27572
823.27	27614
823.41	27439
823.55	27439
823.69	27549
823.83	27545
823.97	27473
824.11	27374
824.25	27237
824.389	27260
824.529	27367
824.669	27096
824.809	27321
824.949	27439
825.089	27226
825.228	27249
825.368	27070
825.508	27127
825.648	26963
825.787	27138
825.927	27165
826.067	27116
826.206	27039
826.346	27104
826.485	27218
826.625	27138
826.765	27245
826.904	26963
827.044	26864
827.183	26834
827.323	26625
827.462	26792
827.601	26575
827.741	26815
827.88	26720
828.02	26594
828.159	26724
828.298	26773
828.437	26693
828.577	26549
828.716	26823
828.855	26541
828.994	26488
829.134	26400
829.273	26511
829.412	26351
829.551	26301
829.69	26267
829.829	26389
829.968	26362
830.107	26488
830.246	26259
830.385	26275
830.524	26305
830.663	26157
830.802	25856
830.941	26092
831.08	25909
831.219	25989
831.357	25982
831.496	26176
831.635	25757
831.774	25700
831.913	25685
832.051	25700
832.19	25727
832.329	25647
832.467	25533
832.606	25434
832.744	25362
832.883	25514
833.022	25483
833.16	25449
833.299	25597
833.437	25476
833.576	25563
833.714	25605
833.852	25632
833.991	25620
834.129	25540
834.267	25594
834.406	25567
834.544	25647
834.682	25426
834.821	25537
834.959	25723
835.097	25483
835.235	25563
835.373	25544
835.511	25468
835.65	25327
835.788	25331
835.926	25145
836.064	25084
836.202	25126
836.34	25289
836.478	25464
836.615	25381
836.753	25187
836.891	25476
837.029	25316
837.167	25240
837.305	25202
837.443	25156
837.58	25190
837.718	25122
837.856	25266
837.993	25122
838.131	25053
838.269	25148
838.406	25031
838.544	25034
838.681	24829
838.819	24692
838.956	24597
839.094	24585
839.231	24665
839.369	24677
839.506	25038
839.643	24798
839.781	24578
839.918	24433
840.055	24399
840.193	24388
840.33	24414
840.467	24464
840.604	24437
840.742	24650
840.879	24357
841.016	24372
841.153	24277
841.29	24384
841.427	24273
841.564	24376
841.701	24308
841.838	24384
841.975	24323
842.112	24220
842.249	24144
842.385	24224
842.522	24285
842.659	24247
842.796	24003
842.933	24091
843.069	24015
843.206	23977
843.343	24159
843.479	24053
843.616	23946
843.752	23707
843.889	23916
844.025	23931
844.162	23767
844.298	23874
844.435	23764
844.571	23714
844.708	23901
844.844	23912
844.98	23855
845.117	23836
845.253	23680
845.389	23741
845.525	23608
845.661	23676
845.798	23531
845.934	23474
846.07	23562
846.206	23684
846.342	23619
846.478	23402
846.614	23162
846.75	23231
846.886	23132
847.022	23220
847.158	23185
847.294	23280
847.429	23181
847.565	23174
847.701	23474
847.837	22854
847.972	22919
848.108	23117
848.244	22987
848.379	22653
848.515	22801
848.65	22641
848.786	22759
848.921	22858
849.057	22908
849.192	22957
849.328	22797
849.463	22752
849.598	22611
849.734	22691
849.869	22584
850.004	22466
850.14	22584
850.275	22470
850.41	22379
850.545	22402
850.68	22497
850.815	22436
850.95	22481
851.085	22691
851.22	22645
851.355	22462
851.49	22478
851.625	22474
851.76	22390
851.895	22432
852.03	22356
852.165	22462
852.299	22573
852.434	22508
852.569	22512
852.703	22394
852.838	22417
852.973	22569
853.107	22542
853.242	22459
853.376	22333
853.511	22128
853.645	22116
853.78	22333
853.914	22246
854.048	22306
854.183	22261
854.317	22257
854.451	22421
854.585	22272
854.72	22246
854.854	22284
854.988	22166
855.122	22192
855.256	22070
855.39	22234
855.524	22329
855.658	22230
855.792	22246
855.926	22261
856.06	22135
856.194	22402
856.327	22344
856.461	22063
856.595	22181
856.729	22147
856.862	22318
856.996	22276
857.13	22265
857.263	22428
857.397	22242
857.53	22131
857.664	22211
857.797	22238
857.931	22341
858.064	22223
858.197	22306
858.331	22242
858.464	22097
858.597	22048
858.731	22078
858.864	22166
858.997	22090
859.13	22116
859.263	22226
859.396	22246
859.529	22223
859.662	21983
859.795	22215
859.928	22147
860.061	22360
860.194	22352
860.327	22223
860.46	22059
860.592	22287
860.725	22276
860.858	22272
860.99	22192
861.123	22097
861.256	22059
861.388	22181
861.521	22656
861.653	22029
861.786	21975
861.918	22082
862.05	22185
862.183	22242
862.315	22215
862.447	22238
862.58	22249
862.712	21869
862.844	21975
862.976	21941
863.108	21831
863.24	22318
863.372	21755
863.504	21766
863.636	21770
863.768	21876
863.9	21899
864.032	21720
864.164	21682
864.296	21842
864.428	21972
864.559	21846
864.691	21850
864.823	21819
864.954	21709
865.086	21804
865.217	21690
865.349	21709
865.48	21591
865.612	21709
865.743	21812
865.875	21717
866.006	21622
866.137	21785
866.269	21819
866.4	21705
866.531	21625
866.662	21778
866.793	21686
866.924	21671
867.055	21610
867.186	21660
867.317	21652
867.448	21583
867.579	21572
867.71	21599
867.841	21629
867.972	21694
868.103	21629
868.233	21625
868.364	21675
868.495	21762
868.625	21846
868.756	22067
868.886	21785
869.017	21835
869.147	21865
869.278	21975
869.408	21850
869.539	21876
869.669	21949
869.799	22010
869.929	22010
870.06	21941
870.19	22238
870.32	22158
870.45	22181
870.58	22318
870.71	22306
870.84	22356
870.97	22466
871.1	22219
871.23	22367
871.36	22470
871.489	22379
871.619	22421
871.749	22344
871.879	22557
872.008	22538
872.138	22466
872.267	22451
872.397	22314
872.526	22185
872.656	22215
872.785	22386
872.915	22447
873.044	22504
873.173	22333
873.303	22561
873.432	22603
873.561	22554
873.69	22573
873.819	22497
873.948	22561
874.077	22497
874.206	22390
874.335	22493
874.464	22656
874.593	22683
874.722	22649
874.851	22767
874.979	22748
875.108	22847
875.237	22615
875.365	22729
875.494	22660
875.623	22790
875.751	22622
875.88	22691
876.008	22892
876.136	22892
876.265	23181
876.393	23086
876.521	23250
876.65	23193
876.778	23170
876.906	23052
877.034	23071
877.162	23014
877.29	23006
877.418	22984
877.546	23086
877.674	23098
877.802	23105
877.93	22984
878.058	23010
878.185	22942
878.313	22919
878.441	23056
878.568	22847
878.696	22930
878.824	23037
878.951	23220
879.079	23079
879.206	23376
879.333	23258
879.461	23235
879.588	23170
879.715	23334
879.842	23334
879.97	23147
880.097	22900
880.224	22828
880.351	22858
880.478	22968
880.605	22919
880.732	22850
880.859	23090
880.986	23025
881.112	22828
881.239	22767
881.366	22634
881.493	22611
881.619	22417
881.746	22478
881.872	22459
881.999	22333
882.125	22356
882.252	22546
882.378	22508
882.505	22519
882.631	22402
882.757	22150
882.883	22242
883.01	22078
883.136	22059
883.262	22040
883.388	21979
883.514	22169
883.64	22226
883.766	22162
883.892	21869
884.018	22044
884.143	22021
884.269	22166
884.395	21804
884.52	21751
884.646	21888
884.772	21637
884.897	21583
885.023	21705
885.148	21941
885.274	21903
885.399	21842
885.524	21762
885.65	21770
885.775	21743
885.9	21713
886.025	21861
886.15	21835
886.275	21709
886.4	21599
886.525	21717
886.65	21656
886.775	21580
886.9	21838
887.025	22112
887.149	21667
887.274	21466
887.399	21477
887.523	21561
887.648	21420
887.773	21393
887.897	21545
888.021	21496
888.146	21557
888.27	21557
888.395	21637
888.519	21553
888.643	21488
888.767	21564
888.891	21283
889.015	21279
889.139	21302
889.263	21294
889.387	21439
889.511	21408
889.635	21405
889.759	21165
889.883	21321
890.006	21211
890.13	21298
890.254	21169
890.377	21123
890.501	21009
890.624	20982
890.748	21104
890.871	20891
890.995	20842
891.118	20765
891.241	20838
891.364	20876
891.488	20994
891.611	20914
891.734	20872
891.857	20914
891.98	20762
892.103	20842
892.226	20792
892.349	20686
892.471	20606
892.594	20693
892.717	20815
892.839	20739
892.962	20739
893.085	20743
893.207	20788
893.33	20644
893.452	20689
893.575	20712
893.697	20697
893.819	20941
893.941	21020
894.064	20811
894.186	20663
894.308	20613
894.43	20823
894.552	20910
894.674	20746
894.796	20613
894.918	20708
895.04	20712
895.161	20705
895.283	20651
895.405	20651
895.526	20678
895.648	20697
895.769	20739
895.891	20781
896.012	20785
896.134	20819
896.255	20739
896.376	20743
896.498	20781
896.619	20731
896.74	20773
896.861	20838
896.982	21093
897.103	21199
897.224	21028
897.345	21001
897.466	20918
897.587	20933
897.708	21089
897.828	20975
897.949	20944
898.07	20792
898.19	20887
898.311	21135
898.431	20895
898.552	20937
898.672	20963
898.792	20963
898.913	20952
899.033	20807
899.153	20648
899.273	20617
899.393	20606
899.513	20659
899.633	20617
899.753	20648
899.873	20492
899.993	20606
900.113	20469
900.232	20541
900.352	20446
900.472	20366
900.591	20377
900.711	20305
900.83	20389
900.95	20446
901.069	20606
901.189	20210
901.308	20039
901.427	19978
901.546	19989
901.665	19997
901.784	19963
901.904	19959
902.023	19803
902.141	19529
902.26	19544
902.379	19552
902.498	19506
902.617	19362
902.735	19457
902.854	19419
902.973	19388
903.091	19194
903.21	19171
903.328	19038
903.446	19061
903.565	18935
903.683	18958
903.801	18856
903.919	18745
904.038	18810
904.156	18795
904.274	18677
904.392	18681
904.51	18635
904.627	18688
904.745	18688
904.863	18646
904.981	18540
905.098	18414
905.216	18266
905.334	18232
905.451	18353
905.569	18235
905.686	18395
905.803	18281
905.921	18117
906.038	18148
906.155	18136
906.272	17977
906.389	18015
906.506	17710
906.623	17748
906.74	17885
906.857	17855
906.974	17695
907.091	17882
907.208	17870
907.324	17817
907.441	17756
907.557	17630
907.674	17440
907.79	17402
907.907	17471
908.023	17482
908.139	17554
908.256	17368
908.372	17440
908.488	17429
908.604	17261
908.72	17258
908.836	17246
908.952	17121
909.068	17124
909.184	17307
909.3	17204
909.415	17143
909.531	17151
909.647	16942
909.762	16892
909.878	16881
909.993	16961
910.108	16752
910.224	16847
910.339	16881
910.454	16729
910.57	16713
910.685	16596
910.8	16923
910.915	16755
911.03	16542
911.145	16485
911.259	16489
911.374	16447
911.489	16310
911.604	16318
911.718	16276
911.833	16215
911.947	16185
912.062	16048
912.176	16246
912.291	16219
912.405	16105
912.519	16421
912.633	16249
912.748	16207
912.862	16143
912.976	16044
913.09	15785
913.204	15835
913.318	15930
913.431	15964
913.545	16025
913.659	16109
913.772	15854
913.886	15869
914	15690
914.113	15888
914.226	15865
914.34	15865
914.453	15663
914.566	15755
914.68	15713
914.793	15663
914.906	15408
915.019	15454
915.132	15435
915.245	15340
915.358	15393
915.47	15447
915.583	15443
915.696	15344
915.809	15454
915.921	15447
916.034	15329
916.146	15287
916.259	15169
916.371	15294
916.483	15230
916.595	15119
916.708	15169
916.82	15192
916.932	15161
917.044	15116
917.156	15085
917.268	15001
917.38	15074
917.491	14998
917.603	15070
917.715	15020
917.826	15028
917.938	14990
918.049	14743
918.161	15001
918.272	15043
918.384	15058
918.495	14887
918.606	14705
918.717	14682
918.828	14815
918.939	14788
919.05	14674
919.161	14777
919.272	14530
919.383	14667
919.494	14743
919.604	14902
919.715	14720
919.826	14571
919.936	14716
920.047	14868
920.157	14655
920.267	14876
920.378	14708
920.488	14606
920.598	14724
920.708	14952
920.818	14838
920.928	14754
921.038	14830
921.148	14815
921.258	14674
921.368	14533
921.477	14381
921.587	14366
921.697	14202
921.806	14396
921.916	14195
922.025	14119
922.134	14088
922.244	13913
922.353	13997
922.462	13856
922.571	13837
922.68	13757
922.789	13655
922.898	13681
923.007	13556
923.116	13651
923.224	13540
923.333	13578
923.442	13468
923.55	13460
923.659	13502
923.767	13506
923.876	13422
923.984	13533
924.092	13350
924.201	13453
924.309	13343
924.417	13381
924.525	13343
924.633	13407
924.741	14100
924.849	13103
924.956	13316
925.064	13129
925.172	13042
925.279	13031
925.387	13168
925.494	13019
925.602	13149
925.709	13072
925.816	12913
925.924	13008
926.031	13160
926.138	13031
926.245	13084
926.352	12951
926.459	13084
926.566	13122
926.673	12951
926.779	12840
926.886	12776
926.993	12719
927.099	12650
927.206	12532
927.312	12544
927.419	12631
927.525	12593
927.631	12627
927.737	12547
927.843	12471
927.95	12380
928.056	12361
928.162	12422
928.267	12467
928.373	13141
928.479	12566
928.585	12346
928.69	12357
928.796	12365
928.901	12300
929.007	12175
929.112	12330
929.218	12266
929.323	12205
929.428	12098
929.533	12178
929.638	12049
929.743	12091
929.848	12079
929.953	12091
930.058	12015
930.163	11809
930.267	11805
930.372	11870
930.477	11779
930.581	12022
930.685	11897
930.79	11653
930.894	11767
930.998	11642
931.103	11824
931.207	11448
931.311	11414
931.415	11181
931.519	11048
931.623	11025
