Data from test_V78500241_2163.txt Node
Date: Fri Mar 25 15:56:47 CST 2022
User: usil
Spectrometer: V785-0024
Trigger mode: 0
Integration Time (sec): 4.000000E-1
Scans to average: 1
Nonlinearity correction enabled: false
Boxcar width: 0
Storing dark spectrum: false
XAxis mode: Wavelengths
Number of Pixels in Spectrum: 1024
>>>>>Begin Spectral Data<<<<<
801.071	28911
801.214	28900
801.356	28729
801.499	28683
801.641	28645
801.783	28462
801.926	28504
802.068	28512
802.211	28607
802.353	28291
802.496	28257
802.638	28173
802.78	28082
802.923	28207
803.065	28082
803.208	28223
803.35	28215
803.492	28367
803.635	28462
803.777	28386
803.919	28531
804.061	28653
804.204	28466
804.346	28466
804.488	28333
804.63	28352
804.773	28474
804.915	28542
805.057	28607
805.199	28500
805.341	28519
805.483	28535
805.626	28626
805.768	28626
805.91	28565
806.052	28596
806.194	28649
806.336	28752
806.478	28630
806.62	28672
806.762	28744
806.904	28854
807.046	29090
807.188	29109
807.33	29128
807.472	29113
807.614	29048
807.756	29010
807.898	28949
808.04	28885
808.182	28888
808.324	28892
808.465	29003
808.607	29143
808.749	29254
808.891	29425
809.033	29391
809.174	29341
809.316	29227
809.458	29250
809.6	29334
809.741	29512
809.883	29486
810.025	29642
810.166	29471
810.308	29573
810.45	29528
810.591	29356
810.733	29345
810.875	29227
811.016	29197
811.158	29121
811.299	29452
811.441	29444
811.582	29391
811.724	29429
811.865	29307
812.007	29364
812.148	29391
812.29	29421
812.431	29573
812.573	29600
812.714	29745
812.855	29843
812.997	30030
813.138	29980
813.279	29973
813.421	29748
813.562	29802
813.703	29771
813.845	29661
813.986	29273
814.127	29235
814.268	29064
814.41	29079
814.551	29174
814.692	29200
814.833	29067
814.974	28995
815.115	28911
815.256	28965
815.397	28923
815.539	28858
815.68	28797
815.821	28812
815.962	28919
816.103	28854
816.244	28885
816.385	28691
816.526	28702
816.666	28405
816.807	28363
816.948	28440
817.089	28394
817.23	28333
817.371	28314
817.512	28428
817.653	28257
817.793	28280
817.934	28276
818.075	28390
818.216	28497
818.356	28318
818.497	28238
818.638	28154
818.778	28109
818.919	28070
819.06	28371
819.2	28226
819.341	28462
819.481	28337
819.622	28557
819.762	28721
819.903	28615
820.043	28538
820.184	28481
820.324	28322
820.465	28538
820.605	28508
820.746	28337
820.886	28478
821.026	28455
821.167	28493
821.307	28421
821.447	28470
821.588	28257
821.728	28158
821.868	28154
822.008	27979
822.149	27816
822.289	27892
822.429	27572
822.569	27591
822.709	27549
822.849	27439
822.99	27332
823.13	27291
823.27	27332
823.41	27188
823.55	27096
823.69	27237
823.83	27264
823.97	27127
824.11	26937
824.25	27001
824.389	27085
824.529	27020
824.669	27070
824.809	27184
824.949	27085
825.089	27062
825.228	27020
825.368	26868
825.508	26895
825.648	26960
825.787	26914
825.927	27089
826.067	26899
826.206	26891
826.346	26937
826.485	27047
826.625	26963
826.765	27005
826.904	27032
827.044	26705
827.183	26853
827.323	26549
827.462	26819
827.601	26735
827.741	26655
827.88	26689
828.02	26556
828.159	26602
828.298	26697
828.437	26670
828.577	26587
828.716	26746
828.855	26469
828.994	26309
829.134	26343
829.273	26427
829.412	26256
829.551	26233
829.69	26313
829.829	26290
829.968	26473
830.107	26514
830.246	26202
830.385	26256
830.524	26187
830.663	26149
830.802	26046
830.941	25750
831.08	25917
831.219	25925
831.357	25906
831.496	26164
831.635	25986
831.774	25845
831.913	25871
832.051	25651
832.19	25757
832.329	25727
832.467	25738
832.606	25571
832.744	25460
832.883	25727
833.022	25533
833.16	25544
833.299	25594
833.437	25727
833.576	25727
833.714	25575
833.852	25708
833.991	25521
834.129	25776
834.267	25662
834.406	25635
834.544	25753
834.682	25689
834.821	25712
834.959	25925
835.097	25578
835.235	25594
835.373	25582
835.511	25613
835.65	25457
835.788	25472
835.926	25358
836.064	25251
836.202	25206
836.34	25400
836.478	25609
836.615	25438
836.753	25487
836.891	25453
837.029	25632
837.167	25327
837.305	25403
837.443	25274
837.58	25293
837.718	25316
837.856	25343
837.993	25091
838.131	25365
838.269	25194
838.406	25327
838.544	25084
838.681	24939
838.819	24776
838.956	24825
839.094	24768
839.231	24848
839.369	24928
839.506	25133
839.643	25000
839.781	24840
839.918	24688
840.055	24650
840.193	24669
840.33	24688
840.467	24593
840.604	24741
840.742	24939
840.879	24650
841.016	24570
841.153	24555
841.29	24738
841.427	24555
841.564	24639
841.701	24627
841.838	24540
841.975	24578
842.112	24627
842.249	24460
842.385	24407
842.522	24696
842.659	24441
842.796	24376
842.933	24391
843.069	24384
843.206	24262
843.343	24433
843.479	24376
843.616	24327
843.752	24106
843.889	24235
844.025	24357
844.162	24163
844.298	24319
844.435	24148
844.571	24239
844.708	24167
844.844	24266
844.98	24258
845.117	24251
845.253	24144
845.389	24155
845.525	24018
845.661	24015
845.798	23939
845.934	23935
846.07	23863
846.206	23942
846.342	23988
846.478	23882
846.614	23630
846.75	23668
846.886	23627
847.022	23596
847.158	23756
847.294	23722
847.429	23737
847.565	23562
847.701	23764
847.837	23318
847.972	23284
848.108	23623
848.244	23562
848.379	23246
848.515	23216
848.65	23185
848.786	23250
848.921	23334
849.057	23307
849.192	23181
849.328	23280
849.463	23250
849.598	23223
849.734	23197
849.869	23006
850.004	22965
850.14	23086
850.275	22995
850.41	22911
850.545	22934
850.68	22953
850.815	23071
850.95	22831
851.085	23284
851.22	23223
851.355	22961
851.49	22991
851.625	22965
851.76	22953
851.895	22896
852.03	22850
852.165	22915
852.299	22923
852.434	23056
852.569	23151
852.703	23018
852.838	23124
852.973	23018
853.107	23041
853.242	23022
853.376	22866
853.511	22763
853.645	22759
853.78	22816
853.914	22930
854.048	22755
854.183	22854
854.317	22831
854.451	22889
854.585	22908
854.72	22790
854.854	22915
854.988	22706
855.122	22790
855.256	22721
855.39	22733
855.524	22858
855.658	22774
855.792	22793
855.926	22919
856.06	22873
856.194	22965
856.327	22725
856.461	22698
856.595	22634
856.729	22679
856.862	22949
856.996	22759
857.13	22797
857.263	22812
857.397	22927
857.53	22771
857.664	22824
857.797	22866
857.931	22885
858.064	22930
858.197	22843
858.331	22759
858.464	22573
858.597	22634
858.731	22748
858.864	22664
858.997	22812
859.13	22809
859.263	22771
859.396	22885
859.529	22733
859.662	22733
859.795	22729
859.928	22748
860.061	22995
860.194	22873
860.327	22885
860.46	22850
860.592	22987
860.725	22862
860.858	22904
860.99	22850
861.123	22771
861.256	22660
861.388	22721
861.521	23414
861.653	22649
861.786	22668
861.918	22527
862.05	22702
862.183	22694
862.315	22653
862.447	22820
862.58	22793
862.712	22424
862.844	22413
862.976	22630
863.108	22462
863.24	22972
863.372	22386
863.504	22455
863.636	22527
863.768	22470
863.9	22451
864.032	22531
864.164	22485
864.296	22584
864.428	22801
864.559	22615
864.691	22637
864.823	22455
864.954	22371
865.086	22325
865.217	22382
865.349	22280
865.48	22363
865.612	22375
865.743	22516
865.875	22459
866.006	22337
866.137	22405
866.269	22306
866.4	22436
866.531	22287
866.662	22196
866.793	22329
866.924	22238
867.055	22348
867.186	22333
867.317	22234
867.448	22211
867.579	22257
867.71	22150
867.841	22200
867.972	22287
868.103	22314
868.233	22272
868.364	22303
868.495	22356
868.625	22542
868.756	22424
868.886	22485
869.017	22428
869.147	22687
869.278	22710
869.408	22577
869.539	22500
869.669	22588
869.799	22447
869.929	22618
870.06	22679
870.19	22831
870.32	22949
870.45	22949
870.58	22885
870.71	23071
870.84	23151
870.97	22942
871.1	22896
871.23	23067
871.36	23102
871.489	23075
871.619	23090
871.749	23067
871.879	23220
872.008	23227
872.138	23170
872.267	23231
872.397	23102
872.526	22984
872.656	22946
872.785	22923
872.915	23143
873.044	23159
873.173	23086
873.303	23151
873.432	23189
873.561	23178
873.69	23220
873.819	22995
873.948	23269
874.077	23239
874.206	23212
874.335	23174
874.464	23307
874.593	23376
874.722	23387
874.851	23383
874.979	23273
875.108	23330
875.237	23360
875.365	23048
875.494	23353
875.623	23414
875.751	23417
875.88	23356
876.008	23429
876.136	23463
876.265	23798
876.393	23878
876.521	23824
876.65	23714
876.778	23695
876.906	23600
877.034	23745
877.162	23600
877.29	23638
877.418	23672
877.546	23691
877.674	23752
877.802	23726
877.93	23710
878.058	23615
878.185	23516
878.313	23573
878.441	23680
878.568	23589
878.696	23710
878.824	23863
878.951	23783
879.079	23775
879.206	23946
879.333	23836
879.461	23585
879.588	23703
879.715	23870
879.842	23920
879.97	23741
880.097	23623
880.224	23520
880.351	23459
880.478	23463
880.605	23402
880.732	23440
880.859	23745
880.986	23425
881.112	23455
881.239	23410
881.366	23235
881.493	23204
881.619	23124
881.746	23060
881.872	23132
881.999	23056
882.125	23064
882.252	22999
882.378	23041
882.505	23003
882.631	22828
882.757	22748
882.883	22858
883.01	22797
883.136	22611
883.262	22557
883.388	22542
883.514	22679
883.64	22805
883.766	22603
883.892	22489
884.018	22523
884.143	22592
884.269	22622
884.395	22348
884.52	22363
884.646	22413
884.772	22451
884.897	22394
885.023	22413
885.148	22421
885.274	22550
885.399	22447
885.524	22325
885.65	22337
885.775	22462
885.9	22310
886.025	22432
886.15	22417
886.275	22306
886.4	22367
886.525	22207
886.65	22211
886.775	22295
886.9	22428
887.025	22481
887.149	22394
887.274	22185
887.399	22051
887.523	22097
887.648	22040
887.773	21918
887.897	22177
888.021	22192
888.146	22105
888.27	22249
888.395	22219
888.519	22226
888.643	22051
888.767	22211
888.891	22036
889.015	21968
889.139	21884
889.263	21835
889.387	22021
889.511	22131
889.635	22139
889.759	21880
889.883	21808
890.006	21873
890.13	22044
890.254	21823
890.377	21831
890.501	21568
890.624	21652
890.748	21800
890.871	21481
890.995	21477
891.118	21542
891.241	21485
891.364	21359
891.488	21561
891.611	21481
891.734	21500
891.857	21450
891.98	21450
892.103	21454
892.226	21367
892.349	21351
892.471	21218
892.594	21351
892.717	21511
892.839	21359
892.962	21329
893.085	21382
893.207	21412
893.33	21222
893.452	21203
893.575	21355
893.697	21363
893.819	21435
893.941	21526
894.064	21481
894.186	21298
894.308	21138
894.43	21370
894.552	21405
894.674	21367
894.796	21359
894.918	21291
895.04	21287
895.161	21355
895.283	21340
895.405	21199
895.526	21317
895.648	21351
895.769	21325
895.891	21367
896.012	21310
896.134	21351
896.255	21344
896.376	21321
896.498	21203
896.619	21340
896.74	21306
896.861	21351
896.982	21682
897.103	21694
897.224	21542
897.345	21511
897.466	21454
897.587	21606
897.708	21660
897.828	21507
897.949	21435
898.07	21332
898.19	21443
898.311	21564
898.431	21367
898.552	21519
898.672	21568
898.792	21542
898.913	21557
899.033	21435
899.153	21325
899.273	21260
899.393	21256
899.513	21245
899.633	21249
899.753	21252
899.873	21184
899.993	21161
900.113	21272
900.232	21119
900.352	21142
900.472	21005
900.591	21036
900.711	21096
900.83	20849
900.95	21028
901.069	21047
901.189	20819
901.308	20682
901.427	20526
901.546	20568
901.665	20640
901.784	20457
901.904	20415
902.023	20336
902.141	20187
902.26	20081
902.379	20195
902.498	20016
902.617	19963
902.735	20138
902.854	19963
902.973	20081
903.091	19772
903.21	19795
903.328	19655
903.446	19723
903.565	19586
903.683	19495
903.801	19354
903.919	19415
904.038	19460
904.156	19327
904.274	19263
904.392	19183
904.51	19126
904.627	19164
904.745	19236
904.863	19183
904.981	19042
905.098	19019
905.216	19034
905.334	19019
905.451	18939
905.569	18981
905.686	18935
905.803	19031
905.921	18760
906.038	18806
906.155	18764
906.272	18589
906.389	18696
906.506	18483
906.623	18429
906.74	18437
906.857	18327
906.974	18376
907.091	18494
907.208	18448
907.324	18467
907.441	18388
907.557	18178
907.674	18182
907.79	18152
907.907	18224
908.023	18125
908.139	18140
908.256	17977
908.372	18136
908.488	18098
908.604	17901
908.72	17969
908.836	17893
908.952	17783
909.068	17897
909.184	17977
909.3	17859
909.415	17863
909.531	17866
909.647	17634
909.762	17570
909.878	17516
909.993	17585
910.108	17657
910.224	17482
910.339	17581
910.454	17421
910.57	17406
910.685	17345
910.8	17615
910.915	17566
911.03	17223
911.145	17181
911.259	17155
911.374	17151
911.489	17086
911.604	17010
911.718	16793
911.833	16923
911.947	16675
912.062	16717
912.176	16767
912.291	16949
912.405	16942
912.519	17140
912.633	17128
912.748	16869
912.862	16778
912.976	16717
913.09	16607
913.204	16645
913.318	16664
913.431	16774
913.545	16694
913.659	16854
913.772	16618
913.886	16436
914	16455
914.113	16637
914.226	16561
914.34	16523
914.453	16310
914.566	16500
914.68	16386
914.793	16341
914.906	16204
915.019	15949
915.132	16074
915.245	16101
915.358	16055
915.47	16013
915.583	16055
915.696	15991
915.809	16204
915.921	16192
916.034	15983
916.146	15861
916.259	15926
916.371	15895
916.483	15956
916.595	15884
916.708	15835
916.82	15831
916.932	15861
917.044	15842
917.156	15770
917.268	15637
917.38	15656
917.491	15648
917.603	15656
917.715	15709
917.826	15698
917.938	15625
918.049	15466
918.161	15534
918.272	15705
918.384	15701
918.495	15641
918.606	15496
918.717	15389
918.828	15405
918.939	15443
919.05	15222
919.161	15336
919.272	15332
919.383	15218
919.494	15408
919.604	15542
919.715	15359
919.826	15226
919.936	15340
920.047	15458
920.157	15306
920.267	15519
920.378	15382
920.488	15275
920.598	15595
920.708	15580
920.818	15595
920.928	15473
921.038	15656
921.148	15523
921.258	15283
921.368	15287
921.477	15089
921.587	15032
921.697	14960
921.806	15055
921.916	14952
922.025	14731
922.134	14674
922.244	14579
922.353	14708
922.462	14507
922.571	14571
922.68	14408
922.789	14347
922.898	14263
923.007	14252
923.116	14370
923.224	14256
923.333	14328
923.442	14145
923.55	14259
923.659	14157
923.767	14199
923.876	14005
923.984	14229
924.092	14035
924.201	13928
924.309	14103
924.417	13993
924.525	13944
924.633	14016
924.741	14727
924.849	13712
924.956	13898
925.064	13719
925.172	13616
925.279	13696
925.387	13685
925.494	13677
925.602	13978
925.709	13788
925.816	13506
925.924	13647
926.031	13689
926.138	13613
926.245	13674
926.352	13651
926.459	13814
926.566	13693
926.673	13651
926.779	13499
926.886	13419
926.993	13358
927.099	13259
927.206	13274
927.312	13244
927.419	13278
927.525	13217
927.631	13316
927.737	13133
927.843	13076
927.95	12996
928.056	12985
928.162	13057
928.267	13031
928.373	13719
928.479	13168
928.585	12852
928.69	13023
928.796	13046
928.901	12825
929.007	12650
929.112	12913
929.218	12802
929.323	12810
929.428	12692
929.533	12829
929.638	12700
929.743	12760
929.848	12753
929.953	12627
930.058	12646
930.163	12384
930.267	12441
930.372	12589
930.477	12418
930.581	12578
930.685	12464
930.79	12346
930.894	12330
930.998	12319
931.103	12471
931.207	12133
931.311	11942
931.415	11939
931.519	11680
931.623	11581
