Data from test_V78500241_329.txt Node
Date: Fri Mar 25 15:44:04 CST 2022
User: usil
Spectrometer: V785-0024
Trigger mode: 0
Integration Time (sec): 4.000000E-1
Scans to average: 1
Nonlinearity correction enabled: false
Boxcar width: 0
Storing dark spectrum: false
XAxis mode: Wavelengths
Number of Pixels in Spectrum: 1024
>>>>>Begin Spectral Data<<<<<
801.071	29885
801.214	29752
801.356	29649
801.499	29531
801.641	29414
801.783	29326
801.926	29543
802.068	29391
802.211	29337
802.353	29284
802.496	29098
802.638	29140
802.78	29151
802.923	29025
803.065	28946
803.208	29060
803.35	29204
803.492	29258
803.635	29288
803.777	29242
803.919	29463
804.061	29554
804.204	29250
804.346	29174
804.488	29204
804.63	29360
804.773	29083
804.915	29318
805.057	29383
805.199	29368
805.341	29459
805.483	29379
805.626	29486
805.768	29284
805.91	29383
806.052	29463
806.194	29277
806.336	29668
806.478	29516
806.62	29406
806.762	29482
806.904	29623
807.046	29942
807.188	29901
807.33	29752
807.472	29893
807.614	29821
807.756	29821
807.898	29684
808.04	29531
808.182	29493
808.324	29630
808.465	29619
808.607	29855
808.749	29984
808.891	30194
809.033	30224
809.174	30129
809.316	30220
809.458	30087
809.6	30148
809.741	30232
809.883	30209
810.025	30388
810.166	30471
810.308	30380
810.45	30410
810.591	30292
810.733	30174
810.875	30045
811.016	29878
811.158	29988
811.299	30209
811.441	30232
811.582	30220
811.724	30102
811.865	30072
812.007	30068
812.148	29889
812.29	30072
812.431	30121
812.573	30441
812.714	30494
812.855	30528
812.997	30658
813.138	30779
813.279	30757
813.421	30707
813.562	30536
813.703	30437
813.845	30133
813.986	29980
814.127	29836
814.268	29741
814.41	29874
814.551	29741
814.692	29859
814.833	29611
814.974	29729
815.115	29707
815.256	29520
815.397	29573
815.539	29627
815.68	29543
815.821	29398
815.962	29337
816.103	29509
816.244	29391
816.385	29334
816.526	29337
816.666	29113
816.807	28942
816.948	28934
817.089	29041
817.23	28881
817.371	28866
817.512	29052
817.653	28858
817.793	28999
817.934	28980
818.075	28984
818.216	28946
818.356	28991
818.497	28725
818.638	28717
818.778	28634
818.919	28744
819.06	28721
819.2	28759
819.341	29090
819.481	29033
819.622	29128
819.762	29360
819.903	29113
820.043	29113
820.184	29079
820.324	29083
820.465	29166
820.605	29086
820.746	29067
820.886	28744
821.026	28915
821.167	28999
821.307	29025
821.447	28965
821.588	28949
821.728	28573
821.868	28497
822.008	28508
822.149	28417
822.289	28314
822.429	28029
822.569	28078
822.709	27998
822.849	27804
822.99	27728
823.13	28055
823.27	27797
823.41	27675
823.55	27629
823.69	27606
823.83	27781
823.97	27675
824.11	27515
824.25	27500
824.389	27561
824.529	27549
824.669	27420
824.809	27660
824.949	27587
825.089	27595
825.228	27405
825.368	27298
825.508	27272
825.648	27374
825.787	27386
825.927	27374
826.067	27329
826.206	27332
826.346	27272
826.485	27450
826.625	27336
826.765	27408
826.904	27340
827.044	27245
827.183	27001
827.323	26990
827.462	27108
827.601	27039
827.741	26937
827.88	26982
828.02	26777
828.159	26940
828.298	27096
828.437	27116
828.577	26906
828.716	27108
828.855	26811
828.994	26648
829.134	26838
829.273	26792
829.412	26716
829.551	26678
829.69	26796
829.829	26674
829.968	26746
830.107	26667
830.246	26727
830.385	26594
830.524	26571
830.663	26419
830.802	26427
830.941	26294
831.08	26202
831.219	26218
831.357	26336
831.496	26556
831.635	26275
831.774	26115
831.913	26100
832.051	26191
832.19	25978
832.329	26046
832.467	25951
832.606	25928
832.744	25833
832.883	25845
833.022	25997
833.16	25944
833.299	25932
833.437	25879
833.576	25978
833.714	25936
833.852	26027
833.991	25978
834.129	26027
834.267	25993
834.406	25864
834.544	25947
834.682	25944
834.821	25871
834.959	26035
835.097	25746
835.235	25906
835.373	25849
835.511	25738
835.65	25712
835.788	25883
835.926	25586
836.064	25445
836.202	25521
836.34	25750
836.478	25780
836.615	25548
836.753	25693
836.891	25769
837.029	25734
837.167	25677
837.305	25674
837.443	25441
837.58	25609
837.718	25704
837.856	25476
837.993	25468
838.131	25464
838.269	25415
838.406	25472
838.544	25407
838.681	25202
838.819	25069
838.956	24973
839.094	24958
839.231	25072
839.369	25046
839.506	25282
839.643	25164
839.781	24932
839.918	24901
840.055	24954
840.193	25008
840.33	24890
840.467	24939
840.604	25076
840.742	25240
840.879	24798
841.016	24719
841.153	24707
841.29	24901
841.427	24894
841.564	24806
841.701	24760
841.838	24673
841.975	24684
842.112	24764
842.249	24620
842.385	24563
842.522	24791
842.659	24688
842.796	24555
842.933	24544
843.069	24464
843.206	24532
843.343	24589
843.479	24631
843.616	24521
843.752	24300
843.889	24433
844.025	24399
844.162	24235
844.298	24407
844.435	24281
844.571	24262
844.708	24289
844.844	24448
844.98	24502
845.117	24399
845.253	24289
845.389	24125
845.525	24171
845.661	24190
845.798	24064
845.934	24068
846.07	24053
846.206	23996
846.342	24163
846.478	24079
846.614	23767
846.75	23771
846.886	23775
847.022	23794
847.158	23668
847.294	23623
847.429	23646
847.565	23691
847.701	23942
847.837	23482
847.972	23425
848.108	23459
848.244	23558
848.379	23448
848.515	23299
848.65	23315
848.786	23231
848.921	23246
849.057	23402
849.192	23353
849.328	23360
849.463	23341
849.598	23178
849.734	23212
849.869	23121
850.004	22976
850.14	23022
850.275	23136
850.41	23006
850.545	22965
850.68	22862
850.815	23075
850.95	22953
851.085	23254
851.22	23212
851.355	23086
851.49	23071
851.625	22991
851.76	22999
851.895	23022
852.03	23048
852.165	23105
852.299	23064
852.434	23033
852.569	23056
852.703	23018
852.838	23071
852.973	23136
853.107	23147
853.242	22999
853.376	22885
853.511	22790
853.645	22649
853.78	22919
853.914	22877
854.048	22820
854.183	22782
854.317	22828
854.451	22904
854.585	22828
854.72	22953
854.854	22850
854.988	22889
855.122	22778
855.256	22649
855.39	22908
855.524	22881
855.658	22843
855.792	22778
855.926	22896
856.06	22927
856.194	22923
856.327	22805
856.461	22812
856.595	22889
856.729	22679
856.862	22991
856.996	22820
857.13	22896
857.263	22927
857.397	22938
857.53	22706
857.664	22835
857.797	22885
857.931	22949
858.064	22847
858.197	22915
858.331	22862
858.464	22607
858.597	22710
858.731	22759
858.864	22744
858.997	22744
859.13	22672
859.263	22942
859.396	22782
859.529	22828
859.662	22786
859.795	22687
859.928	22782
860.061	22972
860.194	22987
860.327	22759
860.46	22793
860.592	22828
860.725	22923
860.858	22946
860.99	22793
861.123	22755
861.256	22782
861.388	22698
861.521	23482
861.653	22683
861.786	22489
861.918	22588
862.05	22683
862.183	22717
862.315	22771
862.447	22927
862.58	22672
862.712	22508
862.844	22470
862.976	22607
863.108	22679
863.24	23083
863.372	22447
863.504	22538
863.636	22451
863.768	22398
863.9	22432
864.032	22276
864.164	22542
864.296	22421
864.428	22478
864.559	22432
864.691	22596
864.823	22485
864.954	22481
865.086	22531
865.217	22382
865.349	22306
865.48	22440
865.612	22295
865.743	22459
865.875	22428
866.006	22261
866.137	22314
866.269	22303
866.4	22234
866.531	22219
866.662	22181
866.793	22223
866.924	22363
867.055	22230
867.186	22268
867.317	22268
867.448	22135
867.579	22226
867.71	22154
867.841	22128
867.972	22234
868.103	22128
868.233	22124
868.364	22268
868.495	22390
868.625	22405
868.756	22603
868.886	22352
869.017	22356
869.147	22512
869.278	22561
869.408	22440
869.539	22497
869.669	22550
869.799	22561
869.929	22440
870.06	22519
870.19	22793
870.32	22733
870.45	22797
870.58	22892
870.71	22915
870.84	22881
870.97	22892
871.1	22942
871.23	23006
871.36	23006
871.489	23003
871.619	23071
871.749	23033
871.879	23048
872.008	23185
872.138	23056
872.267	23064
872.397	22976
872.526	22839
872.656	22873
872.785	22946
872.915	23064
873.044	23121
873.173	23060
873.303	23105
873.432	23064
873.561	23330
873.69	23132
873.819	23159
873.948	23113
874.077	23079
874.206	22987
874.335	23109
874.464	23075
874.593	23364
874.722	23235
874.851	23467
874.979	23299
875.108	23356
875.237	23311
875.365	23220
875.494	23334
875.623	23421
875.751	23216
875.88	23345
876.008	23387
876.136	23402
876.265	23634
876.393	23874
876.521	23771
876.65	23684
876.778	23710
876.906	23661
877.034	23592
877.162	23554
877.29	23573
877.418	23767
877.546	23703
877.674	23695
877.802	23661
877.93	23490
878.058	23562
878.185	23573
878.313	23615
878.441	23585
878.568	23356
878.696	23520
878.824	23611
878.951	23676
879.079	23866
879.206	23965
879.333	23828
879.461	23585
879.588	23775
879.715	23764
879.842	23859
879.97	23646
880.097	23452
880.224	23368
880.351	23459
880.478	23440
880.605	23360
880.732	23448
880.859	23531
880.986	23463
881.112	23444
881.239	23246
881.366	23170
881.493	23208
881.619	22987
881.746	23083
881.872	23067
881.999	22885
882.125	23003
882.252	23022
882.378	23006
882.505	23105
882.631	22957
882.757	22725
882.883	22873
883.01	22755
883.136	22561
883.262	22554
883.388	22459
883.514	22740
883.64	22691
883.766	22535
883.892	22592
884.018	22531
884.143	22641
884.269	22721
884.395	22455
884.52	22280
884.646	22386
884.772	22234
884.897	22268
885.023	22238
885.148	22398
885.274	22436
885.399	22409
885.524	22322
885.65	22280
885.775	22333
885.9	22325
886.025	22382
886.15	22474
886.275	22181
886.4	22234
886.525	22257
886.65	22162
886.775	22219
886.9	22375
887.025	22523
887.149	22291
887.274	22006
887.399	22074
887.523	22147
887.648	22002
887.773	21949
887.897	22143
888.021	22074
888.146	21907
888.27	22128
888.395	22040
888.519	21991
888.643	22109
888.767	22112
888.891	21953
889.015	21766
889.139	21979
889.263	21682
889.387	21846
889.511	22147
889.635	22105
889.759	21915
889.883	21827
890.006	21770
890.13	21812
890.254	21835
890.377	21698
890.501	21686
890.624	21583
890.748	21641
890.871	21462
890.995	21374
891.118	21378
891.241	21443
891.364	21378
891.488	21606
891.611	21370
891.734	21321
891.857	21519
891.98	21405
892.103	21351
892.226	21291
892.349	21306
892.471	21070
892.594	21306
892.717	21252
892.839	21218
892.962	21363
893.085	21416
893.207	21230
893.33	21161
893.452	21169
893.575	21275
893.697	21222
893.819	21332
893.941	21473
894.064	21275
894.186	21211
894.308	21169
894.43	21226
894.552	21458
894.674	21378
894.796	21195
894.918	21298
895.04	21211
895.161	21313
895.283	21275
895.405	21135
895.526	21268
895.648	21218
895.769	21237
895.891	21332
896.012	21389
896.134	21291
896.255	21378
896.376	21192
896.498	21264
896.619	21332
896.74	21268
896.861	21473
896.982	21561
897.103	21682
897.224	21625
897.345	21568
897.466	21405
897.587	21496
897.708	21549
897.828	21450
897.949	21466
898.07	21321
898.19	21374
898.311	21443
898.431	21507
898.552	21488
898.672	21545
898.792	21458
898.913	21435
899.033	21313
899.153	21150
899.273	20967
899.393	21096
899.513	21272
899.633	21062
899.753	21214
899.873	21123
899.993	21047
900.113	21047
900.232	21024
900.352	21013
900.472	21047
900.591	20925
900.711	20944
900.83	20902
900.95	21039
901.069	21024
901.189	20758
901.308	20644
901.427	20438
901.546	20454
901.665	20560
901.784	20415
901.904	20343
902.023	20233
902.141	19982
902.26	19970
902.379	20065
902.498	19982
902.617	19925
902.735	19997
902.854	19837
902.973	19860
903.091	19594
903.21	19647
903.328	19605
903.446	19514
903.565	19464
903.683	19472
903.801	19343
903.919	19324
904.038	19285
904.156	19160
904.274	19187
904.392	19050
904.51	19202
904.627	19137
904.745	19247
904.863	19312
904.981	19004
905.098	18840
905.216	18783
905.334	18901
905.451	18871
905.569	18749
905.686	18856
905.803	18753
905.921	18722
906.038	18700
906.155	18559
906.272	18536
906.389	18426
906.506	18388
906.623	18426
906.74	18342
906.857	18239
906.974	18251
907.091	18456
907.208	18471
907.324	18285
907.441	18251
907.557	18133
907.674	18060
907.79	17908
907.907	18003
908.023	18117
908.139	18110
908.256	17984
908.372	17958
908.488	17882
908.604	17767
908.72	17680
908.836	17695
908.952	17661
909.068	17790
909.184	17824
909.3	17634
909.415	17813
909.531	17695
909.647	17459
909.762	17410
909.878	17478
909.993	17387
910.108	17364
910.224	17311
910.339	17383
910.454	17288
910.57	17174
910.685	17159
910.8	17372
910.915	17318
911.03	17105
911.145	17048
911.259	16930
911.374	16965
911.489	16957
911.604	16812
911.718	16702
911.833	16805
911.947	16694
912.062	16603
912.176	16729
912.291	16717
912.405	16755
912.519	16881
912.633	16877
912.748	16828
912.862	16645
912.976	16577
913.09	16341
913.204	16470
913.318	16546
913.431	16504
913.545	16493
913.659	16561
913.772	16432
913.886	16299
914	16196
914.113	16402
914.226	16363
914.34	16322
914.453	16181
914.566	16272
914.68	16177
914.793	16093
914.906	16048
915.019	15937
915.132	15743
915.245	15895
915.358	15884
915.47	15941
915.583	15857
915.696	15888
915.809	15934
915.921	16044
916.034	15888
916.146	15739
916.259	15831
916.371	15888
916.483	15789
916.595	15720
916.708	15751
916.82	15671
916.932	15637
917.044	15652
917.156	15511
917.268	15462
917.38	15526
917.491	15504
917.603	15523
917.715	15496
917.826	15538
917.938	15435
918.049	15329
918.161	15393
918.272	15530
918.384	15682
918.495	15511
918.606	15249
918.717	15268
918.828	15245
918.939	15252
919.05	15070
919.161	15245
919.272	14990
919.383	15032
919.494	15249
919.604	15488
919.715	15226
919.826	15085
919.936	15028
920.047	15241
920.157	15173
920.267	15359
920.378	15192
920.488	15066
920.598	15408
920.708	15420
920.818	15283
920.928	15359
921.038	15420
921.148	15344
921.258	15127
921.368	14975
921.477	14895
921.587	14864
921.697	14758
921.806	14868
921.916	14746
922.025	14602
922.134	14545
922.244	14473
922.353	14541
922.462	14366
922.571	14385
922.68	14244
922.789	14115
922.898	14103
923.007	14107
923.116	14161
923.224	14096
923.333	14062
923.442	13974
923.55	13947
923.659	14096
923.767	14062
923.876	13909
923.984	14024
924.092	13803
924.201	13875
924.309	13925
924.417	13887
924.525	13849
924.633	13727
924.741	14526
924.849	13582
924.956	13761
925.064	13476
925.172	13468
925.279	13586
925.387	13529
925.494	13487
925.602	13597
925.709	13586
925.816	13434
925.924	13464
926.031	13556
926.138	13483
926.245	13468
926.352	13331
926.459	13487
926.566	13559
926.673	13464
926.779	13301
926.886	13202
926.993	13080
927.099	13027
927.206	13027
927.312	13084
927.419	13145
927.525	13103
927.631	13088
927.737	12837
927.843	12954
927.95	12829
928.056	12844
928.162	12890
928.267	12909
928.373	13502
928.479	12935
928.585	12650
928.69	12837
928.796	12859
928.901	12837
929.007	12582
929.112	12688
929.218	12650
929.323	12582
929.428	12635
929.533	12692
929.638	12464
929.743	12540
929.848	12578
929.953	12551
930.058	12418
930.163	12319
930.267	12376
930.372	12384
930.477	12175
930.581	12365
930.685	12243
930.79	12064
930.894	12129
930.998	12057
931.103	12155
931.207	11851
931.311	11817
931.415	11688
931.519	11493
931.623	11425
