Data from test_V78500241_3325.txt Node
Date: Fri Mar 25 16:04:50 CST 2022
User: usil
Spectrometer: V785-0024
Trigger mode: 0
Integration Time (sec): 4.000000E-1
Scans to average: 1
Nonlinearity correction enabled: false
Boxcar width: 0
Storing dark spectrum: false
XAxis mode: Wavelengths
Number of Pixels in Spectrum: 1024
>>>>>Begin Spectral Data<<<<<
801.071	28862
801.214	28740
801.356	28512
801.499	28577
801.641	28360
801.783	28592
801.926	28470
802.068	28470
802.211	28371
802.353	28219
802.496	28143
802.638	28120
802.78	28116
802.923	28055
803.065	28025
803.208	27934
803.35	28120
803.492	28246
803.635	28303
803.777	28204
803.919	28417
804.061	28691
804.204	28440
804.346	28344
804.488	28287
804.63	28306
804.773	28398
804.915	28413
805.057	28382
805.199	28356
805.341	28592
805.483	28512
805.626	28554
805.768	28375
805.91	28401
806.052	28675
806.194	28352
806.336	28588
806.478	28565
806.62	28447
806.762	28557
806.904	28923
807.046	29056
807.188	28843
807.33	28911
807.472	28927
807.614	29003
807.756	28946
807.898	28831
808.04	28733
808.182	28698
808.324	28717
808.465	28892
808.607	29124
808.749	29330
808.891	29292
809.033	29395
809.174	29280
809.316	29269
809.458	29265
809.6	29197
809.741	29433
809.883	29197
810.025	29547
810.166	29387
810.308	29414
810.45	29444
810.591	29414
810.733	29414
810.875	29193
811.016	29140
811.158	29079
811.299	29231
811.441	29425
811.582	29379
811.724	29261
811.865	29277
812.007	29239
812.148	29311
812.29	29318
812.431	29433
812.573	29577
812.714	29562
812.855	29672
812.997	29851
813.138	30114
813.279	29824
813.421	29832
813.562	29687
813.703	29608
813.845	29589
813.986	29143
814.127	29003
814.268	28972
814.41	29162
814.551	28991
814.692	29029
814.833	28809
814.974	28999
815.115	28900
815.256	28908
815.397	28888
815.539	28793
815.68	28923
815.821	28607
815.962	28774
816.103	28656
816.244	28531
816.385	28565
816.526	28516
816.666	28375
816.807	28337
816.948	28401
817.089	28443
817.23	28379
817.371	28341
817.512	28280
817.653	28257
817.793	28371
817.934	28154
818.075	28356
818.216	28356
818.356	28226
818.497	28246
818.638	28032
818.778	28059
818.919	28025
819.06	28185
819.2	28200
819.341	28314
819.481	28207
819.622	28451
819.762	28691
819.903	28413
820.043	28497
820.184	28512
820.324	28485
820.465	28478
820.605	28398
820.746	28455
820.886	28348
821.026	28356
821.167	28253
821.307	28363
821.447	28341
821.588	28215
821.728	28154
821.868	27838
822.008	27850
822.149	27808
822.289	27778
822.429	27610
822.569	27515
822.709	27431
822.849	27313
822.99	27237
823.13	27340
823.27	27283
823.41	27085
823.55	27047
823.69	27241
823.83	27036
823.97	26982
824.11	26998
824.25	26868
824.389	26868
824.529	26880
824.669	26929
824.809	27017
824.949	27081
825.089	26940
825.228	27043
825.368	26796
825.508	26670
825.648	26899
825.787	26982
825.927	26948
826.067	26960
826.206	26708
826.346	26902
826.485	26842
826.625	26921
826.765	26910
826.904	26895
827.044	26708
827.183	26648
827.323	26492
827.462	26746
827.601	26640
827.741	26484
827.88	26549
828.02	26396
828.159	26541
828.298	26564
828.437	26606
828.577	26473
828.716	26545
828.855	26446
828.994	26195
829.134	26233
829.273	26252
829.412	26126
829.551	26187
829.69	26225
829.829	26229
829.968	26206
830.107	26256
830.246	26358
830.385	25963
830.524	26088
830.663	26039
830.802	26027
830.941	25803
831.08	25898
831.219	25803
831.357	25830
831.496	26001
831.635	25845
831.774	25738
831.913	25677
832.051	25681
832.19	25738
832.329	25704
832.467	25407
832.606	25525
832.744	25499
832.883	25468
833.022	25533
833.16	25491
833.299	25514
833.437	25594
833.576	25616
833.714	25502
833.852	25635
833.991	25620
834.129	25658
834.267	25723
834.406	25571
834.544	25693
834.682	25548
834.821	25506
834.959	25772
835.097	25525
835.235	25677
835.373	25552
835.511	25453
835.65	25441
835.788	25537
835.926	25396
836.064	25293
836.202	25270
836.34	25335
836.478	25552
836.615	25301
836.753	25419
836.891	25415
837.029	25441
837.167	25308
837.305	25419
837.443	25297
837.58	25209
837.718	25369
837.856	25304
837.993	25141
838.131	25088
838.269	24989
838.406	25168
838.544	25000
838.681	24916
838.819	24878
838.956	24703
839.094	24764
839.231	24741
839.369	24920
839.506	25031
839.643	24977
839.781	24566
839.918	24464
840.055	24760
840.193	24544
840.33	24639
840.467	24536
840.604	24578
840.742	24791
840.879	24498
841.016	24490
841.153	24380
841.29	24646
841.427	24486
841.564	24589
841.701	24547
841.838	24563
841.975	24429
842.112	24513
842.249	24376
842.385	24376
842.522	24631
842.659	24399
842.796	24254
842.933	24300
843.069	24289
843.206	24346
843.343	24342
843.479	24372
843.616	24251
843.752	24087
843.889	24167
844.025	24144
844.162	24072
844.298	24281
844.435	24174
844.571	24148
844.708	24152
844.844	24300
844.98	24319
845.117	24254
845.253	24148
845.389	23973
845.525	23939
845.661	23897
845.798	23855
845.934	23893
846.07	23733
846.206	23847
846.342	23969
846.478	23809
846.614	23684
846.75	23482
846.886	23581
847.022	23642
847.158	23630
847.294	23665
847.429	23638
847.565	23493
847.701	23752
847.837	23299
847.972	23143
848.108	23292
848.244	23410
848.379	23094
848.515	23185
848.65	23071
848.786	23197
848.921	23090
849.057	23265
849.192	23242
849.328	23121
849.463	23162
849.598	22995
849.734	23071
849.869	23052
850.004	22942
850.14	23033
850.275	22892
850.41	22752
850.545	22900
850.68	22843
850.815	22915
850.95	23006
851.085	22968
851.22	22965
851.355	23037
851.49	22885
851.625	22858
851.76	22972
851.895	22759
852.03	22782
852.165	22942
852.299	22980
852.434	22946
852.569	22953
852.703	22873
852.838	22991
852.973	23121
853.107	23003
853.242	22953
853.376	22774
853.511	22660
853.645	22675
853.78	22820
853.914	22710
854.048	22740
854.183	22713
854.317	22843
854.451	22812
854.585	22774
854.72	22679
854.854	22733
854.988	22763
855.122	22774
855.256	22596
855.39	22824
855.524	22752
855.658	22771
855.792	22752
855.926	22771
856.06	22911
856.194	22866
856.327	22691
856.461	22763
856.595	22656
856.729	22797
856.862	22877
856.996	22725
857.13	22862
857.263	22892
857.397	22733
857.53	22729
857.664	22763
857.797	22820
857.931	22748
858.064	22706
858.197	22797
858.331	22774
858.464	22637
858.597	22577
858.731	22790
858.864	22599
858.997	22672
859.13	22771
859.263	22713
859.396	22927
859.529	22752
859.662	22702
859.795	22717
859.928	22816
860.061	22858
860.194	22831
860.327	22786
860.46	22713
860.592	22869
860.725	22904
860.858	22854
860.99	22790
861.123	22702
861.256	22717
861.388	22790
861.521	23414
861.653	22557
861.786	22424
861.918	22630
862.05	22557
862.183	22618
862.315	22554
862.447	22797
862.58	22668
862.712	22436
862.844	22428
862.976	22459
863.108	22538
863.24	22942
863.372	22424
863.504	22497
863.636	22462
863.768	22382
863.9	22497
864.032	22341
864.164	22333
864.296	22413
864.428	22504
864.559	22535
864.691	22535
864.823	22443
864.954	22466
865.086	22478
865.217	22261
865.349	22280
865.48	22280
865.612	22367
865.743	22310
865.875	22348
866.006	22394
866.137	22348
866.269	22268
866.4	22360
866.531	22291
866.662	22325
866.793	22268
866.924	22211
867.055	22128
867.186	22325
867.317	22272
867.448	22120
867.579	22238
867.71	22101
867.841	22150
867.972	22200
868.103	22284
868.233	22200
868.364	22268
868.495	22306
868.625	22557
868.756	22527
868.886	22474
869.017	22462
869.147	22584
869.278	22649
869.408	22512
869.539	22497
869.669	22637
869.799	22550
869.929	22508
870.06	22557
870.19	22713
870.32	22733
870.45	22786
870.58	22953
870.71	23006
870.84	22843
870.97	22771
871.1	22934
871.23	22938
871.36	23041
871.489	22976
871.619	23117
871.749	23083
871.879	23022
872.008	23151
872.138	23223
872.267	23025
872.397	23079
872.526	22869
872.656	22984
872.785	22828
872.915	23197
873.044	23258
873.173	23067
873.303	23086
873.432	23121
873.561	23280
873.69	23147
873.819	23162
873.948	23200
874.077	23197
874.206	22999
874.335	23041
874.464	23200
874.593	23429
874.722	23162
874.851	23356
874.979	23284
875.108	23269
875.237	23376
875.365	23159
875.494	23258
875.623	23356
875.751	23200
875.88	23341
876.008	23482
876.136	23429
876.265	23760
876.393	23733
876.521	23756
876.65	23809
876.778	23786
876.906	23710
877.034	23668
877.162	23695
877.29	23535
877.418	23535
877.546	23748
877.674	23592
877.802	23615
877.93	23611
878.058	23661
878.185	23520
878.313	23611
878.441	23665
878.568	23512
878.696	23558
878.824	23752
878.951	23840
879.079	23771
879.206	23942
879.333	23752
879.461	23615
879.588	23821
879.715	23847
879.842	23889
879.97	23756
880.097	23516
880.224	23566
880.351	23444
880.478	23570
880.605	23395
880.732	23490
880.859	23737
880.986	23463
881.112	23539
881.239	23391
881.366	23086
881.493	23147
881.619	23113
881.746	23109
881.872	22999
881.999	23025
882.125	22908
882.252	23185
882.378	22995
882.505	23128
882.631	22774
882.757	22755
882.883	22904
883.01	22736
883.136	22786
883.262	22527
883.388	22508
883.514	22611
883.64	22778
883.766	22615
883.892	22447
884.018	22481
884.143	22702
884.269	22752
884.395	22462
884.52	22261
884.646	22451
884.772	22215
884.897	22223
885.023	22363
885.148	22379
885.274	22535
885.399	22390
885.524	22417
885.65	22253
885.775	22428
885.9	22417
886.025	22409
886.15	22409
886.275	22386
886.4	22253
886.525	22390
886.65	22192
886.775	22177
886.9	22398
887.025	22523
887.149	22253
887.274	22177
887.399	22185
887.523	22147
887.648	22082
887.773	22002
887.897	22284
888.021	22097
888.146	22006
888.27	22295
888.395	22112
888.519	22143
888.643	22124
888.767	22188
888.891	22017
889.015	21808
889.139	22025
889.263	21857
889.387	21994
889.511	22082
889.635	21949
889.759	21751
889.883	21838
890.006	21835
890.13	21922
890.254	21831
890.377	21720
890.501	21587
890.624	21507
890.748	21698
890.871	21477
890.995	21416
891.118	21367
891.241	21477
891.364	21462
891.488	21637
891.611	21488
891.734	21507
891.857	21439
891.98	21431
892.103	21496
892.226	21386
892.349	21249
892.471	21089
892.594	21405
892.717	21291
892.839	21275
892.962	21264
893.085	21431
893.207	21252
893.33	21207
893.452	21161
893.575	21283
893.697	21313
893.819	21382
893.941	21557
894.064	21336
894.186	21325
894.308	21142
894.43	21443
894.552	21469
894.674	21443
894.796	21313
894.918	21275
895.04	21332
895.161	21367
895.283	21348
895.405	21222
895.526	21378
895.648	21416
895.769	21367
895.891	21329
896.012	21378
896.134	21359
896.255	21325
896.376	21279
896.498	21294
896.619	21435
896.74	21313
896.861	21310
896.982	21610
897.103	21709
897.224	21473
897.345	21473
897.466	21382
897.587	21405
897.708	21629
897.828	21496
897.949	21397
898.07	21241
898.19	21424
898.311	21526
898.431	21401
898.552	21485
898.672	21515
898.792	21477
898.913	21561
899.033	21268
899.153	21310
899.273	21104
899.393	21131
899.513	21184
899.633	21211
899.753	21218
899.873	21199
899.993	21233
900.113	21074
900.232	21135
900.352	21119
900.472	21089
900.591	21001
900.711	21066
900.83	20910
900.95	21085
901.069	21093
901.189	20944
901.308	20575
901.427	20507
901.546	20454
901.665	20442
901.784	20492
901.904	20362
902.023	20355
902.141	20153
902.26	20024
902.379	20073
902.498	20027
902.617	20012
902.735	20073
902.854	20001
902.973	19982
903.091	19734
903.21	19761
903.328	19624
903.446	19616
903.565	19495
903.683	19518
903.801	19285
903.919	19407
904.038	19438
904.156	19285
904.274	19407
904.392	19209
904.51	19259
904.627	19190
904.745	19324
904.863	19384
904.981	19031
905.098	19027
905.216	18875
905.334	18966
905.451	18916
905.569	18932
905.686	18993
905.803	18859
905.921	18696
906.038	18726
906.155	18696
906.272	18528
906.389	18585
906.506	18372
906.623	18486
906.74	18452
906.857	18391
906.974	18338
907.091	18448
907.208	18532
907.324	18338
907.441	18471
907.557	18239
907.674	18121
907.79	18133
907.907	18038
908.023	18197
908.139	18079
908.256	18106
908.372	18030
908.488	18079
908.604	18007
908.72	17756
908.836	17992
908.952	17794
909.068	17874
909.184	18011
909.3	17901
909.415	17946
909.531	17775
909.647	17600
909.762	17406
909.878	17539
909.993	17596
910.108	17474
910.224	17509
910.339	17501
910.454	17395
910.57	17360
910.685	17239
910.8	17528
910.915	17570
911.03	17356
911.145	17208
911.259	17212
911.374	17086
911.489	17037
911.604	16987
911.718	16824
911.833	16809
911.947	16866
912.062	16698
912.176	16847
912.291	16881
912.405	16816
912.519	17033
912.633	16984
912.748	16896
912.862	16987
912.976	16694
913.09	16717
913.204	16645
913.318	16664
913.431	16736
913.545	16816
913.659	16778
913.772	16634
913.886	16508
914	16451
914.113	16558
914.226	16554
914.34	16447
914.453	16409
914.566	16535
914.68	16367
914.793	16284
914.906	16105
915.019	16097
915.132	15979
915.245	16071
915.358	16021
915.47	16135
915.583	16006
915.696	16051
915.809	16169
915.921	16082
916.034	15934
916.146	15964
916.259	15949
916.371	15994
916.483	15956
916.595	15876
916.708	15922
916.82	15827
916.932	15739
917.044	15743
917.156	15762
917.268	15648
917.38	15671
917.491	15584
917.603	15759
917.715	15732
917.826	15705
917.938	15515
918.049	15424
918.161	15690
918.272	15781
918.384	15705
918.495	15606
918.606	15412
918.717	15431
918.828	15382
918.939	15294
919.05	15401
919.161	15424
919.272	15184
919.383	15203
919.494	15515
919.604	15462
919.715	15355
919.826	15268
919.936	15302
920.047	15378
920.157	15313
920.267	15568
920.378	15374
920.488	15226
920.598	15519
920.708	15637
920.818	15469
920.928	15450
921.038	15580
921.148	15587
921.258	15298
921.368	15142
921.477	15036
921.587	15032
921.697	14899
921.806	15047
921.916	14880
922.025	14777
922.134	14663
922.244	14644
922.353	14750
922.462	14545
922.571	14473
922.68	14358
922.789	14305
922.898	14377
923.007	14191
923.116	14301
923.224	14336
923.333	14248
923.442	14142
923.55	14107
923.659	14172
923.767	14126
923.876	14084
923.984	14161
924.092	14008
924.201	13989
924.309	14043
924.417	14084
924.525	13978
924.633	14050
924.741	14849
924.849	13776
924.956	13951
925.064	13704
925.172	13696
925.279	13647
925.387	13700
925.494	13681
925.602	13849
925.709	13693
925.816	13624
925.924	13651
926.031	13727
926.138	13609
926.245	13689
926.352	13476
926.459	13677
926.566	13662
926.673	13506
926.779	13506
926.886	13468
926.993	13297
927.099	13236
927.206	13228
927.312	13168
927.419	13244
927.525	13217
927.631	13259
927.737	13183
927.843	13129
927.95	12970
928.056	13031
928.162	13076
928.267	13053
928.373	13719
928.479	13149
928.585	12791
928.69	12939
928.796	13091
928.901	12871
929.007	12753
929.112	12848
929.218	12787
929.323	12745
929.428	12715
929.533	12875
929.638	12677
929.743	12631
929.848	12749
929.953	12730
930.058	12642
930.163	12384
930.267	12479
930.372	12525
930.477	12346
930.581	12490
930.685	12407
930.79	12350
930.894	12319
930.998	12228
931.103	12418
931.207	12064
931.311	11942
931.415	11904
931.519	11726
931.623	11680
