Data from test_V78500241_3246.txt Node
Date: Fri Mar 25 16:04:17 CST 2022
User: usil
Spectrometer: V785-0024
Trigger mode: 0
Integration Time (sec): 4.000000E-1
Scans to average: 1
Nonlinearity correction enabled: false
Boxcar width: 0
Storing dark spectrum: false
XAxis mode: Wavelengths
Number of Pixels in Spectrum: 1024
>>>>>Begin Spectral Data<<<<<
801.071	28824
801.214	28828
801.356	28611
801.499	28519
801.641	28489
801.783	28447
801.926	28394
802.068	28295
802.211	28462
802.353	28405
802.496	28101
802.638	28246
802.78	28150
802.923	28044
803.065	27865
803.208	28162
803.35	28230
803.492	28219
803.635	28386
803.777	28158
803.919	28470
804.061	28736
804.204	28588
804.346	28223
804.488	28280
804.63	28398
804.773	28291
804.915	28538
805.057	28485
805.199	28379
805.341	28428
805.483	28504
805.626	28573
805.768	28500
805.91	28459
806.052	28508
806.194	28546
806.336	28710
806.478	28516
806.62	28645
806.762	28645
806.904	28866
807.046	29121
807.188	29067
807.33	29151
807.472	29025
807.614	28942
807.756	29006
807.898	28892
808.04	28748
808.182	28820
808.324	28786
808.465	28991
808.607	29132
808.749	29383
808.891	29387
809.033	29421
809.174	29292
809.316	29265
809.458	29261
809.6	29189
809.741	29311
809.883	29421
810.025	29486
810.166	29406
810.308	29623
810.45	29516
810.591	29395
810.733	29398
810.875	29330
811.016	29223
811.158	29326
811.299	29250
811.441	29391
811.582	29474
811.724	29311
811.865	29246
812.007	29254
812.148	29303
812.29	29231
812.431	29372
812.573	29729
812.714	29615
812.855	29950
812.997	29939
813.138	30148
813.279	30049
813.421	29927
813.562	29798
813.703	29634
813.845	29417
813.986	29231
814.127	29018
814.268	29003
814.41	29128
814.551	29014
814.692	29124
814.833	28774
814.974	29075
815.115	29064
815.256	28942
815.397	28980
815.539	28809
815.68	28968
815.821	28710
815.962	28934
816.103	28713
816.244	28733
816.385	28504
816.526	28455
816.666	28398
816.807	28337
816.948	28382
817.089	28363
817.23	28348
817.371	28280
817.512	28386
817.653	28280
817.793	28261
817.934	28348
818.075	28424
818.216	28287
818.356	28230
818.497	28242
818.638	28211
818.778	28013
818.919	28135
819.06	28246
819.2	28074
819.341	28348
819.481	28310
819.622	28409
819.762	28755
819.903	28523
820.043	28519
820.184	28405
820.324	28493
820.465	28512
820.605	28523
820.746	28284
820.886	28436
821.026	28459
821.167	28371
821.307	28531
821.447	28337
821.588	28306
821.728	28025
821.868	28021
822.008	27770
822.149	27743
822.289	27842
822.429	27603
822.569	27344
822.709	27416
822.849	27355
822.99	27462
823.13	27302
823.27	27279
823.41	27112
823.55	27043
823.69	27051
823.83	27047
823.97	27154
824.11	26956
824.25	26838
824.389	26861
824.529	27116
824.669	26948
824.809	27062
824.949	27020
825.089	27074
825.228	27024
825.368	26701
825.508	26895
825.648	26880
825.787	26940
825.927	26823
826.067	26826
826.206	26971
826.346	26918
826.485	26880
826.625	26963
826.765	26872
826.904	26876
827.044	26629
827.183	26594
827.323	26716
827.462	26674
827.601	26598
827.741	26541
827.88	26594
828.02	26476
828.159	26484
828.298	26556
828.437	26606
828.577	26442
828.716	26682
828.855	26259
828.994	26153
829.134	26161
829.273	26183
829.412	26206
829.551	26183
829.69	26301
829.829	26256
829.968	26252
830.107	26237
830.246	26199
830.385	26225
830.524	26111
830.663	26073
830.802	25921
830.941	25890
831.08	25795
831.219	25997
831.357	25830
831.496	26031
831.635	25879
831.774	25776
831.913	25841
832.051	25795
832.19	25609
832.329	25674
832.467	25525
832.606	25441
832.744	25434
832.883	25502
833.022	25449
833.16	25544
833.299	25518
833.437	25430
833.576	25510
833.714	25540
833.852	25616
833.991	25674
834.129	25727
834.267	25681
834.406	25704
834.544	25731
834.682	25791
834.821	25674
834.959	25738
835.097	25544
835.235	25514
835.373	25495
835.511	25540
835.65	25369
835.788	25533
835.926	25350
836.064	25076
836.202	25384
836.34	25438
836.478	25559
836.615	25472
836.753	25445
836.891	25308
837.029	25381
837.167	25403
837.305	25316
837.443	25289
837.58	25251
837.718	25343
837.856	25183
837.993	25194
838.131	25320
838.269	25141
838.406	25213
838.544	25019
838.681	24852
838.819	24772
838.956	24707
839.094	24681
839.231	24757
839.369	24783
839.506	25107
839.643	24916
839.781	24700
839.918	24669
840.055	24764
840.193	24715
840.33	24608
840.467	24658
840.604	24650
840.742	24840
840.879	24456
841.016	24574
841.153	24505
841.29	24703
841.427	24707
841.564	24665
841.701	24578
841.838	24551
841.975	24467
842.112	24426
842.249	24452
842.385	24319
842.522	24658
842.659	24502
842.796	24216
842.933	24323
843.069	24262
843.206	24186
843.343	24346
843.479	24308
843.616	24365
843.752	24292
843.889	24167
844.025	24155
844.162	24155
844.298	24190
844.435	24167
844.571	24114
844.708	24205
844.844	24213
844.98	24410
845.117	24289
845.253	24007
845.389	23904
845.525	24125
845.661	23996
845.798	23901
845.934	23916
846.07	23920
846.206	23813
846.342	23916
846.478	23824
846.614	23676
846.75	23467
846.886	23646
847.022	23714
847.158	23630
847.294	23573
847.429	23619
847.565	23577
847.701	23733
847.837	23239
847.972	23356
848.108	23307
848.244	23360
848.379	23311
848.515	23208
848.65	23147
848.786	23132
848.921	23102
849.057	23425
849.192	23220
849.328	23254
849.463	23109
849.598	22915
849.734	23071
849.869	22953
850.004	22877
850.14	22968
850.275	23010
850.41	22858
850.545	22793
850.68	22786
850.815	22942
850.95	22862
851.085	23185
851.22	23079
851.355	23029
851.49	22847
851.625	22801
851.76	23056
851.895	22793
852.03	22843
852.165	22710
852.299	22987
852.434	22972
852.569	23052
852.703	22980
852.838	22984
852.973	23071
853.107	23022
853.242	22892
853.376	22710
853.511	22565
853.645	22767
853.78	22862
853.914	22744
854.048	22831
854.183	22755
854.317	22854
854.451	23071
854.585	22877
854.72	22771
854.854	22698
854.988	22653
855.122	22805
855.256	22649
855.39	22713
855.524	22854
855.658	22801
855.792	22748
855.926	22759
856.06	22965
856.194	22793
856.327	22679
856.461	22698
856.595	22740
856.729	22782
856.862	22778
856.996	22812
857.13	22801
857.263	22866
857.397	22869
857.53	22713
857.664	22869
857.797	22866
857.931	22873
858.064	22752
858.197	22881
858.331	22679
858.464	22618
858.597	22557
858.731	22767
858.864	22668
858.997	22660
859.13	22729
859.263	22649
859.396	22778
859.529	22782
859.662	22713
859.795	22809
859.928	22687
860.061	22824
860.194	22957
860.327	22873
860.46	22740
860.592	22854
860.725	22938
860.858	22858
860.99	22786
861.123	22694
861.256	22672
861.388	22786
861.521	23512
861.653	22683
861.786	22603
861.918	22607
862.05	22626
862.183	22774
862.315	22599
862.447	22778
862.58	22767
862.712	22390
862.844	22451
862.976	22569
863.108	22554
863.24	22854
863.372	22497
863.504	22424
863.636	22462
863.768	22538
863.9	22478
864.032	22356
864.164	22493
864.296	22455
864.428	22481
864.559	22443
864.691	22417
864.823	22550
864.954	22436
865.086	22421
865.217	22253
865.349	22223
865.48	22196
865.612	22253
865.743	22363
865.875	22409
866.006	22375
866.137	22329
866.269	22284
866.4	22299
866.531	22207
866.662	22242
866.793	22246
866.924	22280
867.055	22371
867.186	22204
867.317	22139
867.448	22249
867.579	22253
867.71	22173
867.841	22230
867.972	22246
868.103	22219
868.233	22253
868.364	22272
868.495	22421
868.625	22379
868.756	22557
868.886	22382
869.017	22485
869.147	22626
869.278	22615
869.408	22615
869.539	22535
869.669	22713
869.799	22523
869.929	22637
870.06	22615
870.19	22782
870.32	22790
870.45	22755
870.58	22869
870.71	22984
870.84	23018
870.97	22839
871.1	22923
871.23	23048
871.36	23048
871.489	23029
871.619	23105
871.749	23086
871.879	23044
872.008	23326
872.138	23094
872.267	23025
872.397	22980
872.526	23022
872.656	22968
872.785	22991
872.915	23105
873.044	23239
873.173	23109
873.303	23181
873.432	23220
873.561	23151
873.69	23102
873.819	23292
873.948	23166
874.077	23022
874.206	23048
874.335	23162
874.464	23235
874.593	23360
874.722	23235
874.851	23337
874.979	23391
875.108	23455
875.237	23318
875.365	23189
875.494	23353
875.623	23345
875.751	23216
875.88	23341
876.008	23455
876.136	23444
876.265	23707
876.393	23767
876.521	23786
876.65	23741
876.778	23817
876.906	23687
877.034	23589
877.162	23775
877.29	23543
877.418	23691
877.546	23722
877.674	23634
877.802	23710
877.93	23486
878.058	23608
878.185	23524
878.313	23570
878.441	23554
878.568	23505
878.696	23535
878.824	23615
878.951	23748
879.079	23786
879.206	23923
879.333	23923
879.461	23630
879.588	23733
879.715	23901
879.842	24068
879.97	23733
880.097	23585
880.224	23505
880.351	23562
880.478	23440
880.605	23455
880.732	23429
880.859	23794
880.986	23429
881.112	23551
881.239	23395
881.366	23094
881.493	23227
881.619	23086
881.746	23010
881.872	23041
881.999	23041
882.125	22946
882.252	23071
882.378	23022
882.505	23105
882.631	22908
882.757	22778
882.883	22729
883.01	22694
883.136	22725
883.262	22470
883.388	22516
883.514	22759
883.64	22763
883.766	22577
883.892	22428
884.018	22409
884.143	22717
884.269	22755
884.395	22398
884.52	22268
884.646	22470
884.772	22169
884.897	22207
885.023	22432
885.148	22348
885.274	22577
885.399	22447
885.524	22344
885.65	22246
885.775	22394
885.9	22360
886.025	22432
886.15	22363
886.275	22276
886.4	22204
886.525	22443
886.65	22405
886.775	22276
886.9	22432
887.025	22428
887.149	22291
887.274	22078
887.399	22055
887.523	22059
887.648	21949
887.773	22070
887.897	22135
888.021	22116
888.146	21907
888.27	22105
888.395	22070
888.519	22150
888.643	22055
888.767	22093
888.891	21972
889.015	21930
889.139	21895
889.263	21907
889.387	22002
889.511	22017
889.635	21991
889.759	21854
889.883	21956
890.006	21895
890.13	21842
890.254	21827
890.377	21766
890.501	21648
890.624	21561
890.748	21545
890.871	21534
890.995	21519
891.118	21405
891.241	21538
891.364	21454
891.488	21553
891.611	21454
891.734	21481
891.857	21435
891.98	21412
892.103	21382
892.226	21351
892.349	21374
892.471	21291
892.594	21435
892.717	21344
892.839	21298
892.962	21393
893.085	21401
893.207	21298
893.33	21173
893.452	21279
893.575	21386
893.697	21192
893.819	21583
893.941	21504
894.064	21359
894.186	21268
894.308	21245
894.43	21393
894.552	21424
894.674	21329
894.796	21161
894.918	21241
895.04	21348
895.161	21283
895.283	21302
895.405	21184
895.526	21355
895.648	21195
895.769	21287
895.891	21344
896.012	21363
896.134	21302
896.255	21287
896.376	21226
896.498	21332
896.619	21351
896.74	21348
896.861	21325
896.982	21500
897.103	21770
897.224	21496
897.345	21466
897.466	21359
897.587	21458
897.708	21610
897.828	21473
897.949	21428
898.07	21389
898.19	21431
898.311	21549
898.431	21485
898.552	21416
898.672	21515
898.792	21485
898.913	21462
899.033	21488
899.153	21249
899.273	21188
899.393	21237
899.513	21260
899.633	21176
899.753	21192
899.873	21192
899.993	21226
900.113	21256
900.232	21180
900.352	21093
900.472	21085
900.591	21039
900.711	21017
900.83	20921
900.95	21051
901.069	20960
901.189	20845
901.308	20541
901.427	20480
901.546	20484
901.665	20640
901.784	20438
901.904	20355
902.023	20240
902.141	20119
902.26	20069
902.379	20126
902.498	20012
902.617	19967
902.735	19989
902.854	19875
902.973	19940
903.091	19712
903.21	19746
903.328	19693
903.446	19715
903.565	19567
903.683	19510
903.801	19304
903.919	19460
904.038	19430
904.156	19339
904.274	19381
904.392	19206
904.51	19266
904.627	19206
904.745	19297
904.863	19209
904.981	19145
905.098	18886
905.216	18970
905.334	18852
905.451	18954
905.569	18909
905.686	18966
905.803	18954
905.921	18646
906.038	18707
906.155	18814
906.272	18589
906.389	18642
906.506	18395
906.623	18376
906.74	18464
906.857	18308
906.974	18346
907.091	18559
907.208	18536
907.324	18414
907.441	18475
907.557	18254
907.674	18041
907.79	18106
907.907	18007
908.023	18167
908.139	18178
908.256	17984
908.372	18087
908.488	17961
908.604	17893
908.72	17767
908.836	17843
908.952	17885
909.068	17878
909.184	17935
909.3	17901
909.415	17916
909.531	17859
909.647	17665
909.762	17558
909.878	17585
909.993	17539
910.108	17589
910.224	17543
910.339	17490
910.454	17372
910.57	17296
910.685	17364
910.8	17524
910.915	17539
911.03	17311
911.145	17250
911.259	16995
911.374	17045
911.489	17079
911.604	16980
911.718	16877
911.833	16873
911.947	16809
912.062	16622
912.176	16843
912.291	16904
912.405	16809
912.519	17105
912.633	17052
912.748	16873
912.862	16915
912.976	16694
913.09	16508
913.204	16679
913.318	16649
913.431	16771
913.545	16706
913.659	16710
913.772	16733
913.886	16497
914	16447
914.113	16402
914.226	16577
914.34	16451
914.453	16291
914.566	16500
914.68	16341
914.793	16363
914.906	16158
915.019	16097
915.132	16059
915.245	16082
915.358	16078
915.47	16093
915.583	16025
915.696	15987
915.809	16124
915.921	16204
916.034	16044
916.146	15926
916.259	15827
916.371	15964
916.483	15983
916.595	15770
916.708	15846
916.82	15819
916.932	15827
917.044	15835
917.156	15759
917.268	15778
917.38	15625
917.491	15637
917.603	15587
917.715	15724
917.826	15679
917.938	15648
918.049	15469
918.161	15584
918.272	15641
918.384	15675
918.495	15511
918.606	15435
918.717	15348
918.828	15492
918.939	15439
919.05	15310
919.161	15378
919.272	15218
919.383	15302
919.494	15344
919.604	15549
919.715	15329
919.826	15256
919.936	15199
920.047	15389
920.157	15317
920.267	15580
920.378	15431
920.488	15268
920.598	15534
920.708	15663
920.818	15412
920.928	15382
921.038	15587
921.148	15599
921.258	15226
921.368	15150
921.477	15077
921.587	15028
921.697	14971
921.806	15108
921.916	14876
922.025	14667
922.134	14648
922.244	14640
922.353	14724
922.462	14526
922.571	14427
922.68	14389
922.789	14320
922.898	14385
923.007	14259
923.116	14313
923.224	14248
923.333	14278
923.442	14157
923.55	14126
923.659	14191
923.767	14191
923.876	14077
923.984	14153
924.092	13963
924.201	14153
924.309	14039
924.417	14062
924.525	14020
924.633	13944
924.741	14746
924.849	13746
924.956	13890
925.064	13738
925.172	13677
925.279	13708
925.387	13731
925.494	13620
925.602	13833
925.709	13734
925.816	13655
925.924	13674
926.031	13791
926.138	13582
926.245	13674
926.352	13586
926.459	13685
926.566	13613
926.673	13552
926.779	13468
926.886	13400
926.993	13194
927.099	13209
927.206	13183
927.312	13171
927.419	13228
927.525	13190
927.631	13278
927.737	13038
927.843	13129
927.95	13072
928.056	13072
928.162	13061
928.267	13053
928.373	13578
928.479	13107
928.585	12901
928.69	12943
928.796	13015
928.901	12977
929.007	12688
929.112	12993
929.218	12905
929.323	12757
929.428	12760
929.533	12882
929.638	12722
929.743	12669
929.848	12760
929.953	12684
930.058	12479
930.163	12414
930.267	12403
930.372	12506
930.477	12372
930.581	12604
930.685	12467
930.79	12292
930.894	12342
930.998	12353
931.103	12403
931.207	12041
931.311	11946
931.415	11855
931.519	11695
931.623	11657
