Data from test_V78500241_1616.txt Node
Date: Fri Mar 25 15:52:59 CST 2022
User: usil
Spectrometer: V785-0024
Trigger mode: 0
Integration Time (sec): 4.000000E-1
Scans to average: 1
Nonlinearity correction enabled: false
Boxcar width: 0
Storing dark spectrum: false
XAxis mode: Wavelengths
Number of Pixels in Spectrum: 1024
>>>>>Begin Spectral Data<<<<<
801.071	28253
801.214	28131
801.356	28105
801.499	27918
801.641	27895
801.783	27960
801.926	28051
802.068	27835
802.211	27873
802.353	27610
802.496	27705
802.638	27713
802.78	27561
802.923	27492
803.065	27523
803.208	27469
803.35	27660
803.492	27599
803.635	27812
803.777	27755
803.919	27873
804.061	28112
804.204	27720
804.346	27865
804.488	27679
804.63	27842
804.773	27736
804.915	27804
805.057	27930
805.199	27759
805.341	27892
805.483	28006
805.626	27907
805.768	27892
805.91	28010
806.052	27934
806.194	27914
806.336	28101
806.478	28048
806.62	27937
806.762	28040
806.904	28303
807.046	28451
807.188	28287
807.33	28432
807.472	28466
807.614	28466
807.756	28303
807.898	28280
808.04	28207
808.182	28097
808.324	28219
808.465	28352
808.607	28497
808.749	28675
808.891	28641
809.033	28873
809.174	28649
809.316	28626
809.458	28565
809.6	28599
809.741	28592
809.883	28828
810.025	28858
810.166	28911
810.308	29029
810.45	28885
810.591	28809
810.733	28706
810.875	28649
811.016	28588
811.158	28561
811.299	28683
811.441	28740
811.582	28828
811.724	28645
811.865	28634
812.007	28546
812.148	28542
812.29	28668
812.431	28698
812.573	28976
812.714	28896
812.855	29174
812.997	29254
813.138	29421
813.279	29322
813.421	29117
813.562	29140
813.703	29003
813.845	28854
813.986	28565
814.127	28478
814.268	28367
814.41	28497
814.551	28280
814.692	28375
814.833	28246
814.974	28363
815.115	28459
815.256	28109
815.397	28070
815.539	28116
815.68	28013
815.821	28105
815.962	28249
816.103	28029
816.244	28070
816.385	27918
816.526	27937
816.666	27656
816.807	27572
816.948	27781
817.089	27766
817.23	27656
817.371	27629
817.512	27686
817.653	27416
817.793	27549
817.934	27549
818.075	27789
818.216	27724
818.356	27523
818.497	27492
818.638	27279
818.778	27279
818.919	27382
819.06	27325
819.2	27485
819.341	27724
819.481	27679
819.622	27705
819.762	27956
819.903	27922
820.043	27899
820.184	27675
820.324	27739
820.465	27865
820.605	27812
820.746	27743
820.886	27587
821.026	27637
821.167	27656
821.307	27781
821.447	27526
821.588	27545
821.728	27427
821.868	27298
822.008	27157
822.149	27142
822.289	27074
822.429	26906
822.569	26746
822.709	26758
822.849	26724
822.99	26716
823.13	26522
823.27	26629
823.41	26427
823.55	26381
823.69	26541
823.83	26453
823.97	26507
824.11	26290
824.25	26187
824.389	26343
824.529	26362
824.669	26218
824.809	26484
824.949	26419
825.089	26328
825.228	26362
825.368	26168
825.508	26142
825.648	26206
825.787	26218
825.927	26244
826.067	26187
826.206	26161
826.346	26100
826.485	26176
826.625	26134
826.765	26183
826.904	26145
827.044	25944
827.183	25955
827.323	25738
827.462	25947
827.601	25925
827.741	25791
827.88	25791
828.02	25693
828.159	25734
828.298	25814
828.437	25982
828.577	25712
828.716	25883
828.855	25616
828.994	25590
829.134	25521
829.273	25601
829.412	25525
829.551	25506
829.69	25449
829.829	25537
829.968	25696
830.107	25510
830.246	25620
830.385	25445
830.524	25438
830.663	25381
830.802	25225
830.941	25217
831.08	25171
831.219	25225
831.357	25221
831.496	25297
831.635	25289
831.774	25091
831.913	25110
832.051	24890
832.19	24905
832.329	24947
832.467	24840
832.606	24730
832.744	24802
832.883	24658
833.022	24700
833.16	24859
833.299	24901
833.437	24848
833.576	24989
833.714	24916
833.852	24973
833.991	24977
834.129	24951
834.267	24909
834.406	24863
834.544	24939
834.682	24970
834.821	24882
834.959	24985
835.097	24837
835.235	24977
835.373	24871
835.511	24958
835.65	24684
835.788	24757
835.926	24566
836.064	24639
836.202	24639
836.34	24814
836.478	24890
836.615	24776
836.753	24757
836.891	24837
837.029	24715
837.167	24688
837.305	24578
837.443	24604
837.58	24608
837.718	24612
837.856	24608
837.993	24502
838.131	24612
838.269	24467
838.406	24483
838.544	24330
838.681	24163
838.819	24136
838.956	24003
839.094	24003
839.231	24152
839.369	24281
839.506	24372
839.643	24190
839.781	24053
839.918	24011
840.055	24091
840.193	23904
840.33	23931
840.467	23908
840.604	23999
840.742	24311
840.879	23802
841.016	23809
841.153	23783
841.29	24060
841.427	23889
841.564	23912
841.701	24026
841.838	23935
841.975	23760
842.112	23786
842.249	23866
842.385	23676
842.522	23912
842.659	23691
842.796	23649
842.933	23638
843.069	23592
843.206	23539
843.343	23764
843.479	23737
843.616	23729
843.752	23421
843.889	23539
844.025	23649
844.162	23425
844.298	23699
844.435	23444
844.571	23452
844.708	23440
844.844	23554
844.98	23649
845.117	23589
845.253	23345
845.389	23356
845.525	23269
845.661	23406
845.798	23315
845.934	23261
846.07	23147
846.206	23178
846.342	23341
846.478	23185
846.614	22930
846.75	22854
846.886	22934
847.022	23044
847.158	22896
847.294	23003
847.429	22930
847.565	22908
847.701	23128
847.837	22694
847.972	22618
848.108	22774
848.244	22812
848.379	22527
848.515	22466
848.65	22447
848.786	22573
848.921	22516
849.057	22580
849.192	22550
849.328	22523
849.463	22489
849.598	22417
849.734	22428
849.869	22390
850.004	22246
850.14	22192
850.275	22306
850.41	22226
850.545	22166
850.68	22185
850.815	22253
850.95	22139
851.085	22478
851.22	22333
851.355	22219
851.49	22185
851.625	22219
851.76	22150
851.895	22158
852.03	22169
852.165	22223
852.299	22276
852.434	22466
852.569	22253
852.703	22124
852.838	22299
852.973	22497
853.107	22352
853.242	22280
853.376	22219
853.511	21930
853.645	22082
853.78	22093
853.914	22101
854.048	22097
854.183	21907
854.317	22166
854.451	22265
854.585	22120
854.72	22105
854.854	22158
854.988	22036
855.122	22021
855.256	22078
855.39	22021
855.524	22207
855.658	22135
855.792	22063
855.926	22059
856.06	22204
856.194	21994
856.327	22124
856.461	22093
856.595	22051
856.729	22032
856.862	22223
856.996	22086
857.13	22124
857.263	22135
857.397	22147
857.53	22139
857.664	22086
857.797	22169
857.931	22181
858.064	22173
858.197	22082
858.331	22067
858.464	22135
858.597	22067
858.731	22021
858.864	22158
858.997	22070
859.13	21983
859.263	22173
859.396	22135
859.529	22032
859.662	22249
859.795	22044
859.928	22101
860.061	22204
860.194	22173
860.327	22135
860.46	22078
860.592	22219
860.725	22375
860.858	22238
860.99	22181
861.123	22139
861.256	22162
861.388	22143
861.521	22805
861.653	21926
861.786	21960
861.918	21899
862.05	22051
862.183	21998
862.315	21930
862.447	21960
862.58	22029
862.712	21846
862.844	21823
862.976	21816
863.108	21781
863.24	22200
863.372	21831
863.504	21595
863.636	21747
863.768	21819
863.9	21819
864.032	21739
864.164	21861
864.296	21747
864.428	21899
864.559	21747
864.691	21857
864.823	21865
864.954	21842
865.086	21766
865.217	21816
865.349	21572
865.48	21679
865.612	21717
865.743	21888
865.875	21724
866.006	21660
866.137	21671
866.269	21564
866.4	21717
866.531	21682
866.662	21652
866.793	21587
866.924	21656
867.055	21660
867.186	21686
867.317	21648
867.448	21538
867.579	21618
867.71	21515
867.841	21496
867.972	21660
868.103	21698
868.233	21538
868.364	21701
868.495	21690
868.625	21895
868.756	21865
868.886	21736
869.017	21857
869.147	21953
869.278	21907
869.408	21850
869.539	21850
869.669	21968
869.799	21854
869.929	22017
870.06	21983
870.19	22192
870.32	22128
870.45	22143
870.58	22230
870.71	22432
870.84	22223
870.97	22268
871.1	22253
871.23	22569
871.36	22436
871.489	22325
871.619	22375
871.749	22538
871.879	22417
872.008	22546
872.138	22455
872.267	22394
872.397	22398
872.526	22341
872.656	22337
872.785	22238
872.915	22516
873.044	22512
873.173	22470
873.303	22630
873.432	22641
873.561	22462
873.69	22470
873.819	22462
873.948	22561
874.077	22432
874.206	22421
874.335	22607
874.464	22725
874.593	22736
874.722	22748
874.851	22771
874.979	22656
875.108	22790
875.237	22698
875.365	22577
875.494	22577
875.623	22797
875.751	22630
875.88	22713
876.008	22767
876.136	22980
876.265	23128
876.393	23292
876.521	23155
876.65	23102
876.778	23204
876.906	23018
877.034	22968
877.162	23018
877.29	22972
877.418	23056
877.546	23029
877.674	23037
877.802	23090
877.93	22942
878.058	22953
878.185	22854
878.313	22942
878.441	23105
878.568	22873
878.696	22965
878.824	23128
878.951	23086
879.079	23178
879.206	23242
879.333	23128
879.461	23022
879.588	23067
879.715	23200
879.842	23220
879.97	23056
880.097	22877
880.224	22744
880.351	22797
880.478	22850
880.605	22797
880.732	22736
880.859	23033
880.986	22835
881.112	22820
881.239	22835
881.366	22626
881.493	22447
881.619	22398
881.746	22413
881.872	22291
881.999	22363
882.125	22352
882.252	22409
882.378	22390
882.505	22519
882.631	22162
882.757	22185
882.883	22219
883.01	21953
883.136	22093
883.262	21998
883.388	21968
883.514	21991
883.64	22048
883.766	21945
883.892	21861
884.018	21808
884.143	22017
884.269	22070
884.395	21835
884.52	21755
884.646	21785
884.772	21629
884.897	21599
885.023	21694
885.148	21812
885.274	21850
885.399	21778
885.524	21739
885.65	21705
885.775	21789
885.9	21724
886.025	21842
886.15	21789
886.275	21709
886.4	21667
886.525	21713
886.65	21629
886.775	21587
886.9	21884
887.025	21994
887.149	21599
887.274	21614
887.399	21447
887.523	21412
887.648	21386
887.773	21336
887.897	21507
888.021	21599
888.146	21523
888.27	21580
888.395	21534
888.519	21515
888.643	21591
888.767	21564
888.891	21408
889.015	21222
889.139	21336
889.263	21245
889.387	21287
889.511	21469
889.635	21325
889.759	21340
889.883	21237
890.006	21211
890.13	21245
890.254	21176
890.377	21108
890.501	20933
890.624	21085
890.748	21085
890.871	20914
890.995	20758
891.118	20758
891.241	20967
891.364	20883
891.488	20933
891.611	20876
891.734	20853
891.857	20899
891.98	20895
892.103	21005
892.226	20807
892.349	20743
892.471	20743
892.594	20804
892.717	20746
892.839	20739
892.962	20731
893.085	20902
893.207	20777
893.33	20629
893.452	20640
893.575	20823
893.697	20754
893.819	20845
893.941	20842
894.064	20944
894.186	20823
894.308	20743
894.43	20834
894.552	20804
894.674	20720
894.796	20651
894.918	20735
895.04	20640
895.161	20804
895.283	20838
895.405	20674
895.526	20785
895.648	20739
895.769	20705
895.891	20758
896.012	20788
896.134	20781
896.255	20826
896.376	20724
896.498	20746
896.619	20724
896.74	20693
896.861	20758
896.982	21047
897.103	21116
897.224	21096
897.345	21028
897.466	20910
897.587	20948
897.708	21051
897.828	20941
897.949	20899
898.07	20830
898.19	21001
898.311	20876
898.431	20891
898.552	21001
898.672	20952
898.792	21001
898.913	20826
899.033	20872
899.153	20663
899.273	20632
899.393	20693
899.513	20708
899.633	20792
899.753	20613
899.873	20533
899.993	20644
900.113	20587
900.232	20587
900.352	20571
900.472	20457
900.591	20393
900.711	20446
900.83	20347
900.95	20480
901.069	20461
901.189	20343
901.308	20149
901.427	19879
901.546	20073
901.665	20001
901.784	20050
901.904	19887
902.023	19780
902.141	19567
902.26	19422
902.379	19670
902.498	19540
902.617	19422
902.735	19643
902.854	19384
902.973	19491
903.091	19247
903.21	19202
903.328	19209
903.446	19103
903.565	19000
903.683	18973
903.801	18821
903.919	18875
904.038	18947
904.156	18772
904.274	18859
904.392	18703
904.51	18707
904.627	18783
904.745	18897
904.863	18787
904.981	18528
905.098	18410
905.216	18388
905.334	18528
905.451	18437
905.569	18429
905.686	18350
905.803	18353
905.921	18186
906.038	18262
906.155	18213
906.272	18167
906.389	18098
906.506	17908
906.623	18011
906.74	17965
906.857	17722
906.974	17783
907.091	17950
907.208	18106
907.324	17920
907.441	17847
907.557	17687
907.674	17668
907.79	17520
907.907	17680
908.023	17733
908.139	17714
908.256	17665
908.372	17638
908.488	17547
908.604	17509
908.72	17322
908.836	17421
908.952	17356
909.068	17414
909.184	17459
909.3	17364
909.415	17425
909.531	17258
909.647	17079
909.762	17025
909.878	17071
909.993	17014
910.108	17086
910.224	17086
910.339	17086
910.454	16976
910.57	16816
910.685	16835
910.8	17041
910.915	17071
911.03	16824
911.145	16748
911.259	16561
911.374	16584
911.489	16542
911.604	16592
911.718	16417
911.833	16386
911.947	16211
912.062	16303
912.176	16367
912.291	16478
912.405	16348
912.519	16622
912.633	16592
912.748	16554
912.862	16363
912.976	16246
913.09	16074
913.204	16093
913.318	16268
913.431	16322
913.545	16299
913.659	16348
913.772	16173
913.886	16109
914	15892
914.113	16044
914.226	16116
914.34	16071
914.453	15907
914.566	16040
914.68	15911
914.793	15857
914.906	15610
915.019	15610
915.132	15572
915.245	15591
915.358	15614
915.47	15618
915.583	15694
915.696	15603
915.809	15652
915.921	15755
916.034	15500
916.146	15485
916.259	15420
916.371	15694
916.483	15584
916.595	15332
916.708	15469
916.82	15405
916.932	15344
917.044	15351
917.156	15344
917.268	15116
917.38	15207
917.491	15195
917.603	15241
917.715	15389
917.826	15389
917.938	15108
918.049	15070
918.161	15150
918.272	15230
918.384	15294
918.495	15222
918.606	14952
918.717	15028
918.828	14933
918.939	14979
919.05	14830
919.161	14952
919.272	14868
919.383	14788
919.494	15017
919.604	15131
919.715	15005
919.826	14819
919.936	14883
920.047	14994
920.157	14834
920.267	15119
920.378	14975
920.488	14857
920.598	15074
920.708	15275
920.818	15032
920.928	15047
921.038	15116
921.148	15100
921.258	14975
921.368	14762
921.477	14697
921.587	14735
921.697	14518
921.806	14667
921.916	14526
922.025	14499
922.134	14400
922.244	14252
922.353	14374
922.462	14172
922.571	14111
922.68	14035
922.789	13902
922.898	14008
923.007	13951
923.116	13879
923.224	13909
923.333	13978
923.442	13814
923.55	13807
923.659	13833
923.767	13837
923.876	13807
923.984	13883
924.092	13689
924.201	13708
924.309	13616
924.417	13696
924.525	13689
924.633	13563
924.741	14541
924.849	13316
924.956	13552
925.064	13400
925.172	13358
925.279	13308
925.387	13438
925.494	13316
925.602	13457
925.709	13381
925.816	13255
925.924	13244
926.031	13316
926.138	13324
926.245	13377
926.352	13255
926.459	13312
926.566	13343
926.673	13228
926.779	13114
926.886	13099
926.993	12973
927.099	12954
927.206	12886
927.312	12928
927.419	12916
927.525	12913
927.631	12977
927.737	12871
927.843	12791
927.95	12620
928.056	12715
928.162	12753
928.267	12802
928.373	13430
928.479	12753
928.585	12521
928.69	12677
928.796	12814
928.901	12696
929.007	12350
929.112	12540
929.218	12494
929.323	12525
929.428	12517
929.533	12555
929.638	12388
929.743	12414
929.848	12380
929.953	12494
930.058	12365
930.163	12220
930.267	12102
930.372	12258
930.477	12076
930.581	12266
930.685	12114
930.79	12045
930.894	11942
930.998	11969
931.103	12140
931.207	11802
931.311	11741
931.415	11539
931.519	11391
931.623	11398
