Data from test_V78500241_811.txt Node
Date: Fri Mar 25 15:47:25 CST 2022
User: usil
Spectrometer: V785-0024
Trigger mode: 0
Integration Time (sec): 4.000000E-1
Scans to average: 1
Nonlinearity correction enabled: false
Boxcar width: 0
Storing dark spectrum: false
XAxis mode: Wavelengths
Number of Pixels in Spectrum: 1024
>>>>>Begin Spectral Data<<<<<
801.071	27880
801.214	27774
801.356	27641
801.499	27553
801.641	27287
801.783	27618
801.926	27515
802.068	27454
802.211	27382
802.353	27260
802.496	27116
802.638	26921
802.78	27184
802.923	27055
803.065	26921
803.208	27043
803.35	27009
803.492	27055
803.635	27287
803.777	27161
803.919	27169
804.061	27500
804.204	27222
804.346	27089
804.488	27222
804.63	27260
804.773	27104
804.915	27214
805.057	27355
805.199	27268
805.341	27466
805.483	27435
805.626	27393
805.768	27359
805.91	27424
806.052	27450
806.194	27237
806.336	27587
806.478	27447
806.62	27401
806.762	27408
806.904	27736
807.046	27880
807.188	27808
807.33	27770
807.472	27926
807.614	27698
807.756	27789
807.898	27732
808.04	27629
808.182	27526
808.324	27743
808.465	27625
808.607	27941
808.749	28116
808.891	28226
809.033	28112
809.174	28124
809.316	28078
809.458	27972
809.6	28063
809.741	28128
809.883	28059
810.025	28169
810.166	28306
810.308	28226
810.45	28280
810.591	28192
810.733	27983
810.875	28017
811.016	28029
811.158	27918
811.299	28128
811.441	28246
811.582	28322
811.724	27880
811.865	28006
812.007	28082
812.148	27953
812.29	28185
812.431	28303
812.573	28455
812.714	28390
812.855	28641
812.997	28698
813.138	28854
813.279	28717
813.421	28535
813.562	28561
813.703	28306
813.845	28246
813.986	28036
814.127	27804
814.268	27797
814.41	27656
814.551	27755
814.692	27770
814.833	27652
814.974	27603
815.115	27717
815.256	27682
815.397	27595
815.539	27614
815.68	27367
815.821	27515
815.962	27568
816.103	27526
816.244	27450
816.385	27401
816.526	27359
816.666	27321
816.807	27066
816.948	27127
817.089	27195
817.23	27062
817.371	27039
817.512	27001
817.653	26963
817.793	26902
817.934	26952
818.075	27013
818.216	27020
818.356	26952
818.497	26967
818.638	26678
818.778	26678
818.919	26800
819.06	26842
819.2	26887
819.341	27017
819.481	27085
819.622	27020
819.762	27412
819.903	27233
820.043	27230
820.184	27070
820.324	27119
820.465	27226
820.605	27249
820.746	27104
820.886	26986
821.026	27127
821.167	27070
821.307	27207
821.447	27165
821.588	26967
821.728	26769
821.868	26670
822.008	26670
822.149	26484
822.289	26453
822.429	26320
822.569	26081
822.709	26199
822.849	26084
822.99	25993
823.13	26088
823.27	25913
823.41	25784
823.55	25708
823.69	25837
823.83	25921
823.97	25871
824.11	25586
824.25	25700
824.389	25704
824.529	25750
824.669	25689
824.809	25753
824.949	25807
825.089	25791
825.228	25803
825.368	25514
825.508	25479
825.648	25499
825.787	25559
825.927	25594
826.067	25483
826.206	25521
826.346	25472
826.485	25571
826.625	25552
826.765	25658
826.904	25460
827.044	25278
827.183	25365
827.323	25145
827.462	25168
827.601	25187
827.741	25301
827.88	25365
828.02	25057
828.159	25206
828.298	25240
828.437	25331
828.577	25099
828.716	25221
828.855	25156
828.994	24924
829.134	24932
829.273	24992
829.412	24791
829.551	24886
829.69	24913
829.829	25031
829.968	24973
830.107	24890
830.246	25050
830.385	24787
830.524	24798
830.663	24669
830.802	24738
830.941	24566
831.08	24498
831.219	24696
831.357	24623
831.496	24654
831.635	24502
831.774	24593
831.913	24407
832.051	24342
832.19	24380
832.329	24384
832.467	24262
832.606	24038
832.744	24213
832.883	24133
833.022	24186
833.16	24174
833.299	24277
833.437	24136
833.576	24239
833.714	24182
833.852	24315
833.991	24239
834.129	24243
834.267	24334
834.406	24296
834.544	24300
834.682	24296
834.821	24213
834.959	24422
835.097	24300
835.235	24304
835.373	24254
835.511	24235
835.65	24068
835.788	24049
835.926	24114
836.064	23946
836.202	24011
836.34	24076
836.478	24258
836.615	23950
836.753	24152
836.891	23992
837.029	24045
837.167	24018
837.305	23980
837.443	23889
837.58	23973
837.718	24068
837.856	23939
837.993	23851
838.131	23870
838.269	23920
838.406	23832
838.544	23752
838.681	23459
838.819	23657
838.956	23501
839.094	23433
839.231	23558
839.369	23547
839.506	23798
839.643	23600
839.781	23520
839.918	23360
840.055	23482
840.193	23284
840.33	23345
840.467	23345
840.604	23296
840.742	23459
840.879	23178
841.016	23235
841.153	23174
841.29	23433
841.427	23353
841.564	23315
841.701	23341
841.838	23239
841.975	23273
842.112	23258
842.249	23151
842.385	22946
842.522	23261
842.659	23227
842.796	23124
842.933	23006
843.069	23010
843.206	22946
843.343	23200
843.479	23124
843.616	23060
843.752	22915
843.889	22812
844.025	22991
844.162	22896
844.298	22972
844.435	22824
844.571	22816
844.708	22995
844.844	22923
844.98	22896
845.117	22923
845.253	22797
845.389	22679
845.525	22782
845.661	22725
845.798	22504
845.934	22656
846.07	22592
846.206	22664
846.342	22634
846.478	22459
846.614	22409
846.75	22310
846.886	22188
847.022	22303
847.158	22280
847.294	22333
847.429	22348
847.565	22177
847.701	22516
847.837	22025
847.972	22162
848.108	22147
848.244	22143
848.379	21972
848.515	21827
848.65	21739
848.786	21884
848.921	21930
849.057	21953
849.192	21934
849.328	21835
849.463	21736
849.598	21819
849.734	21739
849.869	21648
850.004	21644
850.14	21774
850.275	21671
850.41	21610
850.545	21648
850.68	21576
850.815	21663
850.95	21633
851.085	21876
851.22	21846
851.355	21625
851.49	21637
851.625	21606
851.76	21633
851.895	21671
852.03	21682
852.165	21652
852.299	21622
852.434	21732
852.569	21614
852.703	21698
852.838	21572
852.973	21835
853.107	21808
853.242	21637
853.376	21511
853.511	21351
853.645	21454
853.78	21519
853.914	21507
854.048	21428
854.183	21393
854.317	21496
854.451	21656
854.585	21477
854.72	21500
854.854	21466
854.988	21386
855.122	21530
855.256	21374
855.39	21401
855.524	21606
855.658	21492
855.792	21618
855.926	21408
856.06	21629
856.194	21591
856.327	21515
856.461	21302
856.595	21450
856.729	21412
856.862	21622
856.996	21469
857.13	21507
857.263	21447
857.397	21545
857.53	21431
857.664	21500
857.797	21492
857.931	21557
858.064	21530
858.197	21526
858.331	21523
858.464	21412
858.597	21389
858.731	21469
858.864	21485
858.997	21447
859.13	21538
859.263	21450
859.396	21641
859.529	21530
859.662	21435
859.795	21367
859.928	21473
860.061	21732
860.194	21622
860.327	21538
860.46	21431
860.592	21671
860.725	21625
860.858	21656
860.99	21507
861.123	21572
861.256	21485
861.388	21519
861.521	22158
861.653	21275
861.786	21252
861.918	21298
862.05	21367
862.183	21310
862.315	21317
862.447	21557
862.58	21363
862.712	21195
862.844	21226
862.976	21055
863.108	21302
863.24	21660
863.372	21096
863.504	21272
863.636	21264
863.768	21211
863.9	21089
864.032	21184
864.164	21096
864.296	21207
864.428	21268
864.559	21154
864.691	21222
864.823	21192
864.954	21169
865.086	21108
865.217	21131
865.349	20982
865.48	21077
865.612	21176
865.743	21325
865.875	21051
866.006	21047
866.137	21096
866.269	21074
866.4	21142
866.531	21104
866.662	21001
866.793	21043
866.924	21085
867.055	21020
867.186	21058
867.317	20929
867.448	20887
867.579	20941
867.71	20963
867.841	20933
867.972	21074
868.103	21001
868.233	21051
868.364	20994
868.495	21089
868.625	21252
868.756	21329
868.886	21188
869.017	21165
869.147	21329
869.278	21233
869.408	21310
869.539	21294
869.669	21298
869.799	21302
869.929	21477
870.06	21340
870.19	21530
870.32	21534
870.45	21583
870.58	21648
870.71	21774
870.84	21755
870.97	21610
871.1	21732
871.23	21781
871.36	21755
871.489	21797
871.619	21789
871.749	21759
871.879	21861
872.008	21926
872.138	21888
872.267	21861
872.397	21747
872.526	21789
872.656	21622
872.785	21850
872.915	21956
873.044	21987
873.173	21804
873.303	21983
873.432	21842
873.561	21994
873.69	21884
873.819	21892
873.948	21934
874.077	21831
874.206	21846
874.335	21937
874.464	21987
874.593	22063
874.722	22109
874.851	22036
874.979	22162
875.108	22219
875.237	22017
875.365	21937
875.494	22101
875.623	22219
875.751	22078
875.88	22124
876.008	22325
876.136	22257
876.265	22485
876.393	22455
876.521	22500
876.65	22630
876.778	22436
876.906	22417
877.034	22440
877.162	22493
877.29	22413
877.418	22451
877.546	22459
877.674	22413
877.802	22424
877.93	22497
878.058	22318
878.185	22322
878.313	22443
878.441	22504
878.568	22390
878.696	22322
878.824	22432
878.951	22577
879.079	22516
879.206	22771
879.333	22645
879.461	22603
879.588	22557
879.715	22626
879.842	22759
879.97	22516
880.097	22268
880.224	22363
880.351	22276
880.478	22284
880.605	22234
880.732	22310
880.859	22588
880.986	22124
881.112	22337
881.239	22166
881.366	22078
881.493	21816
881.619	21838
881.746	21911
881.872	21831
881.999	21865
882.125	21979
882.252	21930
882.378	21884
882.505	21918
882.631	21747
882.757	21534
882.883	21698
883.01	21572
883.136	21469
883.262	21378
883.388	21279
883.514	21542
883.64	21534
883.766	21534
883.892	21298
884.018	21374
884.143	21336
884.269	21496
884.395	21329
884.52	21138
884.646	21207
884.772	21085
884.897	21116
885.023	21127
885.148	21230
885.274	21325
885.399	21230
885.524	21173
885.65	21241
885.775	21100
885.9	21146
886.025	21287
886.15	21237
886.275	21017
886.4	21062
886.525	21081
886.65	20994
886.775	21089
886.9	21135
887.025	21340
887.149	21096
887.274	20933
887.399	20861
887.523	20857
887.648	20815
887.773	20762
887.897	20952
888.021	20929
888.146	20819
888.27	21005
888.395	21066
888.519	20906
888.643	20971
888.767	20914
888.891	20906
889.015	20697
889.139	20716
889.263	20651
889.387	20925
889.511	21032
889.635	20842
889.759	20609
889.883	20705
890.006	20674
890.13	20826
890.254	20651
890.377	20689
890.501	20408
890.624	20427
890.748	20495
890.871	20423
890.995	20271
891.118	20180
891.241	20320
891.364	20317
891.488	20434
891.611	20267
891.734	20305
891.857	20362
891.98	20248
892.103	20393
892.226	20218
892.349	20191
892.471	20218
892.594	20366
892.717	20408
892.839	20164
892.962	20229
893.085	20461
893.207	20180
893.33	20157
893.452	20115
893.575	20286
893.697	20176
893.819	20381
893.941	20450
894.064	20324
894.186	20161
894.308	20111
894.43	20328
894.552	20389
894.674	20320
894.796	20126
894.918	20180
895.04	20134
895.161	20339
895.283	20210
895.405	20115
895.526	20332
895.648	20161
895.769	20282
895.891	20309
896.012	20328
896.134	20248
896.255	20271
896.376	20294
896.498	20332
896.619	20263
896.74	20202
896.861	20290
896.982	20636
897.103	20651
897.224	20526
897.345	20469
897.466	20454
897.587	20446
897.708	20583
897.828	20526
897.949	20442
898.07	20366
898.19	20366
898.311	20549
898.431	20488
898.552	20495
898.672	20533
898.792	20488
898.913	20469
899.033	20301
899.153	20324
899.273	20225
899.393	20324
899.513	20271
899.633	20263
899.753	20191
899.873	20164
899.993	20210
900.113	20191
900.232	20172
900.352	20031
900.472	20111
900.591	19917
900.711	20024
900.83	19963
900.95	20058
901.069	20088
901.189	19951
901.308	19613
901.427	19578
901.546	19597
901.665	19624
901.784	19655
901.904	19346
902.023	19293
902.141	19213
902.26	19103
902.379	19171
902.498	19168
902.617	19042
902.735	19110
902.854	19008
902.973	18985
903.091	18825
903.21	18673
903.328	18867
903.446	18654
903.565	18597
903.683	18566
903.801	18376
903.919	18525
904.038	18483
904.156	18277
904.274	18391
904.392	18258
904.51	18159
904.627	18346
904.745	18357
904.863	18296
904.981	18144
905.098	18072
905.216	17916
905.334	17980
905.451	17969
905.569	18034
905.686	18019
905.803	17999
905.921	17760
906.038	17878
906.155	17942
906.272	17691
906.389	17646
906.506	17585
906.623	17436
906.74	17478
906.857	17509
906.974	17512
907.091	17501
907.208	17589
907.324	17459
907.441	17493
907.557	17356
907.674	17288
907.79	17140
907.907	17292
908.023	17200
908.139	17208
908.256	17258
908.372	17064
908.488	17132
908.604	16976
908.72	16942
908.836	16957
908.952	16949
909.068	16972
909.184	17025
909.3	17010
909.415	16938
909.531	16965
909.647	16637
909.762	16580
909.878	16698
909.993	16771
910.108	16599
910.224	16592
910.339	16561
910.454	16577
910.57	16443
910.685	16405
910.8	16691
910.915	16523
911.03	16360
911.145	16299
911.259	16226
911.374	16219
911.489	16211
911.604	16105
911.718	16006
911.833	15956
911.947	15979
912.062	15903
912.176	16021
912.291	15975
912.405	15975
912.519	16124
912.633	16257
912.748	16010
912.862	15926
912.976	15846
913.09	15701
913.204	15732
913.318	15880
913.431	15915
913.545	15861
913.659	15816
913.772	15785
913.886	15633
914	15614
914.113	15553
914.226	15736
914.34	15599
914.453	15557
914.566	15686
914.68	15549
914.793	15447
914.906	15332
915.019	15207
915.132	15176
915.245	15199
915.358	15275
915.47	15214
915.583	15176
915.696	15291
915.809	15408
915.921	15359
916.034	15199
916.146	15131
916.259	15070
916.371	15222
916.483	15161
916.595	15043
916.708	15058
916.82	15058
916.932	15112
917.044	15066
917.156	14929
917.268	14941
917.38	14853
917.491	14853
917.603	14819
917.715	14921
917.826	15009
917.938	14807
918.049	14655
918.161	14899
918.272	14994
918.384	14967
918.495	14804
918.606	14625
918.717	14545
918.828	14590
918.939	14689
919.05	14541
919.161	14636
919.272	14473
919.383	14427
919.494	14655
919.604	14838
919.715	14610
919.826	14457
919.936	14587
920.047	14689
920.157	14571
920.267	14754
920.378	14568
920.488	14514
920.598	14655
920.708	14796
920.818	14693
920.928	14701
921.038	14823
921.148	14826
921.258	14670
921.368	14381
921.477	14351
921.587	14332
921.697	14191
921.806	14305
921.916	14221
922.025	14054
922.134	13997
922.244	13925
922.353	14039
922.462	13822
922.571	13769
922.68	13670
922.789	13689
922.898	13632
923.007	13529
923.116	13601
923.224	13571
923.333	13487
923.442	13407
923.55	13487
923.659	13464
923.767	13491
923.876	13381
923.984	13468
924.092	13415
924.201	13354
924.309	13381
924.417	13312
924.525	13213
924.633	13255
924.741	14282
924.849	13118
924.956	13171
925.064	13099
925.172	13042
925.279	13012
925.387	13057
925.494	13008
925.602	13145
925.709	13031
925.816	12894
925.924	12928
926.031	13069
926.138	12954
926.245	13129
926.352	12954
926.459	12996
926.566	13046
926.673	12833
926.779	12753
926.886	12779
926.993	12566
927.099	12601
927.206	12574
927.312	12525
927.419	12646
927.525	12623
927.631	12544
927.737	12502
927.843	12471
927.95	12395
928.056	12300
928.162	12391
928.267	12353
928.373	13080
928.479	12521
928.585	12190
928.69	12346
928.796	12361
928.901	12266
929.007	12163
929.112	12220
929.218	12262
929.323	12175
929.428	12114
929.533	12350
929.638	11996
929.743	12087
929.848	12110
929.953	12068
930.058	12015
930.163	11828
930.267	11847
930.372	11992
930.477	11809
930.581	12136
930.685	11885
930.79	11729
930.894	11733
930.998	11710
931.103	11817
931.207	11505
931.311	11436
931.415	11303
931.519	11029
931.623	11060
