Data from test_V78500241_690.txt Node
Date: Fri Mar 25 15:46:34 CST 2022
User: usil
Spectrometer: V785-0024
Trigger mode: 0
Integration Time (sec): 4.000000E-1
Scans to average: 1
Nonlinearity correction enabled: false
Boxcar width: 0
Storing dark spectrum: false
XAxis mode: Wavelengths
Number of Pixels in Spectrum: 1024
>>>>>Begin Spectral Data<<<<<
801.071	27648
801.214	27443
801.356	27100
801.499	27165
801.641	27055
801.783	27066
801.926	27009
802.068	27096
802.211	26883
802.353	26899
802.496	26678
802.638	26663
802.78	26731
802.923	26644
803.065	26625
803.208	26667
803.35	26518
803.492	26739
803.635	26785
803.777	26773
803.919	26914
804.061	26971
804.204	26864
804.346	26636
804.488	26724
804.63	26872
804.773	26765
804.915	26765
805.057	26979
805.199	26838
805.341	26990
805.483	27009
805.626	26830
805.768	26796
805.91	26807
806.052	26880
806.194	26857
806.336	27024
806.478	26895
806.62	26971
806.762	27169
806.904	27169
807.046	27458
807.188	27340
807.33	27321
807.472	27397
807.614	27252
807.756	27367
807.898	27150
808.04	27226
808.182	27211
808.324	27329
808.465	27287
808.607	27450
808.749	27447
808.891	27728
809.033	27686
809.174	27641
809.316	27568
809.458	27736
809.6	27473
809.741	27709
809.883	27736
810.025	27762
810.166	27812
810.308	27876
810.45	27854
810.591	27701
810.733	27568
810.875	27469
811.016	27492
811.158	27519
811.299	27675
811.441	27755
811.582	27633
811.724	27660
811.865	27389
812.007	27629
812.148	27515
812.29	27705
812.431	27705
812.573	27850
812.714	27922
812.855	28025
812.997	28234
813.138	28284
813.279	28261
813.421	28032
813.562	27911
813.703	27888
813.845	27869
813.986	27382
814.127	27386
814.268	27275
814.41	27211
814.551	27317
814.692	27450
814.833	27230
814.974	27294
815.115	27359
815.256	27123
815.397	26956
815.539	27077
815.68	26940
815.821	26876
815.962	26918
816.103	27085
816.244	26876
816.385	26724
816.526	26899
816.666	26613
816.807	26476
816.948	26701
817.089	26689
817.23	26590
817.371	26484
817.512	26389
817.653	26473
817.793	26537
817.934	26507
818.075	26571
818.216	26450
818.356	26484
818.497	26442
818.638	26206
818.778	26225
818.919	26282
819.06	26393
819.2	26351
819.341	26408
819.481	26450
819.622	26632
819.762	26727
819.903	26644
820.043	26667
820.184	26606
820.324	26507
820.465	26682
820.605	26613
820.746	26594
820.886	26530
821.026	26492
821.167	26476
821.307	26705
821.447	26530
821.588	26522
821.728	26389
821.868	26183
822.008	25955
822.149	25963
822.289	25970
822.429	25696
822.569	25601
822.709	25662
822.849	25529
822.99	25476
823.13	25559
823.27	25407
823.41	25384
823.55	25259
823.69	25449
823.83	25316
823.97	25107
824.11	25126
824.25	25091
824.389	25164
824.529	25274
824.669	25225
824.809	25240
824.949	25274
825.089	25095
825.228	25240
825.368	25027
825.508	25053
825.648	25160
825.787	25072
825.927	25183
826.067	24989
826.206	25050
826.346	25065
826.485	25175
826.625	24977
826.765	25187
826.904	24981
827.044	24764
827.183	24719
827.323	24654
827.462	24642
827.601	24646
827.741	24627
827.88	24658
828.02	24559
828.159	24589
828.298	24658
828.437	24745
828.577	24681
828.716	24791
828.855	24642
828.994	24414
829.134	24361
829.273	24353
829.412	24505
829.551	24422
829.69	24369
829.829	24437
829.968	24426
830.107	24498
830.246	24407
830.385	24334
830.524	24369
830.663	24197
830.802	24095
830.941	23916
831.08	23958
831.219	24079
831.357	24079
831.496	24216
831.635	24083
831.774	23973
831.913	23764
832.051	23885
832.19	23794
832.329	23764
832.467	23551
832.606	23665
832.744	23623
832.883	23619
833.022	23638
833.16	23847
833.299	23691
833.437	23729
833.576	23771
833.714	23786
833.852	23794
833.991	23733
834.129	23722
834.267	23813
834.406	23668
834.544	23821
834.682	23783
834.821	23714
834.959	23904
835.097	23661
835.235	23722
835.373	23847
835.511	23733
835.65	23505
835.788	23543
835.926	23535
836.064	23356
836.202	23376
836.34	23471
836.478	23680
836.615	23573
836.753	23573
836.891	23566
837.029	23653
837.167	23482
837.305	23573
837.443	23398
837.58	23478
837.718	23398
837.856	23406
837.993	23235
838.131	23433
838.269	23254
838.406	23326
838.544	23174
838.681	23090
838.819	22999
838.956	22911
839.094	22854
839.231	22934
839.369	22999
839.506	23296
839.643	23121
839.781	22831
839.918	22900
840.055	22923
840.193	22885
840.33	22752
840.467	22771
840.604	22831
840.742	23166
840.879	22763
841.016	22626
841.153	22812
841.29	22892
841.427	22774
841.564	22866
841.701	22736
841.838	22729
841.975	22702
842.112	22645
842.249	22672
842.385	22542
842.522	22748
842.659	22645
842.796	22436
842.933	22451
843.069	22546
843.206	22588
843.343	22634
843.479	22424
843.616	22645
843.752	22261
843.889	22371
844.025	22466
844.162	22246
844.298	22344
844.435	22356
844.571	22295
844.708	22428
844.844	22440
844.98	22462
845.117	22466
845.253	22253
845.389	22215
845.525	22196
845.661	22253
845.798	22097
845.934	22169
846.07	22025
846.206	22067
846.342	22192
846.478	22074
846.614	21899
846.75	21785
846.886	21831
847.022	21842
847.158	21728
847.294	21785
847.429	21876
847.565	21770
847.701	22093
847.837	21572
847.972	21443
848.108	21652
848.244	21561
848.379	21428
848.515	21332
848.65	21325
848.786	21412
848.921	21313
849.057	21591
849.192	21462
849.328	21462
849.463	21447
849.598	21428
849.734	21173
849.869	21321
850.004	21150
850.14	21176
850.275	21165
850.41	21062
850.545	21146
850.68	21275
850.815	21233
850.95	21142
851.085	21260
851.22	21321
851.355	21142
851.49	21127
851.625	21116
851.76	21173
851.895	21081
852.03	21100
852.165	21150
852.299	21089
852.434	21138
852.569	21226
852.703	21142
852.838	21256
852.973	21340
853.107	21325
853.242	21192
853.376	21009
853.511	20853
853.645	20925
853.78	21096
853.914	21005
854.048	21024
854.183	20910
854.317	21036
854.451	21211
854.585	20982
854.72	21020
854.854	20986
854.988	20933
855.122	20971
855.256	20868
855.39	20906
855.524	20872
855.658	20963
855.792	20906
855.926	21066
856.06	21047
856.194	20941
856.327	20937
856.461	20967
856.595	21001
856.729	20910
856.862	21127
856.996	21180
857.13	21051
857.263	21089
857.397	21081
857.53	20929
857.664	21047
857.797	21055
857.931	21051
858.064	21036
858.197	21112
858.331	20948
858.464	20921
858.597	20902
858.731	21070
858.864	20880
858.997	20864
859.13	21074
859.263	20986
859.396	21047
859.529	20975
859.662	20891
859.795	20834
859.928	20899
860.061	21135
860.194	21127
860.327	21119
860.46	21043
860.592	21169
860.725	21127
860.858	21074
860.99	21036
861.123	20914
861.256	20872
861.388	20986
861.521	21663
861.653	20788
861.786	20788
861.918	20811
862.05	20830
862.183	20883
862.315	20902
862.447	20914
862.58	20849
862.712	20651
862.844	20625
862.976	20872
863.108	20804
863.24	20975
863.372	20583
863.504	20727
863.636	20629
863.768	20659
863.9	20667
864.032	20689
864.164	20724
864.296	20693
864.428	20834
864.559	20674
864.691	20811
864.823	20636
864.954	20765
865.086	20773
865.217	20454
865.349	20545
865.48	20621
865.612	20746
865.743	20708
865.875	20503
866.006	20568
866.137	20613
866.269	20682
866.4	20579
866.531	20511
866.662	20583
866.793	20552
866.924	20541
867.055	20659
867.186	20678
867.317	20621
867.448	20503
867.579	20541
867.71	20412
867.841	20469
867.972	20560
868.103	20556
868.233	20564
868.364	20480
868.495	20629
868.625	20693
868.756	20918
868.886	20674
869.017	20880
869.147	20895
869.278	20880
869.408	20777
869.539	20644
869.669	20944
869.799	20868
869.929	20906
870.06	20823
870.19	21131
870.32	21001
870.45	21214
870.58	21218
870.71	21275
870.84	21329
870.97	21131
871.1	21226
871.23	21344
871.36	21310
871.489	21317
871.619	21405
871.749	21294
871.879	21469
872.008	21401
872.138	21428
872.267	21412
872.397	21260
872.526	21230
872.656	21188
872.785	21203
872.915	21245
873.044	21469
873.173	21428
873.303	21408
873.432	21545
873.561	21405
873.69	21424
873.819	21488
873.948	21416
874.077	21488
874.206	21439
874.335	21378
874.464	21523
874.593	21656
874.722	21622
874.851	21622
874.979	21720
875.108	21762
875.237	21656
875.365	21511
875.494	21530
875.623	21793
875.751	21500
875.88	21705
876.008	21698
876.136	21842
876.265	22051
876.393	22116
876.521	22207
876.65	22090
876.778	21960
876.906	22086
877.034	21964
877.162	22078
877.29	21964
877.418	21998
877.546	22051
877.674	21888
877.802	21895
877.93	21979
878.058	21945
878.185	21808
878.313	21945
878.441	21960
878.568	21892
878.696	21994
878.824	21934
878.951	22074
879.079	22230
879.206	22390
879.333	22135
879.461	22017
879.588	22147
879.715	22253
879.842	22314
879.97	22120
880.097	21812
880.224	21717
880.351	21823
880.478	21762
880.605	21793
880.732	21869
880.859	21987
880.986	21751
881.112	21778
881.239	21694
881.366	21511
881.493	21469
881.619	21401
881.746	21386
881.872	21439
881.999	21329
882.125	21279
882.252	21439
882.378	21306
882.505	21549
882.631	21192
882.757	21173
882.883	21237
883.01	21104
883.136	21131
883.262	20998
883.388	20937
883.514	21131
883.64	21211
883.766	21024
883.892	20941
884.018	21001
884.143	21070
884.269	21127
884.395	20902
884.52	20674
884.646	20864
884.772	20682
884.897	20697
885.023	20902
885.148	21005
885.274	20944
885.399	20735
885.524	20697
885.65	20796
885.775	20758
885.9	20705
886.025	20925
886.15	20876
886.275	20743
886.4	20686
886.525	20830
886.65	20617
886.775	20689
886.9	20914
887.025	21020
887.149	20739
887.274	20587
887.399	20663
887.523	20609
887.648	20609
887.773	20408
887.897	20659
888.021	20537
888.146	20537
888.27	20606
888.395	20629
888.519	20480
888.643	20632
888.767	20609
888.891	20427
889.015	20427
889.139	20286
889.263	20298
889.387	20347
889.511	20488
889.635	20514
889.759	20362
889.883	20282
890.006	20404
890.13	20343
890.254	20271
890.377	20267
890.501	20130
890.624	20126
890.748	20221
890.871	19902
890.995	19925
891.118	19830
891.241	19932
891.364	20046
891.488	19925
891.611	19917
891.734	19852
891.857	20024
891.98	19925
892.103	19845
892.226	19928
892.349	19852
892.471	19689
892.594	19986
892.717	19868
892.839	19909
892.962	19841
893.085	19936
893.207	19860
893.33	19723
893.452	19715
893.575	19841
893.697	19685
893.819	20024
893.941	19970
894.064	20054
894.186	19780
894.308	19738
894.43	19868
894.552	19856
894.674	19944
894.796	19734
894.918	19795
895.04	19780
895.161	19887
895.283	19875
895.405	19814
895.526	19860
895.648	19894
895.769	19925
895.891	19830
896.012	19963
896.134	19837
896.255	19951
896.376	19750
896.498	19894
896.619	19826
896.74	19837
896.861	20012
896.982	20100
897.103	20267
897.224	20043
897.345	20107
897.466	20054
897.587	20081
897.708	20180
897.828	19993
897.949	20065
898.07	19925
898.19	19989
898.311	20138
898.431	20001
898.552	20050
898.672	20180
898.792	20088
898.913	20130
899.033	19963
899.153	19845
899.273	19750
899.393	19879
899.513	19795
899.633	19803
899.753	19757
899.873	19822
899.993	19856
900.113	19753
900.232	19761
900.352	19696
900.472	19632
900.591	19624
900.711	19670
900.83	19563
900.95	19666
901.069	19769
901.189	19552
901.308	19232
901.427	19194
901.546	19202
901.665	19171
901.784	19187
901.904	19118
902.023	19008
902.141	18817
902.26	18764
902.379	18829
902.498	18650
902.617	18593
902.735	18734
902.854	18760
902.973	18623
903.091	18426
903.21	18403
903.328	18346
903.446	18323
903.565	18277
903.683	18239
903.801	18083
903.919	18140
904.038	18102
904.156	17996
904.274	18060
904.392	17973
904.51	17984
904.627	17939
904.745	17950
904.863	17882
904.981	17783
905.098	17630
905.216	17665
905.334	17623
905.451	17718
905.569	17528
905.686	17737
905.803	17592
905.921	17482
906.038	17406
906.155	17448
906.272	17345
906.389	17402
906.506	17200
906.623	17296
906.74	17200
906.857	17117
906.974	17041
907.091	17181
907.208	17303
907.324	17067
907.441	17151
907.557	16934
907.674	16953
907.79	16824
907.907	16892
908.023	16885
908.139	16820
908.256	16828
908.372	16774
908.488	16740
908.604	16592
908.72	16512
908.836	16580
908.952	16596
909.068	16538
909.184	16694
909.3	16584
909.415	16683
909.531	16603
909.647	16421
909.762	16360
909.878	16268
909.993	16363
910.108	16211
910.224	16310
910.339	16230
910.454	16196
910.57	16188
910.685	16078
910.8	16344
910.915	16306
911.03	16109
911.145	16010
911.259	15926
911.374	15972
911.489	15789
911.604	15819
911.718	15717
911.833	15675
911.947	15595
912.062	15500
912.176	15732
912.291	15720
912.405	15629
912.519	15880
912.633	15835
912.748	15629
912.862	15591
912.976	15511
913.09	15233
913.204	15374
913.318	15492
913.431	15580
913.545	15507
913.659	15584
913.772	15462
913.886	15306
914	15252
914.113	15374
914.226	15428
914.34	15332
914.453	15161
914.566	15340
914.68	15211
914.793	15154
914.906	14960
915.019	14872
915.132	14746
915.245	14902
915.358	14986
915.47	14952
915.583	14925
915.696	14880
915.809	14967
915.921	15051
916.034	14823
916.146	14811
916.259	14785
916.371	14868
916.483	14823
916.595	14739
916.708	14693
916.82	14758
916.932	14754
917.044	14705
917.156	14678
917.268	14674
917.38	14537
917.491	14488
917.603	14533
917.715	14670
917.826	14663
917.938	14499
918.049	14431
918.161	14526
918.272	14663
918.384	14568
918.495	14461
918.606	14317
918.717	14294
918.828	14347
918.939	14389
919.05	14221
919.161	14351
919.272	14161
919.383	14237
919.494	14282
919.604	14541
919.715	14358
919.826	14199
919.936	14229
920.047	14351
920.157	14237
920.267	14431
920.378	14362
920.488	14237
920.598	14518
920.708	14617
920.818	14473
920.928	14400
921.038	14720
921.148	14587
921.258	14225
921.368	14138
921.477	14008
921.587	14001
921.697	13890
921.806	14039
921.916	13970
922.025	13776
922.134	13734
922.244	13620
922.353	13712
922.462	13563
922.571	13480
922.68	13373
922.789	13320
922.898	13350
923.007	13251
923.116	13354
923.224	13270
923.333	13392
923.442	13202
923.55	13133
923.659	13103
923.767	13187
923.876	13084
923.984	13259
924.092	13053
924.201	13118
924.309	13023
924.417	13050
924.525	13038
924.633	12970
924.741	14008
924.849	12795
924.956	12970
925.064	12760
925.172	12677
925.279	12658
925.387	12768
925.494	12817
925.602	12890
925.709	12837
925.816	12623
925.924	12749
926.031	12738
926.138	12646
926.245	12688
926.352	12589
926.459	12692
926.566	12795
926.673	12582
926.779	12513
926.886	12498
926.993	12433
927.099	12422
927.206	12365
927.312	12429
927.419	12311
927.525	12388
927.631	12334
927.737	12323
927.843	12186
927.95	12098
928.056	12148
928.162	12163
928.267	12144
928.373	12753
928.479	12270
928.585	11977
928.69	12053
928.796	12125
928.901	12068
929.007	11901
929.112	12057
929.218	12030
929.323	11893
929.428	11897
929.533	12041
929.638	11821
929.743	11817
929.848	11821
929.953	11775
930.058	11783
930.163	11642
930.267	11558
930.372	11661
930.477	11528
930.581	11802
930.685	11680
930.79	11478
930.894	11551
930.998	11493
931.103	11642
931.207	11250
931.311	11143
931.415	11075
931.519	10778
931.623	10885
