Data from test_V78500241_3512.txt Node
Date: Fri Mar 25 16:06:07 CST 2022
User: usil
Spectrometer: V785-0024
Trigger mode: 0
Integration Time (sec): 4.000000E-1
Scans to average: 1
Nonlinearity correction enabled: false
Boxcar width: 0
Storing dark spectrum: false
XAxis mode: Wavelengths
Number of Pixels in Spectrum: 1024
>>>>>Begin Spectral Data<<<<<
801.071	28896
801.214	28725
801.356	28634
801.499	28580
801.641	28493
801.783	28318
801.926	28523
802.068	28516
802.211	28424
802.353	28401
802.496	28322
802.638	28139
802.78	28169
802.923	28010
803.065	27987
803.208	28006
803.35	28177
803.492	28333
803.635	28360
803.777	28329
803.919	28462
804.061	28774
804.204	28432
804.346	28375
804.488	28223
804.63	28462
804.773	28379
804.915	28538
805.057	28493
805.199	28459
805.341	28554
805.483	28363
805.626	28656
805.768	28409
805.91	28478
806.052	28630
806.194	28523
806.336	28713
806.478	28580
806.62	28516
806.762	28717
806.904	28919
807.046	29067
807.188	28995
807.33	28938
807.472	29044
807.614	28923
807.756	28946
807.898	28923
808.04	28809
808.182	28812
808.324	28881
808.465	28885
808.607	29140
808.749	29258
808.891	29307
809.033	29509
809.174	29307
809.316	29189
809.458	29254
809.6	29292
809.741	29299
809.883	29414
810.025	29505
810.166	29543
810.308	29459
810.45	29501
810.591	29493
810.733	29395
810.875	29227
811.016	29261
811.158	29254
811.299	29372
811.441	29429
811.582	29467
811.724	29334
811.865	29288
812.007	29162
812.148	29242
812.29	29307
812.431	29570
812.573	29748
812.714	29707
812.855	29794
812.997	29707
813.138	29908
813.279	29916
813.421	29802
813.562	29798
813.703	29554
813.845	29539
813.986	29231
814.127	29086
814.268	29003
814.41	28946
814.551	29018
814.692	29037
814.833	29060
814.974	28767
815.115	29010
815.256	28946
815.397	28934
815.539	28892
815.68	28862
815.821	28748
815.962	28774
816.103	28710
816.244	28660
816.385	28504
816.526	28706
816.666	28303
816.807	28196
816.948	28291
817.089	28390
817.23	28299
817.371	28287
817.512	28249
817.653	28226
817.793	28257
817.934	28295
818.075	28276
818.216	28188
818.356	28352
818.497	28139
818.638	28002
818.778	28109
818.919	28086
819.06	28059
819.2	28226
819.341	28371
819.481	28226
819.622	28443
819.762	28653
819.903	28569
820.043	28573
820.184	28466
820.324	28523
820.465	28489
820.605	28322
820.746	28341
820.886	28238
821.026	28280
821.167	28443
821.307	28447
821.447	28318
821.588	28200
821.728	28112
821.868	27987
822.008	27876
822.149	27713
822.289	27812
822.429	27519
822.569	27401
822.709	27564
822.849	27249
822.99	27230
823.13	27294
823.27	27340
823.41	27222
823.55	26921
823.69	27146
823.83	27173
823.97	26986
824.11	26887
824.25	26868
824.389	27047
824.529	26979
824.669	26960
824.809	26971
824.949	27127
825.089	27081
825.228	27062
825.368	26765
825.508	26705
825.648	26834
825.787	26925
825.927	26876
826.067	26796
826.206	26895
826.346	26944
826.485	26925
826.625	26887
826.765	26998
826.904	26864
827.044	26606
827.183	26621
827.323	26457
827.462	26552
827.601	26564
827.741	26503
827.88	26640
828.02	26507
828.159	26560
828.298	26530
828.437	26640
828.577	26522
828.716	26651
828.855	26446
828.994	26339
829.134	26259
829.273	26305
829.412	26138
829.551	26210
829.69	26195
829.829	26180
829.968	26290
830.107	26328
830.246	26256
830.385	26206
830.524	26199
830.663	26077
830.802	25917
830.941	25879
831.08	25864
831.219	25875
831.357	25913
831.496	26012
831.635	25799
831.774	25814
831.913	25841
832.051	25708
832.19	25601
832.329	25628
832.467	25453
832.606	25377
832.744	25502
832.883	25575
833.022	25491
833.16	25556
833.299	25525
833.437	25677
833.576	25525
833.714	25613
833.852	25674
833.991	25601
834.129	25708
834.267	25651
834.406	25514
834.544	25537
834.682	25540
834.821	25445
834.959	25746
835.097	25620
835.235	25537
835.373	25514
835.511	25540
835.65	25381
835.788	25343
835.926	25331
836.064	25297
836.202	25244
836.34	25339
836.478	25457
836.615	25403
836.753	25460
836.891	25514
837.029	25362
837.167	25457
837.305	25381
837.443	25278
837.58	25190
837.718	25228
837.856	25392
837.993	25198
838.131	25278
838.269	25065
838.406	25137
838.544	25031
838.681	24901
838.819	24772
838.956	24658
839.094	24612
839.231	24654
839.369	24817
839.506	25046
839.643	24852
839.781	24726
839.918	24547
840.055	24597
840.193	24536
840.33	24578
840.467	24559
840.604	24631
840.742	24783
840.879	24350
841.016	24547
841.153	24498
841.29	24646
841.427	24528
841.564	24627
841.701	24559
841.838	24521
841.975	24551
842.112	24429
842.249	24414
842.385	24304
842.522	24639
842.659	24357
842.796	24414
842.933	24247
843.069	24361
843.206	24281
843.343	24437
843.479	24471
843.616	24384
843.752	24133
843.889	24243
844.025	24125
844.162	24045
844.298	24235
844.435	24148
844.571	24083
844.708	24235
844.844	24311
844.98	24342
845.117	24140
845.253	24129
845.389	23942
845.525	23980
845.661	23969
845.798	23901
845.934	23931
846.07	23950
846.206	23882
846.342	24018
846.478	23832
846.614	23691
846.75	23452
846.886	23627
847.022	23703
847.158	23596
847.294	23493
847.429	23615
847.565	23585
847.701	23836
847.837	23364
847.972	23227
848.108	23364
848.244	23311
848.379	23212
848.515	23075
848.65	23121
848.786	23170
848.921	23151
849.057	23216
849.192	23223
849.328	23151
849.463	23181
849.598	23121
849.734	22991
849.869	23098
850.004	22858
850.14	22885
850.275	22923
850.41	22736
850.545	22759
850.68	22961
850.815	23025
850.95	22961
851.085	22957
851.22	22972
851.355	22877
851.49	22896
851.625	22881
851.76	22831
851.895	22892
852.03	22900
852.165	22820
852.299	23006
852.434	22904
852.569	22911
852.703	22957
852.838	22968
852.973	22896
853.107	22991
853.242	22748
853.376	22801
853.511	22649
853.645	22759
853.78	22831
853.914	22733
854.048	22691
854.183	22736
854.317	22835
854.451	22961
854.585	22759
854.72	22717
854.854	22847
854.988	22694
855.122	22843
855.256	22603
855.39	22854
855.524	22915
855.658	22877
855.792	22809
855.926	22763
856.06	22702
856.194	22748
856.327	22805
856.461	22702
856.595	22713
856.729	22691
856.862	22839
856.996	22755
857.13	22778
857.263	22908
857.397	22869
857.53	22656
857.664	22748
857.797	22915
857.931	22797
858.064	22824
858.197	22755
858.331	22862
858.464	22736
858.597	22634
858.731	22755
858.864	22729
858.997	22729
859.13	22645
859.263	22771
859.396	22744
859.529	22637
859.662	22573
859.795	22637
859.928	22752
860.061	22767
860.194	22896
860.327	22759
860.46	22675
860.592	22790
860.725	22911
860.858	22885
860.99	22824
861.123	22675
861.256	22656
861.388	22725
861.521	23318
861.653	22641
861.786	22523
861.918	22459
862.05	22675
862.183	22653
862.315	22710
862.447	22797
862.58	22694
862.712	22500
862.844	22481
862.976	22485
863.108	22554
863.24	22778
863.372	22394
863.504	22443
863.636	22363
863.768	22531
863.9	22443
864.032	22428
864.164	22413
864.296	22485
864.428	22565
864.559	22622
864.691	22436
864.823	22306
864.954	22402
865.086	22299
865.217	22367
865.349	22280
865.48	22226
865.612	22253
865.743	22382
865.875	22249
866.006	22249
866.137	22314
866.269	22280
866.4	22306
866.531	22242
866.662	22150
866.793	22234
866.924	22242
867.055	22272
867.186	22276
867.317	22249
867.448	22139
867.579	22314
867.71	22211
867.841	22128
867.972	22177
868.103	22219
868.233	22230
868.364	22169
868.495	22318
868.625	22462
868.756	22523
868.886	22459
869.017	22519
869.147	22546
869.278	22592
869.408	22451
869.539	22497
869.669	22588
869.799	22504
869.929	22557
870.06	22573
870.19	22885
870.32	22736
870.45	22881
870.58	22831
870.71	22908
870.84	23010
870.97	22824
871.1	22850
871.23	23029
871.36	23193
871.489	23041
871.619	23041
871.749	23006
871.879	23128
872.008	23140
872.138	23151
872.267	23086
872.397	22984
872.526	22927
872.656	22953
872.785	22873
872.915	23109
873.044	23113
873.173	23067
873.303	23048
873.432	23071
873.561	23216
873.69	23208
873.819	23003
873.948	23212
874.077	23166
874.206	23029
874.335	23102
874.464	23140
874.593	23311
874.722	23227
874.851	23170
874.979	23417
875.108	23421
875.237	23235
875.365	23235
875.494	23299
875.623	23322
875.751	23246
875.88	23296
876.008	23497
876.136	23501
876.265	23729
876.393	23767
876.521	23741
876.65	23840
876.778	23570
876.906	23687
877.034	23619
877.162	23596
877.29	23691
877.418	23672
877.546	23668
877.674	23638
877.802	23638
877.93	23596
878.058	23604
878.185	23490
878.313	23573
878.441	23558
878.568	23444
878.696	23741
878.824	23733
878.951	23687
879.079	23859
879.206	23866
879.333	23786
879.461	23722
879.588	23798
879.715	23920
879.842	23916
879.97	23653
880.097	23421
880.224	23573
880.351	23444
880.478	23486
880.605	23505
880.732	23520
880.859	23783
880.986	23486
881.112	23531
881.239	23288
881.366	23315
881.493	23174
881.619	23140
881.746	22980
881.872	23022
881.999	22953
882.125	22991
882.252	23102
882.378	23010
882.505	23109
882.631	22824
882.757	22729
882.883	22679
883.01	22702
883.136	22596
883.262	22538
883.388	22375
883.514	22675
883.64	22702
883.766	22512
883.892	22489
884.018	22569
884.143	22668
884.269	22702
884.395	22447
884.52	22379
884.646	22360
884.772	22363
884.897	22204
885.023	22253
885.148	22478
885.274	22440
885.399	22371
885.524	22314
885.65	22424
885.775	22310
885.9	22314
886.025	22493
886.15	22462
886.275	22230
886.4	22230
886.525	22356
886.65	22314
886.775	22284
886.9	22432
887.025	22569
887.149	22143
887.274	22223
887.399	22154
887.523	22131
887.648	22086
887.773	22032
887.897	22105
888.021	22120
888.146	22044
888.27	22147
888.395	22055
888.519	22036
888.643	21975
888.767	22093
888.891	21972
889.015	21903
889.139	21949
889.263	21895
889.387	22090
889.511	22177
889.635	22109
889.759	21922
889.883	21937
890.006	21869
890.13	21972
890.254	21747
890.377	21880
890.501	21663
890.624	21572
890.748	21583
890.871	21576
890.995	21386
891.118	21382
891.241	21321
891.364	21481
891.488	21481
891.611	21420
891.734	21340
891.857	21504
891.98	21397
892.103	21526
892.226	21325
892.349	21344
892.471	21241
892.594	21424
892.717	21302
892.839	21332
892.962	21317
893.085	21386
893.207	21351
893.33	21233
893.452	21279
893.575	21245
893.697	21104
893.819	21416
893.941	21420
894.064	21496
894.186	21332
894.308	21260
894.43	21325
894.552	21511
894.674	21306
894.796	21237
894.918	21275
895.04	21237
895.161	21302
895.283	21321
895.405	21165
895.526	21241
895.648	21313
895.769	21264
895.891	21405
896.012	21412
896.134	21321
896.255	21279
896.376	21116
896.498	21218
896.619	21378
896.74	21294
896.861	21317
896.982	21591
897.103	21774
897.224	21591
897.345	21416
897.466	21359
897.587	21507
897.708	21644
897.828	21515
897.949	21466
898.07	21336
898.19	21397
898.311	21481
898.431	21313
898.552	21545
898.672	21519
898.792	21511
898.913	21507
899.033	21397
899.153	21199
899.273	21154
899.393	21272
899.513	21233
899.633	21256
899.753	21218
899.873	21218
899.993	21237
900.113	21135
900.232	21302
900.352	21135
900.472	20975
900.591	20982
900.711	20956
900.83	20857
900.95	21074
901.069	20986
901.189	20838
901.308	20663
901.427	20484
901.546	20412
901.665	20533
901.784	20609
901.904	20400
902.023	20263
902.141	20039
902.26	20054
902.379	20043
902.498	20081
902.617	19932
902.735	20043
902.854	19986
902.973	19898
903.091	19811
903.21	19765
903.328	19670
903.446	19575
903.565	19449
903.683	19514
903.801	19396
903.919	19491
904.038	19373
904.156	19168
904.274	19373
904.392	19114
904.51	19206
904.627	19255
904.745	19304
904.863	19247
904.981	18989
905.098	18867
905.216	18894
905.334	18840
905.451	18958
905.569	18916
905.686	18905
905.803	18852
905.921	18772
906.038	18821
906.155	18787
906.272	18658
906.389	18574
906.506	18407
906.623	18437
906.74	18365
906.857	18357
906.974	18209
907.091	18513
907.208	18601
907.324	18369
907.441	18315
907.557	18270
907.674	18144
907.79	18110
907.907	17999
908.023	18064
908.139	18186
908.256	18182
908.372	18011
908.488	17988
908.604	18007
908.72	17809
908.836	17855
908.952	17927
909.068	17832
909.184	17927
909.3	17897
909.415	17870
909.531	17821
909.647	17589
909.762	17573
909.878	17577
909.993	17528
910.108	17570
910.224	17558
910.339	17474
910.454	17391
910.57	17345
910.685	17280
910.8	17566
910.915	17505
911.03	17326
911.145	17117
911.259	17086
911.374	17197
911.489	16999
911.604	17018
911.718	16831
911.833	16930
911.947	16755
912.062	16660
912.176	16919
912.291	16820
912.405	16831
912.519	16999
912.633	16976
912.748	16862
912.862	16771
912.976	16771
913.09	16561
913.204	16519
913.318	16679
913.431	16675
913.545	16847
913.659	16771
913.772	16645
913.886	16542
914	16455
914.113	16569
914.226	16599
914.34	16504
914.453	16451
914.566	16443
914.68	16238
914.793	16242
914.906	16185
915.019	16067
915.132	15964
915.245	15930
915.358	16105
915.47	16036
915.583	16051
915.696	16025
915.809	16112
915.921	16158
916.034	15983
916.146	15975
916.259	15816
916.371	15975
916.483	15941
916.595	15827
916.708	15781
916.82	15759
916.932	15850
917.044	15835
917.156	15789
917.268	15633
917.38	15606
917.491	15660
917.603	15625
917.715	15747
917.826	15694
917.938	15553
918.049	15473
918.161	15625
918.272	15724
918.384	15656
918.495	15538
918.606	15507
918.717	15344
918.828	15466
918.939	15370
919.05	15188
919.161	15279
919.272	15218
919.383	15264
919.494	15393
919.604	15580
919.715	15321
919.826	15279
919.936	15302
920.047	15370
920.157	15313
920.267	15622
920.378	15374
920.488	15291
920.598	15511
920.708	15660
920.818	15439
920.928	15466
921.038	15587
921.148	15420
921.258	15199
921.368	15165
921.477	15070
921.587	14960
921.697	14956
921.806	15043
921.916	14895
922.025	14708
922.134	14564
922.244	14632
922.353	14750
922.462	14583
922.571	14499
922.68	14313
922.789	14309
922.898	14332
923.007	14248
923.116	14252
923.224	14256
923.333	14290
923.442	14248
923.55	14149
923.659	14126
923.767	14187
923.876	14180
923.984	14176
924.092	14084
924.201	14046
924.309	14062
924.417	14039
924.525	14012
924.633	13959
924.741	14910
924.849	13651
924.956	13936
925.064	13727
925.172	13708
925.279	13639
925.387	13677
925.494	13761
925.602	13757
925.709	13696
925.816	13597
925.924	13567
926.031	13685
926.138	13609
926.245	13704
926.352	13472
926.459	13742
926.566	13677
926.673	13499
926.779	13407
926.886	13476
926.993	13255
927.099	13297
927.206	13156
927.312	13179
927.419	13274
927.525	13251
927.631	13316
927.737	13110
927.843	13053
927.95	12981
928.056	12947
928.162	13031
928.267	13057
928.373	13685
928.479	13152
928.585	12859
928.69	12947
928.796	12943
928.901	12954
929.007	12768
929.112	12757
929.218	12772
929.323	12802
929.428	12726
929.533	12920
929.638	12642
929.743	12646
929.848	12734
929.953	12608
930.058	12471
930.163	12365
930.267	12437
930.372	12604
930.477	12448
930.581	12574
930.685	12437
930.79	12296
930.894	12285
930.998	12334
931.103	12292
931.207	12015
931.311	11980
931.415	11908
931.519	11600
931.623	11615
