Data from test_V78500241_2381.txt Node
Date: Fri Mar 25 15:58:17 CST 2022
User: usil
Spectrometer: V785-0024
Trigger mode: 0
Integration Time (sec): 4.000000E-1
Scans to average: 1
Nonlinearity correction enabled: false
Boxcar width: 0
Storing dark spectrum: false
XAxis mode: Wavelengths
Number of Pixels in Spectrum: 1024
>>>>>Begin Spectral Data<<<<<
801.071	28847
801.214	28816
801.356	28443
801.499	28421
801.641	28318
801.783	28246
801.926	28417
802.068	28299
802.211	28238
802.353	28561
802.496	28070
802.638	27953
802.78	28048
802.923	28120
803.065	28044
803.208	27797
803.35	28101
803.492	28230
803.635	28265
803.777	28097
803.919	28246
804.061	28641
804.204	28268
804.346	28265
804.488	28238
804.63	28375
804.773	28131
804.915	28360
805.057	28375
805.199	28341
805.341	28382
805.483	28557
805.626	28291
805.768	28200
805.91	28459
806.052	28500
806.194	28295
806.336	28584
806.478	28371
806.62	28485
806.762	28626
806.904	28672
807.046	29121
807.188	28831
807.33	28862
807.472	28809
807.614	28881
807.756	28763
807.898	28816
808.04	28641
808.182	28653
808.324	28687
808.465	28774
808.607	29037
808.749	29181
808.891	29227
809.033	29242
809.174	29227
809.316	29231
809.458	29090
809.6	28946
809.741	29318
809.883	29246
810.025	29410
810.166	29360
810.308	29455
810.45	29269
810.591	29239
810.733	29341
810.875	29162
811.016	29044
811.158	29029
811.299	29235
811.441	29280
811.582	29334
811.724	29185
811.865	29056
812.007	29064
812.148	29121
812.29	29216
812.431	29345
812.573	29471
812.714	29566
812.855	29493
812.997	29729
813.138	29999
813.279	29798
813.421	29786
813.562	29478
813.703	29414
813.845	29505
813.986	29155
814.127	28953
814.268	28786
814.41	28862
814.551	28729
814.692	28797
814.833	28694
814.974	28942
815.115	29006
815.256	28748
815.397	28694
815.539	28664
815.68	28645
815.821	28523
815.962	28584
816.103	28683
816.244	28527
816.385	28455
816.526	28394
816.666	28276
816.807	28124
816.948	28276
817.089	28211
817.23	28162
817.371	28310
817.512	28090
817.653	28188
817.793	28097
817.934	28029
818.075	28196
818.216	28169
818.356	28055
818.497	28078
818.638	27922
818.778	27972
818.919	28032
819.06	27991
819.2	28158
819.341	28265
819.481	28253
819.622	28386
819.762	28360
819.903	28500
820.043	28421
820.184	28306
820.324	28295
820.465	28169
820.605	28344
820.746	28276
820.886	28188
821.026	28166
821.167	28181
821.307	28322
821.447	28158
821.588	28002
821.728	28067
821.868	27793
822.008	27736
822.149	27606
822.289	27492
822.429	27408
822.569	27386
822.709	27260
822.849	27237
822.99	27131
823.13	27077
823.27	26994
823.41	27055
823.55	26940
823.69	27028
823.83	27077
823.97	26853
824.11	26792
824.25	26804
824.389	26864
824.529	26819
824.669	26925
824.809	26895
824.949	26906
825.089	26819
825.228	26921
825.368	26678
825.508	26705
825.648	26701
825.787	26731
825.927	26754
826.067	26701
826.206	26883
826.346	26727
826.485	26826
826.625	26796
826.765	26731
826.904	26667
827.044	26469
827.183	26533
827.323	26324
827.462	26511
827.601	26320
827.741	26355
827.88	26400
828.02	26351
828.159	26328
828.298	26419
828.437	26419
828.577	26119
828.716	26408
828.855	26252
828.994	26058
829.134	26130
829.273	26142
829.412	26084
829.551	26065
829.69	26054
829.829	26157
829.968	26077
830.107	26096
830.246	26062
830.385	25909
830.524	25966
830.663	25951
830.802	25841
830.941	25575
831.08	25681
831.219	25731
831.357	25750
831.496	25970
831.635	25723
831.774	25712
831.913	25540
832.051	25419
832.19	25460
832.329	25327
832.467	25278
832.606	25388
832.744	25331
832.883	25369
833.022	25297
833.16	25346
833.299	25339
833.437	25441
833.576	25460
833.714	25472
833.852	25544
833.991	25369
834.129	25476
834.267	25529
834.406	25468
834.544	25495
834.682	25411
834.821	25301
834.959	25521
835.097	25388
835.235	25384
835.373	25369
835.511	25419
835.65	25403
835.788	25263
835.926	25148
836.064	24958
836.202	24981
836.34	25270
836.478	25285
836.615	25209
836.753	25183
836.891	25202
837.029	25266
837.167	25091
837.305	25255
837.443	25122
837.58	25065
837.718	25171
837.856	25114
837.993	24973
838.131	25126
838.269	24973
838.406	24878
838.544	24924
838.681	24745
838.819	24646
838.956	24483
839.094	24437
839.231	24627
839.369	24681
839.506	24871
839.643	24833
839.781	24521
839.918	24350
840.055	24429
840.193	24490
840.33	24517
840.467	24414
840.604	24418
840.742	24760
840.879	24353
841.016	24395
841.153	24311
841.29	24304
841.427	24319
841.564	24376
841.701	24452
841.838	24334
841.975	24532
842.112	24350
842.249	24254
842.385	24098
842.522	24372
842.659	24174
842.796	24079
842.933	24136
843.069	24201
843.206	24076
843.343	24254
843.479	24194
843.616	24117
843.752	24117
843.889	23836
844.025	24038
844.162	23927
844.298	24064
844.435	23836
844.571	23828
844.708	24030
844.844	24178
844.98	24057
845.117	24087
845.253	23859
845.389	23726
845.525	23939
845.661	23695
845.798	23649
845.934	23733
846.07	23570
846.206	23661
846.342	23824
846.478	23630
846.614	23524
846.75	23398
846.886	23440
847.022	23379
847.158	23372
847.294	23387
847.429	23493
847.565	23322
847.701	23589
847.837	23147
847.972	23181
848.108	23071
848.244	23170
848.379	23178
848.515	22972
848.65	22942
848.786	23014
848.921	23109
849.057	23143
849.192	23060
849.328	23113
849.463	22881
849.598	23022
849.734	22831
849.869	22946
850.004	22740
850.14	22801
850.275	22790
850.41	22774
850.545	22713
850.68	22683
850.815	22942
850.95	22653
851.085	22999
851.22	22839
851.355	22740
851.49	22736
851.625	22744
851.76	22801
851.895	22698
852.03	22668
852.165	22672
852.299	22824
852.434	22626
852.569	22748
852.703	22809
852.838	22797
852.973	22858
853.107	22835
853.242	22679
853.376	22527
853.511	22428
853.645	22421
853.78	22630
853.914	22485
854.048	22557
854.183	22519
854.317	22687
854.451	22911
854.585	22592
854.72	22432
854.854	22554
854.988	22497
855.122	22538
855.256	22462
855.39	22577
855.524	22683
855.658	22687
855.792	22504
855.926	22554
856.06	22538
856.194	22653
856.327	22523
856.461	22470
856.595	22497
856.729	22607
856.862	22763
856.996	22554
857.13	22653
857.263	22672
857.397	22668
857.53	22603
857.664	22550
857.797	22649
857.931	22733
858.064	22611
858.197	22698
858.331	22497
858.464	22557
858.597	22550
858.731	22538
858.864	22478
858.997	22474
859.13	22440
859.263	22618
859.396	22588
859.529	22516
859.662	22519
859.795	22421
859.928	22584
860.061	22809
860.194	22736
860.327	22672
860.46	22577
860.592	22809
860.725	22634
860.858	22717
860.99	22500
861.123	22481
861.256	22417
861.388	22618
861.521	23334
861.653	22390
861.786	22352
861.918	22333
862.05	22375
862.183	22489
862.315	22538
862.447	22531
862.58	22413
862.712	22215
862.844	22177
862.976	22360
863.108	22284
863.24	22771
863.372	22242
863.504	22207
863.636	22344
863.768	22204
863.9	22413
864.032	22135
864.164	22265
864.296	22341
864.428	22242
864.559	22295
864.691	22375
864.823	22318
864.954	22246
865.086	22272
865.217	22185
865.349	22006
865.48	22211
865.612	22032
865.743	22272
865.875	22272
866.006	22090
866.137	22051
866.269	22059
866.4	22181
866.531	22021
866.662	22128
866.793	22006
866.924	22029
867.055	22055
867.186	22067
867.317	22116
867.448	21994
867.579	22147
867.71	21819
867.841	22010
867.972	22078
868.103	21949
868.233	22067
868.364	22097
868.495	22219
868.625	22329
868.756	22375
868.886	22242
869.017	22363
869.147	22356
869.278	22394
869.408	22398
869.539	22246
869.669	22344
869.799	22360
869.929	22462
870.06	22356
870.19	22660
870.32	22637
870.45	22626
870.58	22656
870.71	22782
870.84	22767
870.97	22706
871.1	22679
871.23	22991
871.36	22877
871.489	22729
871.619	22850
871.749	22892
871.879	22965
872.008	22896
872.138	22911
872.267	22946
872.397	22900
872.526	22649
872.656	22702
872.785	22672
872.915	22927
873.044	22904
873.173	22919
873.303	23105
873.432	23018
873.561	22980
873.69	22911
873.819	23025
873.948	22904
874.077	22923
874.206	22923
874.335	22904
874.464	22999
874.593	23079
874.722	23037
874.851	23117
874.979	23162
875.108	23162
875.237	23223
875.365	23071
875.494	23197
875.623	23254
875.751	23128
875.88	23193
876.008	23322
876.136	23341
876.265	23528
876.393	23627
876.521	23539
876.65	23619
876.778	23467
876.906	23505
877.034	23406
877.162	23493
877.29	23448
877.418	23596
877.546	23478
877.674	23429
877.802	23406
877.93	23490
878.058	23482
878.185	23356
878.313	23353
878.441	23512
878.568	23239
878.696	23315
878.824	23490
878.951	23551
879.079	23600
879.206	23726
879.333	23714
879.461	23501
879.588	23589
879.715	23619
879.842	23809
879.97	23425
880.097	23235
880.224	23318
880.351	23360
880.478	23353
880.605	23162
880.732	23356
880.859	23512
880.986	23220
881.112	23166
881.239	23113
881.366	22968
881.493	22995
881.619	22850
881.746	22934
881.872	22946
881.999	22744
882.125	22710
882.252	22866
882.378	22782
882.505	22984
882.631	22767
882.757	22478
882.883	22717
883.01	22634
883.136	22424
883.262	22402
883.388	22382
883.514	22474
883.64	22577
883.766	22459
883.892	22215
884.018	22360
884.143	22428
884.269	22607
884.395	22325
884.52	22120
884.646	22295
884.772	22109
884.897	22055
885.023	22207
885.148	22177
885.274	22253
885.399	22246
885.524	22044
885.65	22143
885.775	22188
885.9	22109
886.025	22280
886.15	22238
886.275	22169
886.4	22025
886.525	22112
886.65	22188
886.775	22131
886.9	22318
887.025	22230
887.149	22082
887.274	21994
887.399	21987
887.523	21895
887.648	21778
887.773	21873
887.897	21956
888.021	21884
888.146	21895
888.27	22070
888.395	22105
888.519	21922
888.643	22025
888.767	21991
888.891	21835
889.015	21686
889.139	21755
889.263	21698
889.387	21846
889.511	21968
889.635	21861
889.759	21728
889.883	21701
890.006	21644
890.13	21778
890.254	21739
890.377	21625
890.501	21454
890.624	21477
890.748	21401
890.871	21374
890.995	21245
891.118	21180
891.241	21165
891.364	21249
891.488	21325
891.611	21329
891.734	21180
891.857	21264
891.98	21249
892.103	21260
892.226	21306
892.349	21146
892.471	21081
892.594	21176
892.717	21226
892.839	21119
892.962	21180
893.085	21135
893.207	21138
893.33	21047
893.452	21070
893.575	21157
893.697	21127
893.819	21363
893.941	21329
894.064	21146
894.186	21013
894.308	21066
894.43	21260
894.552	21279
894.674	21237
894.796	21093
894.918	21077
895.04	21081
895.161	21165
895.283	21161
895.405	21039
895.526	21230
895.648	21058
895.769	21066
895.891	21169
896.012	21237
896.134	21146
896.255	21165
896.376	21047
896.498	21199
896.619	21226
896.74	21066
896.861	21237
896.982	21443
897.103	21545
897.224	21351
897.345	21355
897.466	21173
897.587	21272
897.708	21606
897.828	21317
897.949	21218
898.07	21055
898.19	21241
898.311	21329
898.431	21310
898.552	21283
898.672	21386
898.792	21405
898.913	21344
899.033	21211
899.153	21157
899.273	21077
899.393	20986
899.513	21188
899.633	21100
899.753	21051
899.873	20944
899.993	21135
900.113	21036
900.232	20990
900.352	20937
900.472	20960
900.591	20727
900.711	20800
900.83	20716
900.95	20929
901.069	20929
901.189	20674
901.308	20537
901.427	20385
901.546	20389
901.665	20301
901.784	20400
901.904	20370
902.023	20221
902.141	20107
902.26	19959
902.379	20020
902.498	19818
902.617	19963
902.735	19898
902.854	19837
902.973	19791
903.091	19609
903.21	19521
903.328	19514
903.446	19415
903.565	19384
903.683	19422
903.801	19236
903.919	19236
904.038	19304
904.156	19129
904.274	19198
904.392	19027
904.51	19000
904.627	19015
904.745	19160
904.863	19160
904.981	18924
905.098	18837
905.216	18745
905.334	18844
905.451	18787
905.569	18650
905.686	18840
905.803	18738
905.921	18589
906.038	18669
906.155	18528
906.272	18422
906.389	18445
906.506	18369
906.623	18308
906.74	18380
906.857	18079
906.974	18239
907.091	18330
907.208	18418
907.324	18289
907.441	18121
907.557	17984
907.674	17977
907.79	17958
907.907	17958
908.023	18038
908.139	17874
908.256	17984
908.372	17802
908.488	17931
908.604	17756
908.72	17745
908.836	17756
908.952	17729
909.068	17695
909.184	17775
909.3	17729
909.415	17703
909.531	17741
909.647	17406
909.762	17452
909.878	17326
909.993	17421
910.108	17318
910.224	17372
910.339	17307
910.454	17288
910.57	17200
910.685	17155
910.8	17570
910.915	17341
911.03	17239
911.145	16991
911.259	16968
911.374	17018
911.489	16927
911.604	16835
911.718	16694
911.833	16603
911.947	16687
912.062	16611
912.176	16744
912.291	16752
912.405	16805
912.519	16869
912.633	16843
912.748	16843
912.862	16683
912.976	16580
913.09	16512
913.204	16504
913.318	16538
913.431	16649
913.545	16592
913.659	16569
913.772	16447
913.886	16409
914	16299
914.113	16417
914.226	16375
914.34	16329
914.453	16249
914.566	16371
914.68	16177
914.793	16204
914.906	16116
915.019	15956
915.132	15831
915.245	15835
915.358	15903
915.47	15922
915.583	15827
915.696	16002
915.809	16013
915.921	15945
916.034	15762
916.146	15751
916.259	15774
916.371	15861
916.483	15804
916.595	15785
916.708	15724
916.82	15690
916.932	15606
917.044	15641
917.156	15698
917.268	15477
917.38	15652
917.491	15496
917.603	15523
917.715	15595
917.826	15549
917.938	15500
918.049	15306
918.161	15538
918.272	15545
918.384	15644
918.495	15397
918.606	15359
918.717	15310
918.828	15306
918.939	15344
919.05	15195
919.161	15348
919.272	15043
919.383	15070
919.494	15317
919.604	15412
919.715	15226
919.826	15150
919.936	15283
920.047	15344
920.157	15264
920.267	15348
920.378	15226
920.488	15211
920.598	15214
920.708	15458
920.818	15386
920.928	15298
921.038	15450
921.148	15481
921.258	15188
921.368	15127
921.477	14937
921.587	14838
921.697	14781
921.806	14971
921.916	14716
922.025	14636
922.134	14511
922.244	14571
922.353	14526
922.462	14454
922.571	14339
922.68	14317
922.789	14267
922.898	14210
923.007	14172
923.116	14172
923.224	14370
923.333	14164
923.442	14012
923.55	14035
923.659	14069
923.767	14164
923.876	14031
923.984	13974
924.092	13967
924.201	13967
924.309	13925
924.417	13974
924.525	13845
924.633	13947
924.741	14731
924.849	13571
924.956	13833
925.064	13708
925.172	13624
925.279	13586
925.387	13533
925.494	13552
925.602	13708
925.709	13628
925.816	13491
925.924	13419
926.031	13597
926.138	13563
926.245	13529
926.352	13457
926.459	13586
926.566	13647
926.673	13434
926.779	13369
926.886	13285
926.993	13187
927.099	13183
927.206	13160
927.312	13061
927.419	13149
927.525	13149
927.631	13179
927.737	12951
927.843	12970
927.95	12829
928.056	12947
928.162	12916
928.267	13000
928.373	13567
928.479	13023
928.585	12791
928.69	12894
928.796	12909
928.901	12810
929.007	12642
929.112	12867
929.218	12764
929.323	12719
929.428	12642
929.533	12859
929.638	12620
929.743	12646
929.848	12684
929.953	12578
930.058	12490
930.163	12315
930.267	12289
930.372	12433
930.477	12232
930.581	12483
930.685	12311
930.79	12270
930.894	12186
930.998	12140
931.103	12251
931.207	11939
931.311	11889
931.415	11859
931.519	11551
931.623	11562
