Data from test_V78500241_1078.txt Node
Date: Fri Mar 25 15:49:16 CST 2022
User: usil
Spectrometer: V785-0024
Trigger mode: 0
Integration Time (sec): 4.000000E-1
Scans to average: 1
Nonlinearity correction enabled: false
Boxcar width: 0
Storing dark spectrum: false
XAxis mode: Wavelengths
Number of Pixels in Spectrum: 1024
>>>>>Begin Spectral Data<<<<<
801.071	28246
801.214	28181
801.356	28067
801.499	27937
801.641	27964
801.783	27835
801.926	27926
802.068	27873
802.211	27854
802.353	27785
802.496	27488
802.638	27580
802.78	27534
802.923	27542
803.065	27511
803.208	27538
803.35	27526
803.492	27644
803.635	27766
803.777	27660
803.919	27736
804.061	28070
804.204	27888
804.346	27751
804.488	27717
804.63	27690
804.773	27641
804.915	27717
805.057	27835
805.199	27835
805.341	27873
805.483	28036
805.626	27846
805.768	27861
805.91	27937
806.052	27892
806.194	27739
806.336	28074
806.478	27964
806.62	27911
806.762	28048
806.904	28185
807.046	28337
807.188	28394
807.33	28337
807.472	28424
807.614	28299
807.756	28322
807.898	28169
808.04	28253
808.182	28196
808.324	28276
808.465	28150
808.607	28557
808.749	28596
808.891	28569
809.033	28717
809.174	28637
809.316	28523
809.458	28626
809.6	28478
809.741	28702
809.883	28869
810.025	28930
810.166	28839
810.308	28980
810.45	28847
810.591	28793
810.733	28698
810.875	28561
811.016	28565
811.158	28367
811.299	28721
811.441	28854
811.582	28828
811.724	28637
811.865	28542
812.007	28668
812.148	28531
812.29	28683
812.431	28850
812.573	28843
812.714	29151
812.855	29067
812.997	29220
813.138	29349
813.279	29250
813.421	29124
813.562	29113
813.703	28946
813.845	28820
813.986	28538
814.127	28508
814.268	28257
814.41	28352
814.551	28276
814.692	28382
814.833	28329
814.974	28238
815.115	28337
815.256	28337
815.397	28207
815.539	28120
815.68	28173
815.821	27998
815.962	28257
816.103	28025
816.244	27968
816.385	27922
816.526	27804
816.666	27812
816.807	27572
816.948	27751
817.089	27732
817.23	27625
817.371	27675
817.512	27564
817.653	27720
817.793	27648
817.934	27660
818.075	27587
818.216	27747
818.356	27549
818.497	27492
818.638	27462
818.778	27351
818.919	27386
819.06	27473
819.2	27507
819.341	27720
819.481	27652
819.622	27823
819.762	27907
819.903	27884
820.043	27793
820.184	27800
820.324	27629
820.465	27903
820.605	27747
820.746	27778
820.886	27622
821.026	27644
821.167	27709
821.307	27743
821.447	27720
821.588	27625
821.728	27393
821.868	27302
822.008	27085
822.149	27104
822.289	27119
822.429	26823
822.569	26811
822.709	26705
822.849	26674
822.99	26678
823.13	26724
823.27	26549
823.41	26511
823.55	26370
823.69	26450
823.83	26492
823.97	26362
824.11	26343
824.25	26248
824.389	26282
824.529	26244
824.669	26206
824.809	26400
824.949	26366
825.089	26267
825.228	26313
825.368	26020
825.508	26195
825.648	26172
825.787	26153
825.927	26199
826.067	26027
826.206	26187
826.346	26214
826.485	26240
826.625	26210
826.765	26252
826.904	26313
827.044	25818
827.183	25913
827.323	25738
827.462	25940
827.601	25917
827.741	25837
827.88	25791
828.02	25731
828.159	25769
828.298	25921
828.437	25963
828.577	25803
828.716	25837
828.855	25677
828.994	25422
829.134	25548
829.273	25685
829.412	25483
829.551	25521
829.69	25563
829.829	25510
829.968	25677
830.107	25548
830.246	25552
830.385	25597
830.524	25438
830.663	25388
830.802	25411
830.941	25099
831.08	25084
831.219	25324
831.357	25187
831.496	25392
831.635	25057
831.774	25053
831.913	25114
832.051	24970
832.19	24996
832.329	24962
832.467	24787
832.606	24757
832.744	24856
832.883	24863
833.022	24658
833.16	24890
833.299	24935
833.437	24871
833.576	24871
833.714	24909
833.852	24970
833.991	24764
834.129	24966
834.267	25038
834.406	24897
834.544	24875
834.682	24833
834.821	24783
834.959	24958
835.097	24787
835.235	24791
835.373	24939
835.511	24779
835.65	24719
835.788	24608
835.926	24604
836.064	24513
836.202	24494
836.34	24642
836.478	24719
836.615	24741
836.753	24703
836.891	24757
837.029	24650
837.167	24532
837.305	24635
837.443	24620
837.58	24505
837.718	24635
837.856	24433
837.993	24525
838.131	24563
838.269	24399
838.406	24350
838.544	24422
838.681	24216
838.819	24190
838.956	24053
839.094	24087
839.231	24072
839.369	24300
839.506	24281
839.643	24296
839.781	23939
839.918	24022
840.055	23939
840.193	23813
840.33	23889
840.467	23863
840.604	24022
840.742	24308
840.879	23752
841.016	23882
841.153	23874
841.29	24095
841.427	23950
841.564	24041
841.701	23969
841.838	23942
841.975	23935
842.112	23874
842.249	23828
842.385	23649
842.522	23866
842.659	23726
842.796	23657
842.933	23710
843.069	23589
843.206	23691
843.343	23771
843.479	23638
843.616	23737
843.752	23539
843.889	23444
844.025	23604
844.162	23284
844.298	23547
844.435	23421
844.571	23391
844.708	23524
844.844	23665
844.98	23615
845.117	23558
845.253	23398
845.389	23250
845.525	23360
845.661	23178
845.798	23204
845.934	23239
846.07	23231
846.206	23094
846.342	23307
846.478	23277
846.614	22927
846.75	22862
846.886	22809
847.022	22957
847.158	22927
847.294	22809
847.429	23003
847.565	22729
847.701	23014
847.837	22561
847.972	22542
848.108	22691
848.244	22702
848.379	22478
848.515	22554
848.65	22466
848.786	22527
848.921	22451
849.057	22611
849.192	22569
849.328	22557
849.463	22413
849.598	22466
849.734	22405
849.869	22352
850.004	22261
850.14	22246
850.275	22196
850.41	22287
850.545	22226
850.68	22223
850.815	22341
850.95	22196
851.085	22481
851.22	22325
851.355	22188
851.49	22261
851.625	22188
851.76	22268
851.895	22196
852.03	22238
852.165	22329
852.299	22185
852.434	22265
852.569	22143
852.703	22204
852.838	22443
852.973	22268
853.107	22325
853.242	22147
853.376	22128
853.511	21850
853.645	22070
853.78	22242
853.914	22055
854.048	21968
854.183	22010
854.317	22006
854.451	22352
854.585	21922
854.72	22082
854.854	22120
854.988	22044
855.122	22063
855.256	21934
855.39	22021
855.524	22082
855.658	22211
855.792	22059
855.926	22063
856.06	22143
856.194	22128
856.327	22013
856.461	21987
856.595	21972
856.729	22082
856.862	22166
856.996	22090
857.13	22131
857.263	22188
857.397	22207
857.53	22101
857.664	22032
857.797	22169
857.931	22219
858.064	22070
858.197	22162
858.331	21991
858.464	22048
858.597	21911
858.731	21991
858.864	22067
858.997	22048
859.13	21926
859.263	22032
859.396	22166
859.529	22044
859.662	21926
859.795	21998
859.928	22093
860.061	22261
860.194	22310
860.327	22188
860.46	22055
860.592	22116
860.725	22211
860.858	22223
860.99	22021
861.123	22013
861.256	21960
861.388	22093
861.521	22755
861.653	21926
861.786	21968
861.918	21918
862.05	21941
862.183	21960
862.315	22017
862.447	22051
862.58	21911
862.712	21755
862.844	21698
862.976	21857
863.108	21778
863.24	22265
863.372	21728
863.504	21614
863.636	21785
863.768	21724
863.9	21789
864.032	21713
864.164	21675
864.296	21694
864.428	21899
864.559	21808
864.691	21869
864.823	21732
864.954	21728
865.086	21690
865.217	21781
865.349	21538
865.48	21526
865.612	21663
865.743	21800
865.875	21694
866.006	21622
866.137	21595
866.269	21545
866.4	21747
866.531	21610
866.662	21526
866.793	21526
866.924	21606
867.055	21568
867.186	21701
867.317	21557
867.448	21401
867.579	21481
867.71	21618
867.841	21504
867.972	21671
868.103	21610
868.233	21511
868.364	21717
868.495	21660
868.625	21884
868.756	21994
868.886	21793
869.017	21755
869.147	21949
869.278	22131
869.408	21918
869.539	21793
869.669	21903
869.799	21816
869.929	21922
870.06	22048
870.19	22128
870.32	22029
870.45	22135
870.58	22207
870.71	22341
870.84	22226
870.97	22204
871.1	22192
871.23	22398
871.36	22516
871.489	22390
871.619	22367
871.749	22504
871.879	22470
872.008	22557
872.138	22512
872.267	22363
872.397	22325
872.526	22303
872.656	22421
872.785	22276
872.915	22443
873.044	22481
873.173	22554
873.303	22443
873.432	22466
873.561	22668
873.69	22478
873.819	22443
873.948	22550
874.077	22493
874.206	22367
874.335	22417
874.464	22607
874.593	22634
874.722	22637
874.851	22577
874.979	22668
875.108	22596
875.237	22569
875.365	22584
875.494	22710
875.623	22622
875.751	22744
875.88	22702
876.008	22755
876.136	22847
876.265	23159
876.393	23216
876.521	23124
876.65	23102
876.778	23044
876.906	22987
877.034	22892
877.162	23132
877.29	22908
877.418	23044
877.546	23136
877.674	22900
877.802	23102
877.93	22999
878.058	22961
878.185	22862
878.313	23022
878.441	23006
878.568	22839
878.696	22934
878.824	23056
878.951	22987
879.079	23235
879.206	23349
879.333	23208
879.461	23071
879.588	23037
879.715	23083
879.842	23307
879.97	23178
880.097	22805
880.224	22767
880.351	22748
880.478	22778
880.605	22862
880.732	22839
880.859	22968
880.986	22877
881.112	22919
881.239	22649
881.366	22489
881.493	22565
881.619	22519
881.746	22386
881.872	22481
881.999	22318
882.125	22386
882.252	22352
882.378	22280
882.505	22436
882.631	22230
882.757	22074
882.883	22177
883.01	22067
883.136	22036
883.262	21979
883.388	21911
883.514	22059
883.64	22006
883.766	21918
883.892	21964
884.018	21915
884.143	22040
884.269	22021
884.395	21880
884.52	21793
884.646	21755
884.772	21606
884.897	21595
885.023	21766
885.148	21797
885.274	21827
885.399	21785
885.524	21568
885.65	21819
885.775	21603
885.9	21686
886.025	21861
886.15	21892
886.275	21690
886.4	21496
886.525	21720
886.65	21603
886.775	21526
886.9	21751
887.025	21937
887.149	21629
887.274	21519
887.399	21363
887.523	21405
887.648	21507
887.773	21298
887.897	21549
888.021	21466
888.146	21397
888.27	21534
888.395	21580
888.519	21481
888.643	21496
888.767	21477
888.891	21408
889.015	21218
889.139	21340
889.263	21192
889.387	21249
889.511	21644
889.635	21397
889.759	21260
889.883	21192
890.006	21268
890.13	21496
890.254	21268
890.377	21230
890.501	21028
890.624	21020
890.748	21024
890.871	20887
890.995	20830
891.118	20788
891.241	20792
891.364	20853
891.488	20918
891.611	20883
891.734	20880
891.857	20807
891.98	20948
892.103	20842
892.226	20868
892.349	20716
892.471	20621
892.594	20758
892.717	20686
892.839	20758
892.962	20815
893.085	20834
893.207	20727
893.33	20587
893.452	20579
893.575	20739
893.697	20678
893.819	20819
893.941	20834
894.064	20857
894.186	20735
894.308	20667
894.43	20781
894.552	20842
894.674	20769
894.796	20625
894.918	20648
895.04	20659
895.161	20689
895.283	20716
895.405	20705
895.526	20701
895.648	20743
895.769	20754
895.891	20705
896.012	20720
896.134	20678
896.255	20720
896.376	20598
896.498	20659
896.619	20762
896.74	20606
896.861	20777
896.982	21028
897.103	21154
897.224	20891
897.345	20899
897.466	20895
897.587	20956
897.708	21032
897.828	20941
897.949	20982
898.07	20765
898.19	20815
898.311	20998
898.431	20834
898.552	20819
898.672	20910
898.792	20902
898.913	20906
899.033	20842
899.153	20796
899.273	20492
899.393	20648
899.513	20724
899.633	20613
899.753	20648
899.873	20590
899.993	20697
900.113	20552
900.232	20686
900.352	20488
900.472	20446
900.591	20358
900.711	20385
900.83	20351
900.95	20484
901.069	20537
901.189	20377
901.308	20039
901.427	20001
901.546	20012
901.665	20005
901.784	20012
901.904	19887
902.023	19780
902.141	19468
902.26	19533
902.379	19632
902.498	19491
902.617	19369
902.735	19521
902.854	19510
902.973	19441
903.091	19175
903.21	19190
903.328	19152
903.446	19088
903.565	18954
903.683	18958
903.801	18779
903.919	19012
904.038	18833
904.156	18715
904.274	18764
904.392	18681
904.51	18646
904.627	18749
904.745	18658
904.863	18829
904.981	18483
905.098	18547
905.216	18376
905.334	18532
905.451	18452
905.569	18270
905.686	18433
905.803	18346
905.921	18216
906.038	18323
906.155	18251
906.272	18011
906.389	18106
906.506	17927
906.623	17988
906.74	18007
906.857	17859
906.974	17828
907.091	17973
907.208	18015
907.324	17863
907.441	17805
907.557	17722
907.674	17486
907.79	17627
907.907	17646
908.023	17554
908.139	17699
908.256	17547
908.372	17509
908.488	17467
908.604	17341
908.72	17360
908.836	17258
908.952	17288
909.068	17315
909.184	17425
909.3	17299
909.415	17364
909.531	17395
909.647	17025
909.762	17029
909.878	16927
909.993	17060
910.108	16968
910.224	16984
910.339	17033
910.454	16858
910.57	16889
910.685	16812
910.8	17018
910.915	16942
911.03	16759
911.145	16763
911.259	16607
911.374	16626
911.489	16580
911.604	16466
911.718	16459
911.833	16386
911.947	16272
912.062	16238
912.176	16402
912.291	16462
912.405	16390
912.519	16546
912.633	16550
912.748	16428
912.862	16261
912.976	16211
913.09	16097
913.204	16207
913.318	16139
913.431	16162
913.545	16268
913.659	16295
913.772	16021
913.886	15937
914	16109
914.113	16040
914.226	16143
914.34	15968
914.453	15907
914.566	16040
914.68	15861
914.793	15816
914.906	15637
915.019	15652
915.132	15519
915.245	15644
915.358	15553
915.47	15622
915.583	15504
915.696	15488
915.809	15675
915.921	15686
916.034	15511
916.146	15473
916.259	15469
916.371	15523
916.483	15515
916.595	15378
916.708	15424
916.82	15359
916.932	15412
917.044	15412
917.156	15344
917.268	15180
917.38	15237
917.491	15226
917.603	15237
917.715	15226
917.826	15313
917.938	15093
918.049	15089
918.161	15222
918.272	15317
918.384	15252
918.495	15161
918.606	14990
918.717	14895
918.828	15024
918.939	15013
919.05	14960
919.161	14891
919.272	14826
919.383	14785
919.494	14914
919.604	15161
919.715	14956
919.826	14834
919.936	14872
920.047	14929
920.157	14956
920.267	15131
920.378	14963
920.488	14925
920.598	15043
920.708	15184
920.818	15043
920.928	15047
921.038	15173
921.148	15157
921.258	14826
921.368	14792
921.477	14640
921.587	14640
921.697	14446
921.806	14659
921.916	14507
922.025	14370
922.134	14317
922.244	14309
922.353	14214
922.462	14267
922.571	14065
922.68	13890
922.789	13932
922.898	13932
923.007	13955
923.116	13898
923.224	13845
923.333	13925
923.442	13727
923.55	13750
923.659	13807
923.767	13803
923.876	13609
923.984	13845
924.092	13597
924.201	13636
924.309	13666
924.417	13525
924.525	13613
924.633	13639
924.741	14320
924.849	13415
924.956	13533
925.064	13377
925.172	13255
925.279	13293
925.387	13266
925.494	13259
925.602	13445
925.709	13411
925.816	13152
925.924	13228
926.031	13331
926.138	13263
926.245	13255
926.352	13187
926.459	13270
926.566	13350
926.673	13183
926.779	12989
926.886	13027
926.993	12856
927.099	12878
927.206	12886
927.312	12791
927.419	12882
927.525	12844
927.631	12947
927.737	12688
927.843	12757
927.95	12502
928.056	12730
928.162	12722
928.267	12734
928.373	13259
928.479	12791
928.585	12582
928.69	12665
928.796	12654
928.901	12589
929.007	12441
929.112	12555
929.218	12464
929.323	12319
929.428	12395
929.533	12540
929.638	12273
929.743	12452
929.848	12372
929.953	12369
930.058	12186
930.163	12106
930.267	12171
930.372	12205
930.477	12057
930.581	12296
930.685	12155
930.79	11965
930.894	12007
930.998	12019
931.103	12034
931.207	11756
931.311	11722
931.415	11501
931.519	11315
931.623	11299
