Data from test_V78500241_1348.txt Node
Date: Fri Mar 25 15:51:08 CST 2022
User: usil
Spectrometer: V785-0024
Trigger mode: 0
Integration Time (sec): 4.000000E-1
Scans to average: 1
Nonlinearity correction enabled: false
Boxcar width: 0
Storing dark spectrum: false
XAxis mode: Wavelengths
Number of Pixels in Spectrum: 1024
>>>>>Begin Spectral Data<<<<<
801.071	28417
801.214	28246
801.356	27975
801.499	28032
801.641	27884
801.783	27732
801.926	27914
802.068	27918
802.211	27808
802.353	27759
802.496	27504
802.638	27610
802.78	27450
802.923	27549
803.065	27469
803.208	27488
803.35	27488
803.492	27622
803.635	27759
803.777	27576
803.919	27709
804.061	28040
804.204	27888
804.346	27732
804.488	27656
804.63	27686
804.773	27747
804.915	27751
805.057	27895
805.199	27888
805.341	27793
805.483	27945
805.626	27964
805.768	27774
805.91	27975
806.052	27911
806.194	27865
806.336	28116
806.478	28074
806.62	27869
806.762	28082
806.904	28162
807.046	28401
807.188	28284
807.33	28390
807.472	28318
807.614	28158
807.756	28204
807.898	28246
808.04	28158
808.182	28196
808.324	28291
808.465	28185
808.607	28459
808.749	28557
808.891	28596
809.033	28603
809.174	28607
809.316	28538
809.458	28538
809.6	28451
809.741	28493
809.883	28725
810.025	28786
810.166	28740
810.308	28854
810.45	28847
810.591	28831
810.733	28596
810.875	28508
811.016	28573
811.158	28512
811.299	28706
811.441	28866
811.582	28752
811.724	28664
811.865	28557
812.007	28516
812.148	28535
812.29	28516
812.431	28596
812.573	28835
812.714	28972
812.855	29037
812.997	29098
813.138	29364
813.279	29124
813.421	29098
813.562	28972
813.703	28961
813.845	28820
813.986	28698
814.127	28291
814.268	28440
814.41	28432
814.551	28352
814.692	28337
814.833	28185
814.974	28246
815.115	28200
815.256	28101
815.397	28169
815.539	28188
815.68	28048
815.821	27922
815.962	28067
816.103	28147
816.244	27960
816.385	27804
816.526	27892
816.666	27694
816.807	27515
816.948	27545
817.089	27622
817.23	27572
817.371	27542
817.512	27595
817.653	27496
817.793	27614
817.934	27591
818.075	27580
818.216	27614
818.356	27511
818.497	27500
818.638	27245
818.778	27427
818.919	27416
819.06	27466
819.2	27427
819.341	27732
819.481	27576
819.622	27751
819.762	27778
819.903	27823
820.043	27690
820.184	27690
820.324	27568
820.465	27743
820.605	27705
820.746	27625
820.886	27523
821.026	27701
821.167	27705
821.307	27675
821.447	27675
821.588	27553
821.728	27336
821.868	27135
822.008	27119
822.149	27089
822.289	27119
822.429	26857
822.569	26716
822.709	26712
822.849	26511
822.99	26629
823.13	26495
823.27	26579
823.41	26362
823.55	26301
823.69	26431
823.83	26473
823.97	26351
824.11	26172
824.25	26065
824.389	26248
824.529	26263
824.669	26206
824.809	26206
824.949	26267
825.089	26351
825.228	26290
825.368	26100
825.508	26001
825.648	26153
825.787	26092
825.927	26065
826.067	25970
826.206	26164
826.346	26153
826.485	26122
826.625	26172
826.765	26271
826.904	26164
827.044	25795
827.183	25875
827.323	25761
827.462	25784
827.601	25727
827.741	25841
827.88	25864
828.02	25620
828.159	25738
828.298	25723
828.437	25734
828.577	25757
828.716	25951
828.855	25753
828.994	25369
829.134	25578
829.273	25567
829.412	25453
829.551	25350
829.69	25552
829.829	25479
829.968	25639
830.107	25639
830.246	25464
830.385	25259
830.524	25411
830.663	25278
830.802	25244
830.941	25228
831.08	24996
831.219	25171
831.357	25206
831.496	25274
831.635	25099
831.774	24924
831.913	24852
832.051	24958
832.19	25031
832.329	24875
832.467	24875
832.606	24688
832.744	24749
832.883	24776
833.022	24677
833.16	24722
833.299	24863
833.437	24871
833.576	24738
833.714	24810
833.852	24890
833.991	24886
834.129	24779
834.267	24798
834.406	24875
834.544	24924
834.682	24768
834.821	24810
834.959	25004
835.097	24692
835.235	24825
835.373	24795
835.511	24741
835.65	24631
835.788	24677
835.926	24574
836.064	24403
836.202	24483
836.34	24703
836.478	24764
836.615	24578
836.753	24604
836.891	24730
837.029	24631
837.167	24585
837.305	24578
837.443	24528
837.58	24521
837.718	24570
837.856	24536
837.993	24380
838.131	24376
838.269	24555
838.406	24456
838.544	24353
838.681	24144
838.819	24163
838.956	23954
839.094	24041
839.231	23954
839.369	24171
839.506	24372
839.643	24224
839.781	23920
839.918	23954
840.055	23946
840.193	23935
840.33	23794
840.467	23847
840.604	23878
840.742	24155
840.879	23707
841.016	23718
841.153	23783
841.29	23954
841.427	23817
841.564	23965
841.701	23904
841.838	23790
841.975	23764
842.112	23794
842.249	23703
842.385	23657
842.522	23840
842.659	23665
842.796	23676
842.933	23672
843.069	23543
843.206	23615
843.343	23596
843.479	23649
843.616	23608
843.752	23531
843.889	23421
844.025	23528
844.162	23258
844.298	23524
844.435	23242
844.571	23387
844.708	23364
844.844	23490
844.98	23596
845.117	23596
845.253	23376
845.389	23376
845.525	23395
845.661	23273
845.798	23056
845.934	23151
846.07	23022
846.206	23083
846.342	23231
846.478	23090
846.614	22812
846.75	22801
846.886	22733
847.022	22869
847.158	22885
847.294	23003
847.429	22919
847.565	22744
847.701	23086
847.837	22535
847.972	22500
848.108	22778
848.244	22687
848.379	22523
848.515	22451
848.65	22421
848.786	22409
848.921	22481
849.057	22447
849.192	22493
849.328	22516
849.463	22455
849.598	22386
849.734	22421
849.869	22344
850.004	22257
850.14	22329
850.275	22219
850.41	22109
850.545	22223
850.68	22226
850.815	22200
850.95	22226
851.085	22318
851.22	22265
851.355	22246
851.49	22276
851.625	22261
851.76	22169
851.895	22101
852.03	22093
852.165	22219
852.299	22306
852.434	22333
852.569	22295
852.703	22379
852.838	22306
852.973	22310
853.107	22287
853.242	22162
853.376	22078
853.511	22040
853.645	21991
853.78	22158
853.914	21956
854.048	22048
854.183	22078
854.317	21972
854.451	22284
854.585	22010
854.72	22086
854.854	22169
854.988	21987
855.122	22093
855.256	22021
855.39	22116
855.524	22131
855.658	22086
855.792	22044
855.926	21987
856.06	22040
856.194	22158
856.327	21983
856.461	21956
856.595	22032
856.729	21949
856.862	22112
856.996	22044
857.13	22131
857.263	22135
857.397	22070
857.53	22112
857.664	22158
857.797	22048
857.931	22086
858.064	22010
858.197	22067
858.331	21865
858.464	21975
858.597	21945
858.731	22010
858.864	21934
858.997	21983
859.13	21953
859.263	22093
859.396	22128
859.529	22029
859.662	21857
859.795	21876
859.928	22021
860.061	22207
860.194	22185
860.327	22177
860.46	22090
860.592	22093
860.725	22048
860.858	22242
860.99	22105
861.123	21953
861.256	21911
861.388	22055
861.521	22698
861.653	21937
861.786	21778
861.918	21854
862.05	21907
862.183	21922
862.315	21918
862.447	22040
862.58	21911
862.712	21762
862.844	21804
862.976	21778
863.108	21766
863.24	22162
863.372	21705
863.504	21633
863.636	21713
863.768	21671
863.9	21819
864.032	21690
864.164	21583
864.296	21774
864.428	21968
864.559	21747
864.691	21785
864.823	21679
864.954	21701
865.086	21580
865.217	21682
865.349	21538
865.48	21656
865.612	21660
865.743	21785
865.875	21667
866.006	21549
866.137	21614
866.269	21667
866.4	21606
866.531	21614
866.662	21454
866.793	21568
866.924	21633
867.055	21492
867.186	21523
867.317	21553
867.448	21329
867.579	21511
867.71	21492
867.841	21504
867.972	21724
868.103	21545
868.233	21583
868.364	21625
868.495	21633
868.625	21850
868.756	21838
868.886	21660
869.017	21713
869.147	21983
869.278	21907
869.408	21797
869.539	21663
869.669	21793
869.799	21876
869.929	21835
870.06	21880
870.19	22166
870.32	22150
870.45	22070
870.58	22143
870.71	22268
870.84	22337
870.97	22173
871.1	22257
871.23	22382
871.36	22356
871.489	22363
871.619	22413
871.749	22352
871.879	22485
872.008	22596
872.138	22352
872.267	22303
872.397	22261
872.526	22135
872.656	22363
872.785	22249
872.915	22436
873.044	22436
873.173	22436
873.303	22497
873.432	22516
873.561	22459
873.69	22337
873.819	22405
873.948	22421
874.077	22352
874.206	22375
874.335	22493
874.464	22462
874.593	22611
874.722	22462
874.851	22565
874.979	22656
875.108	22656
875.237	22512
875.365	22436
875.494	22660
875.623	22664
875.751	22573
875.88	22641
876.008	22816
876.136	22767
876.265	22942
876.393	23056
876.521	22927
876.65	23113
876.778	23033
876.906	22934
877.034	22915
877.162	23022
877.29	22866
877.418	23098
877.546	23067
877.674	23003
877.802	22896
877.93	22900
878.058	22911
878.185	22862
878.313	22919
878.441	22908
878.568	22793
878.696	22904
878.824	22934
878.951	23003
879.079	23124
879.206	23303
879.333	23204
879.461	22961
879.588	23041
879.715	23155
879.842	23269
879.97	22949
880.097	22877
880.224	22763
880.351	22774
880.478	22786
880.605	22782
880.732	22793
880.859	22984
880.986	22965
881.112	22930
881.239	22634
881.366	22561
881.493	22481
881.619	22421
881.746	22314
881.872	22352
881.999	22287
882.125	22284
882.252	22318
882.378	22386
882.505	22299
882.631	22238
882.757	22021
882.883	22101
883.01	21930
883.136	22059
883.262	21838
883.388	21873
883.514	22051
883.64	22097
883.766	22090
883.892	21743
884.018	21899
884.143	22116
884.269	21972
884.395	21770
884.52	21637
884.646	21690
884.772	21603
884.897	21610
885.023	21690
885.148	21755
885.274	21835
885.399	21873
885.524	21717
885.65	21671
885.775	21759
885.9	21671
886.025	21778
886.15	21835
886.275	21641
886.4	21515
886.525	21519
886.65	21641
886.775	21542
886.9	21743
887.025	21972
887.149	21652
887.274	21557
887.399	21542
887.523	21530
887.648	21321
887.773	21313
887.897	21572
888.021	21428
888.146	21428
888.27	21492
888.395	21454
888.519	21431
888.643	21374
888.767	21561
888.891	21275
889.015	21260
889.139	21344
889.263	21317
889.387	21420
889.511	21325
889.635	21351
889.759	21188
889.883	21207
890.006	21211
890.13	21378
890.254	21260
890.377	21123
890.501	20956
890.624	20918
890.748	21058
890.871	20868
890.995	20807
891.118	20689
891.241	20902
891.364	20861
891.488	20796
891.611	20788
891.734	20754
891.857	20872
891.98	20861
892.103	20750
892.226	20724
892.349	20750
892.471	20594
892.594	20644
892.717	20724
892.839	20670
892.962	20655
893.085	20697
893.207	20651
893.33	20625
893.452	20514
893.575	20640
893.697	20712
893.819	20823
893.941	20990
894.064	20773
894.186	20575
894.308	20556
894.43	20785
894.552	20925
894.674	20800
894.796	20533
894.918	20678
895.04	20545
895.161	20765
895.283	20670
895.405	20583
895.526	20727
895.648	20651
895.769	20663
895.891	20678
896.012	20678
896.134	20758
896.255	20598
896.376	20564
896.498	20712
896.619	20655
896.74	20727
896.861	20674
896.982	21077
897.103	21093
897.224	20944
897.345	20834
897.466	20941
897.587	20864
897.708	21074
897.828	20956
897.949	20838
898.07	20735
898.19	20876
898.311	20956
898.431	20750
898.552	20906
898.672	20967
898.792	20921
898.913	20899
899.033	20823
899.153	20590
899.273	20560
899.393	20648
899.513	20686
899.633	20511
899.753	20651
899.873	20560
899.993	20621
900.113	20564
900.232	20541
900.352	20545
900.472	20492
900.591	20381
900.711	20328
900.83	20229
900.95	20427
901.069	20522
901.189	20202
901.308	19993
901.427	20001
901.546	19925
901.665	20020
901.784	20050
901.904	19788
902.023	19696
902.141	19510
902.26	19483
902.379	19525
902.498	19499
902.617	19365
902.735	19571
902.854	19259
902.973	19289
903.091	19263
903.21	19228
903.328	19114
903.446	19152
903.565	18977
903.683	18977
903.801	18776
903.919	18901
904.038	18928
904.156	18715
904.274	18696
904.392	18604
904.51	18623
904.627	18654
904.745	18772
904.863	18646
904.981	18490
905.098	18376
905.216	18475
905.334	18342
905.451	18350
905.569	18300
905.686	18330
905.803	18384
905.921	18114
906.038	18300
906.155	18194
906.272	18022
906.389	18053
906.506	17984
906.623	17878
906.74	17874
906.857	17927
906.974	17794
907.091	17870
907.208	17931
907.324	17908
907.441	17741
907.557	17551
907.674	17707
907.79	17573
907.907	17680
908.023	17600
908.139	17653
908.256	17589
908.372	17589
908.488	17406
908.604	17482
908.72	17246
908.836	17353
908.952	17379
909.068	17345
909.184	17341
909.3	17406
909.415	17337
909.531	17296
909.647	17090
909.762	16953
909.878	17006
909.993	17113
910.108	16991
910.224	16911
910.339	16957
910.454	16862
910.57	16889
910.685	16759
910.8	16949
910.915	16923
911.03	16965
911.145	16634
911.259	16584
911.374	16588
911.489	16489
911.604	16436
911.718	16265
911.833	16409
911.947	16223
912.062	16169
912.176	16333
912.291	16322
912.405	16443
912.519	16531
912.633	16573
912.748	16485
912.862	16382
912.976	16173
913.09	16097
913.204	16162
913.318	16093
913.431	16280
913.545	16287
913.659	16143
913.772	16162
913.886	16036
914	15994
914.113	16044
914.226	15956
914.34	15998
914.453	15709
914.566	15873
914.68	15663
914.793	15743
914.906	15534
915.019	15450
915.132	15431
915.245	15488
915.358	15507
915.47	15542
915.583	15568
915.696	15549
915.809	15599
915.921	15618
916.034	15568
916.146	15469
916.259	15336
916.371	15519
916.483	15447
916.595	15351
916.708	15336
916.82	15348
916.932	15245
917.044	15313
917.156	15367
917.268	15195
917.38	15142
917.491	15070
917.603	15097
917.715	15336
917.826	15165
917.938	15180
918.049	15028
918.161	15131
918.272	15192
918.384	15279
918.495	15039
918.606	14918
918.717	14944
918.828	14982
918.939	15066
919.05	14864
919.161	14998
919.272	14678
919.383	14701
919.494	14960
919.604	15138
919.715	14876
919.826	14765
919.936	14906
920.047	15013
920.157	14956
920.267	15005
920.378	14864
920.488	14743
920.598	15020
920.708	15161
920.818	15013
920.928	15051
921.038	15237
921.148	15150
921.258	14750
921.368	14697
921.477	14514
921.587	14533
921.697	14484
921.806	14697
921.916	14461
922.025	14278
922.134	14214
922.244	14244
922.353	14332
922.462	14149
922.571	14100
922.68	13902
922.789	13951
922.898	13906
923.007	13925
923.116	13906
923.224	13868
923.333	13814
923.442	13704
923.55	13696
923.659	13693
923.767	13689
923.876	13689
923.984	13772
924.092	13575
924.201	13708
924.309	13567
924.417	13807
924.525	13613
924.633	13582
924.741	14446
924.849	13377
924.956	13495
925.064	13365
925.172	13183
925.279	13228
925.387	13289
925.494	13266
925.602	13419
925.709	13331
925.816	13209
925.924	13198
926.031	13327
926.138	13270
926.245	13278
926.352	13133
926.459	13255
926.566	13339
926.673	13171
926.779	12989
926.886	13012
926.993	12817
927.099	12833
927.206	12817
927.312	12760
927.419	12837
927.525	12878
927.631	12856
927.737	12696
927.843	12730
927.95	12570
928.056	12623
928.162	12684
928.267	12749
928.373	13278
928.479	12779
928.585	12494
928.69	12635
928.796	12650
928.901	12460
929.007	12369
929.112	12471
929.218	12525
929.323	12422
929.428	12399
929.533	12536
929.638	12350
929.743	12350
929.848	12296
929.953	12277
930.058	12182
930.163	12041
930.267	12117
930.372	12201
930.477	11992
930.581	12270
930.685	12026
930.79	12030
930.894	11916
930.998	11901
931.103	12011
931.207	11668
931.311	11577
931.415	11512
931.519	11379
931.623	11288
