Data from test_V78500241_1511.txt Node
Date: Fri Mar 25 15:52:16 CST 2022
User: usil
Spectrometer: V785-0024
Trigger mode: 0
Integration Time (sec): 4.000000E-1
Scans to average: 1
Nonlinearity correction enabled: false
Boxcar width: 0
Storing dark spectrum: false
XAxis mode: Wavelengths
Number of Pixels in Spectrum: 1024
>>>>>Begin Spectral Data<<<<<
801.071	28021
801.214	27994
801.356	27766
801.499	27641
801.641	27553
801.783	27507
801.926	27679
802.068	27561
802.211	27526
802.353	27690
802.496	27359
802.638	27218
802.78	27260
802.923	27241
803.065	27119
803.208	27127
803.35	27351
803.492	27348
803.635	27439
803.777	27348
803.919	27416
804.061	27827
804.204	27679
804.346	27336
804.488	27332
804.63	27431
804.773	27439
804.915	27606
805.057	27583
805.199	27431
805.341	27618
805.483	27595
805.626	27572
805.768	27488
805.91	27709
806.052	27553
806.194	27485
806.336	27956
806.478	27564
806.62	27652
806.762	27835
806.904	27937
807.046	28090
807.188	27968
807.33	28051
807.472	28166
807.614	27884
807.756	28029
807.898	28055
808.04	27842
808.182	27892
808.324	27945
808.465	28063
808.607	28211
808.749	28382
808.891	28371
809.033	28466
809.174	28360
809.316	28276
809.458	28348
809.6	28215
809.741	28462
809.883	28497
810.025	28535
810.166	28538
810.308	28626
810.45	28611
810.591	28531
810.733	28223
810.875	28295
811.016	28200
811.158	28291
811.299	28318
811.441	28401
811.582	28386
811.724	28261
811.865	28177
812.007	28284
812.148	28215
812.29	28382
812.431	28398
812.573	28687
812.714	28637
812.855	28748
812.997	28839
813.138	28919
813.279	28965
813.421	28824
813.562	28740
813.703	28599
813.845	28516
813.986	28143
814.127	28097
814.268	27991
814.41	28010
814.551	27960
814.692	28093
814.833	27972
814.974	27949
815.115	28181
815.256	27979
815.397	27949
815.539	27892
815.68	27762
815.821	27667
815.962	27781
816.103	27751
816.244	27599
816.385	27622
816.526	27591
816.666	27313
816.807	27195
816.948	27348
817.089	27408
817.23	27370
817.371	27203
817.512	27374
817.653	27336
817.793	27161
817.934	27275
818.075	27325
818.216	27207
818.356	27230
818.497	27268
818.638	27066
818.778	26998
818.919	26982
819.06	27142
819.2	27104
819.341	27241
819.481	27386
819.622	27431
819.762	27587
819.903	27641
820.043	27408
820.184	27340
820.324	27405
820.465	27496
820.605	27378
820.746	27443
820.886	27188
821.026	27504
821.167	27233
821.307	27340
821.447	27382
821.588	27226
821.728	27131
821.868	26861
822.008	26705
822.149	26697
822.289	26651
822.429	26579
822.569	26301
822.709	26423
822.849	26267
822.99	26237
823.13	26130
823.27	26218
823.41	26119
823.55	26020
823.69	26069
823.83	26126
823.97	26012
824.11	25830
824.25	25811
824.389	25814
824.529	25875
824.669	25894
824.809	25978
824.949	25959
825.089	25974
825.228	25898
825.368	25795
825.508	25826
825.648	25738
825.787	25784
825.927	25807
826.067	25731
826.206	25791
826.346	25822
826.485	25845
826.625	25791
826.765	25803
826.904	25761
827.044	25563
827.183	25529
827.323	25499
827.462	25514
827.601	25369
827.741	25533
827.88	25518
828.02	25225
828.159	25346
828.298	25506
828.437	25521
828.577	25479
828.716	25502
828.855	25335
828.994	25118
829.134	25194
829.273	25278
829.412	25118
829.551	25057
829.69	25168
829.829	25133
829.968	25320
830.107	25324
830.246	25095
830.385	25171
830.524	25046
830.663	24989
830.802	24852
830.941	24783
831.08	24806
831.219	24806
831.357	24821
831.496	24814
831.635	24711
831.774	24791
831.913	24661
832.051	24547
832.19	24574
832.329	24646
832.467	24388
832.606	24448
832.744	24437
832.883	24338
833.022	24460
833.16	24494
833.299	24475
833.437	24376
833.576	24547
833.714	24509
833.852	24528
833.991	24486
834.129	24616
834.267	24597
834.406	24521
834.544	24410
834.682	24486
834.821	24467
834.959	24646
835.097	24464
835.235	24681
835.373	24456
835.511	24505
835.65	24357
835.788	24376
835.926	24270
836.064	24186
836.202	24197
836.34	24273
836.478	24315
836.615	24361
836.753	24365
836.891	24372
837.029	24365
837.167	24289
837.305	24110
837.443	24155
837.58	24060
837.718	24281
837.856	24361
837.993	24247
838.131	24186
838.269	24079
838.406	24121
838.544	23939
838.681	23916
838.819	23942
838.956	23733
839.094	23642
839.231	23615
839.369	23851
839.506	24053
839.643	23893
839.781	23722
839.918	23608
840.055	23646
840.193	23653
840.33	23478
840.467	23482
840.604	23520
840.742	23710
840.879	23486
841.016	23406
841.153	23349
841.29	23680
841.427	23581
841.564	23680
841.701	23623
841.838	23619
841.975	23398
842.112	23539
842.249	23349
842.385	23292
842.522	23478
842.659	23425
842.796	23242
842.933	23322
843.069	23277
843.206	23261
843.343	23307
843.479	23318
843.616	23345
843.752	23022
843.889	23178
844.025	23239
844.162	23155
844.298	23181
844.435	23102
844.571	23014
844.708	23083
844.844	23242
844.98	23124
845.117	23277
845.253	23022
845.389	22976
845.525	22938
845.661	22816
845.798	22786
845.934	22930
846.07	22790
846.206	22847
846.342	22805
846.478	22797
846.614	22729
846.75	22413
846.886	22580
847.022	22694
847.158	22504
847.294	22500
847.429	22626
847.565	22550
847.701	22679
847.837	22306
847.972	22314
848.108	22333
848.244	22405
848.379	22166
848.515	22158
848.65	22162
848.786	22150
848.921	22253
849.057	22204
849.192	22215
849.328	22173
849.463	22242
849.598	22150
849.734	22029
849.869	21934
850.004	21873
850.14	21953
850.275	21903
850.41	21743
850.545	21774
850.68	21739
850.815	22021
850.95	21949
851.085	22021
851.22	21991
851.355	21907
851.49	21793
851.625	21800
851.76	21911
851.895	21778
852.03	21865
852.165	21884
852.299	21888
852.434	21937
852.569	21983
852.703	21964
852.838	21918
852.973	21968
853.107	22002
853.242	21793
853.376	21797
853.511	21534
853.645	21743
853.78	21785
853.914	21663
854.048	21599
854.183	21755
854.317	21770
854.451	21865
854.585	21660
854.72	21762
854.854	21808
854.988	21694
855.122	21778
855.256	21614
855.39	21728
855.524	21812
855.658	21766
855.792	21705
855.926	21667
856.06	21774
856.194	21785
856.327	21682
856.461	21587
856.595	21625
856.729	21751
856.862	21835
856.996	21648
857.13	21774
857.263	21827
857.397	21804
857.53	21690
857.664	21644
857.797	21732
857.931	21789
858.064	21743
858.197	21911
858.331	21751
858.464	21671
858.597	21583
858.731	21641
858.864	21629
858.997	21705
859.13	21713
859.263	21755
859.396	21869
859.529	21709
859.662	21580
859.795	21603
859.928	21667
860.061	21861
860.194	21968
860.327	21816
860.46	21637
860.592	21819
860.725	21941
860.858	21762
860.99	21690
861.123	21800
861.256	21709
861.388	21778
861.521	22268
861.653	21511
861.786	21481
861.918	21564
862.05	21637
862.183	21663
862.315	21633
862.447	21698
862.58	21530
862.712	21481
862.844	21507
862.976	21473
863.108	21450
863.24	21861
863.372	21367
863.504	21519
863.636	21534
863.768	21435
863.9	21397
864.032	21351
864.164	21416
864.296	21428
864.428	21469
864.559	21504
864.691	21408
864.823	21355
864.954	21424
865.086	21462
865.217	21412
865.349	21348
865.48	21272
865.612	21260
865.743	21428
865.875	21329
866.006	21359
866.137	21431
866.269	21272
866.4	21298
866.531	21279
866.662	21146
866.793	21176
866.924	21294
867.055	21344
867.186	21252
867.317	21180
867.448	21066
867.579	21245
867.71	21176
867.841	21108
867.972	21230
868.103	21222
868.233	21355
868.364	21298
868.495	21245
868.625	21443
868.756	21622
868.886	21462
869.017	21656
869.147	21606
869.278	21637
869.408	21485
869.539	21496
869.669	21564
869.799	21511
869.929	21622
870.06	21709
870.19	21762
870.32	21717
870.45	21895
870.58	21827
870.71	22021
870.84	21937
870.97	21876
871.1	21850
871.23	22063
871.36	22002
871.489	22006
871.619	22082
871.749	22082
871.879	22139
872.008	22154
872.138	22162
872.267	22032
872.397	21892
872.526	21903
872.656	21983
872.785	21915
872.915	22101
873.044	22223
873.173	22082
873.303	22048
873.432	22147
873.561	22154
873.69	22116
873.819	22192
873.948	22093
874.077	22067
874.206	22067
874.335	22040
874.464	22177
874.593	22200
874.722	22371
874.851	22489
874.979	22371
875.108	22356
875.237	22356
875.365	22234
875.494	22192
875.623	22409
875.751	22147
875.88	22367
876.008	22451
876.136	22596
876.265	22679
876.393	22824
876.521	22759
876.65	22877
876.778	22721
876.906	22656
877.034	22675
877.162	22733
877.29	22687
877.418	22660
877.546	22710
877.674	22828
877.802	22706
877.93	22691
878.058	22596
878.185	22497
878.313	22691
878.441	22736
878.568	22535
878.696	22546
878.824	22767
878.951	22748
879.079	22881
879.206	22938
879.333	22752
879.461	22717
879.588	22702
879.715	22896
879.842	22946
879.97	22790
880.097	22443
880.224	22436
880.351	22546
880.478	22485
880.605	22386
880.732	22417
880.859	22656
880.986	22569
881.112	22634
881.239	22489
881.366	22284
881.493	22090
881.619	22169
881.746	22109
881.872	22128
881.999	22059
882.125	21994
882.252	22048
882.378	22097
882.505	22097
882.631	21850
882.757	21861
882.883	21781
883.01	21751
883.136	21766
883.262	21583
883.388	21504
883.514	21835
883.64	21869
883.766	21759
883.892	21572
884.018	21557
884.143	21781
884.269	21850
884.395	21481
884.52	21420
884.646	21393
884.772	21351
884.897	21260
885.023	21363
885.148	21378
885.274	21614
885.399	21545
885.524	21310
885.65	21405
885.775	21382
885.9	21275
886.025	21462
886.15	21462
886.275	21306
886.4	21355
886.525	21336
886.65	21367
886.775	21211
886.9	21469
887.025	21580
887.149	21344
887.274	21218
887.399	21127
887.523	21222
887.648	21039
887.773	21039
887.897	21272
888.021	21287
888.146	21131
888.27	21310
888.395	21275
888.519	21093
888.643	21028
888.767	21192
888.891	21131
889.015	21051
889.139	21108
889.263	20952
889.387	21135
889.511	21310
889.635	21146
889.759	20921
889.883	20933
890.006	21058
890.13	21058
890.254	20910
890.377	20845
890.501	20739
890.624	20644
890.748	20716
890.871	20609
890.995	20473
891.118	20419
891.241	20503
891.364	20545
891.488	20648
891.611	20617
891.734	20564
891.857	20575
891.98	20613
892.103	20541
892.226	20518
892.349	20511
892.471	20415
892.594	20507
892.717	20415
892.839	20400
892.962	20454
893.085	20495
893.207	20400
893.33	20366
893.452	20301
893.575	20484
893.697	20412
893.819	20636
893.941	20556
894.064	20480
894.186	20309
894.308	20305
894.43	20537
894.552	20499
894.674	20541
894.796	20221
894.918	20404
895.04	20400
895.161	20461
895.283	20533
895.405	20278
895.526	20415
895.648	20476
895.769	20438
895.891	20526
896.012	20514
896.134	20476
896.255	20450
896.376	20450
896.498	20385
896.619	20480
896.74	20320
896.861	20427
896.982	20769
897.103	20800
897.224	20689
897.345	20754
897.466	20549
897.587	20697
897.708	20804
897.828	20686
897.949	20583
898.07	20488
898.19	20590
898.311	20807
898.431	20697
898.552	20670
898.672	20712
898.792	20602
898.913	20606
899.033	20587
899.153	20541
899.273	20180
899.393	20252
899.513	20282
899.633	20309
899.753	20324
899.873	20351
899.993	20431
900.113	20199
900.232	20484
900.352	20438
900.472	20240
900.591	20130
900.711	20088
900.83	20062
900.95	20305
901.069	20214
901.189	20100
901.308	19791
901.427	19765
901.546	19742
901.665	19696
901.784	19757
901.904	19693
902.023	19502
902.141	19339
902.26	19335
902.379	19327
902.498	19278
902.617	19221
902.735	19274
902.854	19164
902.973	19168
903.091	18977
903.21	18920
903.328	18920
903.446	18760
903.565	18665
903.683	18707
903.801	18513
903.919	18627
904.038	18646
904.156	18582
904.274	18517
904.392	18456
904.51	18448
904.627	18426
904.745	18433
904.863	18429
904.981	18258
905.098	18194
905.216	18121
905.334	18232
905.451	18220
905.569	18072
905.686	18125
905.803	18136
905.921	17931
906.038	17946
906.155	18038
906.272	17687
906.389	17901
906.506	17573
906.623	17779
906.74	17653
906.857	17535
906.974	17581
907.091	17638
907.208	17786
907.324	17737
907.441	17596
907.557	17482
907.674	17448
907.79	17258
907.907	17368
908.023	17349
908.139	17459
908.256	17318
908.372	17345
908.488	17178
908.604	17197
908.72	16999
908.836	17060
908.952	17083
909.068	17132
909.184	17208
909.3	17208
909.415	17079
909.531	16987
909.647	16889
909.762	16812
909.878	16854
909.993	16782
910.108	16850
910.224	16854
910.339	16748
910.454	16664
910.57	16561
910.685	16508
910.8	16637
910.915	16691
911.03	16691
911.145	16455
911.259	16462
911.374	16413
911.489	16253
911.604	16207
911.718	16196
911.833	16173
911.947	16017
912.062	15968
912.176	16162
912.291	16112
912.405	16181
912.519	16303
912.633	16306
912.748	16211
912.862	16131
912.976	16116
913.09	15869
913.204	15857
913.318	15937
913.431	16135
913.545	16082
913.659	15991
913.772	15880
913.886	15835
914	15785
914.113	15838
914.226	15880
914.34	15842
914.453	15720
914.566	15755
914.68	15629
914.793	15584
914.906	15367
915.019	15351
915.132	15298
915.245	15313
915.358	15302
915.47	15386
915.583	15401
915.696	15420
915.809	15458
915.921	15492
916.034	15325
916.146	15279
916.259	15157
916.371	15252
916.483	15317
916.595	15237
916.708	15245
916.82	15146
916.932	15066
917.044	15001
917.156	15127
917.268	14933
917.38	15047
917.491	15032
917.603	14982
917.715	15085
917.826	15077
917.938	14876
918.049	14788
918.161	14910
918.272	15017
918.384	15097
918.495	14979
918.606	14815
918.717	14651
918.828	14807
918.939	14807
919.05	14670
919.161	14746
919.272	14575
919.383	14537
919.494	14796
919.604	14914
919.715	14804
919.826	14606
919.936	14644
920.047	14792
920.157	14697
920.267	14857
920.378	14754
920.488	14667
920.598	14880
920.708	14982
920.818	14883
920.928	14941
921.038	15100
921.148	14952
921.258	14663
921.368	14575
921.477	14393
921.587	14419
921.697	14332
921.806	14396
921.916	14164
922.025	14115
922.134	14035
922.244	14027
922.353	14126
922.462	13982
922.571	13917
922.68	13761
922.789	13746
922.898	13715
923.007	13685
923.116	13693
923.224	13594
923.333	13727
923.442	13586
923.55	13662
923.659	13597
923.767	13559
923.876	13525
923.984	13582
924.092	13472
924.201	13411
924.309	13457
924.417	13460
924.525	13426
924.633	13441
924.741	14282
924.849	13209
924.956	13225
925.064	13179
925.172	13053
925.279	13099
925.387	13160
925.494	13110
925.602	13350
925.709	13266
925.816	13069
925.924	13012
926.031	13244
926.138	13168
926.245	13168
926.352	12973
926.459	13160
926.566	13080
926.673	13034
926.779	12863
926.886	12913
926.993	12795
927.099	12673
927.206	12692
927.312	12681
927.419	12787
927.525	12719
927.631	12688
927.737	12627
927.843	12608
927.95	12441
928.056	12517
928.162	12612
928.267	12551
928.373	13114
928.479	12551
928.585	12357
928.69	12559
928.796	12551
928.901	12426
929.007	12342
929.112	12380
929.218	12384
929.323	12197
929.428	12292
929.533	12376
929.638	12319
929.743	12239
929.848	12228
929.953	12224
930.058	12102
930.163	12007
930.267	11950
930.372	12072
930.477	11927
930.581	12235
930.685	11965
930.79	11832
930.894	11855
930.998	11882
931.103	12026
931.207	11615
931.311	11448
931.415	11368
931.519	11147
931.623	11201
