Data from test_V78500241_2657.txt Node
Date: Fri Mar 25 16:00:12 CST 2022
User: usil
Spectrometer: V785-0024
Trigger mode: 0
Integration Time (sec): 4.000000E-1
Scans to average: 1
Nonlinearity correction enabled: false
Boxcar width: 0
Storing dark spectrum: false
XAxis mode: Wavelengths
Number of Pixels in Spectrum: 1024
>>>>>Begin Spectral Data<<<<<
801.071	28653
801.214	28626
801.356	28478
801.499	28329
801.641	28451
801.783	28173
801.926	28398
802.068	28405
802.211	28310
802.353	28265
802.496	27949
802.638	27922
802.78	28044
802.923	27869
803.065	27922
803.208	27835
803.35	27926
803.492	28196
803.635	28299
803.777	28150
803.919	28246
804.061	28519
804.204	28344
804.346	28120
804.488	28116
804.63	28192
804.773	28158
804.915	28341
805.057	28405
805.199	28177
805.341	28322
805.483	28523
805.626	28341
805.768	28196
805.91	28329
806.052	28428
806.194	28390
806.336	28500
806.478	28447
806.62	28318
806.762	28557
806.904	28672
807.046	28881
807.188	28843
807.33	28782
807.472	28953
807.614	28736
807.756	28801
807.898	28725
808.04	28580
808.182	28634
808.324	28774
808.465	28953
808.607	28961
808.749	29037
808.891	29239
809.033	29284
809.174	29037
809.316	29041
809.458	28980
809.6	28934
809.741	29102
809.883	29303
810.025	29322
810.166	29429
810.308	29425
810.45	29406
810.591	29136
810.733	29174
810.875	29090
811.016	28946
811.158	28949
811.299	29151
811.441	29235
811.582	29166
811.724	29075
811.865	28987
812.007	29098
812.148	29071
812.29	29048
812.431	29337
812.573	29307
812.714	29505
812.855	29547
812.997	29805
813.138	29710
813.279	29722
813.421	29676
813.562	29535
813.703	29455
813.845	29284
813.986	29060
814.127	28949
814.268	28767
814.41	28778
814.551	28831
814.692	28759
814.833	28736
814.974	28519
815.115	28752
815.256	28634
815.397	28702
815.539	28698
815.68	28584
815.821	28542
815.962	28733
816.103	28596
816.244	28432
816.385	28303
816.526	28390
816.666	28261
816.807	28192
816.948	28219
817.089	28299
817.23	28211
817.371	28166
817.512	28070
817.653	28101
817.793	28181
817.934	27926
818.075	28112
818.216	28082
818.356	27994
818.497	28048
818.638	27884
818.778	28044
818.919	27884
819.06	27934
819.2	28021
819.341	28074
819.481	28029
819.622	28211
819.762	28523
819.903	28242
820.043	28348
820.184	28356
820.324	28284
820.465	28409
820.605	28287
820.746	28181
820.886	28055
821.026	28093
821.167	28082
821.307	28401
821.447	28185
821.588	28181
821.728	27934
821.868	27728
822.008	27717
822.149	27648
822.289	27469
822.429	27348
822.569	27359
822.709	27226
822.849	27272
822.99	27047
823.13	27104
823.27	27123
823.41	26982
823.55	26811
823.69	26982
823.83	26921
823.97	26838
824.11	26746
824.25	26743
824.389	26883
824.529	26743
824.669	26697
824.809	26887
824.949	26727
825.089	26853
825.228	26640
825.368	26648
825.508	26602
825.648	26674
825.787	26545
825.927	26697
826.067	26731
826.206	26617
826.346	26644
826.485	26606
826.625	26568
826.765	26811
826.904	26613
827.044	26473
827.183	26453
827.323	26404
827.462	26396
827.601	26355
827.741	26370
827.88	26290
828.02	26267
828.159	26275
828.298	26404
828.437	26370
828.577	26172
828.716	26465
828.855	26244
828.994	26100
829.134	26008
829.273	26016
829.412	25944
829.551	25864
829.69	25974
829.829	26092
829.968	26054
830.107	25974
830.246	26001
830.385	25959
830.524	25986
830.663	25845
830.802	25677
830.941	25742
831.08	25620
831.219	25734
831.357	25727
831.496	25803
831.635	25693
831.774	25643
831.913	25502
832.051	25426
832.19	25316
832.329	25449
832.467	25293
832.606	25171
832.744	25198
832.883	25247
833.022	25194
833.16	25449
833.299	25400
833.437	25381
833.576	25403
833.714	25297
833.852	25365
833.991	25472
834.129	25419
834.267	25434
834.406	25377
834.544	25438
834.682	25411
834.821	25434
834.959	25483
835.097	25232
835.235	25381
835.373	25400
835.511	25407
835.65	25206
835.788	25278
835.926	25088
836.064	25053
836.202	25012
836.34	25225
836.478	25354
836.615	25251
836.753	25122
836.891	25190
837.029	25225
837.167	25202
837.305	25118
837.443	25099
837.58	24924
837.718	25050
837.856	25076
837.993	24958
838.131	24973
838.269	24715
838.406	25008
838.544	24867
838.681	24753
838.819	24658
838.956	24532
839.094	24528
839.231	24585
839.369	24631
839.506	24890
839.643	24677
839.781	24418
839.918	24334
840.055	24502
840.193	24479
840.33	24338
840.467	24456
840.604	24509
840.742	24620
840.879	24205
841.016	24239
841.153	24308
841.29	24433
841.427	24532
841.564	24410
841.701	24528
841.838	24289
841.975	24334
842.112	24300
842.249	24273
842.385	24053
842.522	24467
842.659	24262
842.796	24247
842.933	24079
843.069	24114
843.206	24178
843.343	24114
843.479	24152
843.616	24114
843.752	23946
843.889	23958
844.025	24087
844.162	23992
844.298	24018
844.435	23908
844.571	23870
844.708	23882
844.844	24041
844.98	23999
845.117	23939
845.253	23843
845.389	23752
845.525	23828
845.661	23646
845.798	23646
845.934	23642
846.07	23745
846.206	23619
846.342	23882
846.478	23638
846.614	23444
846.75	23326
846.886	23436
847.022	23535
847.158	23474
847.294	23345
847.429	23444
847.565	23395
847.701	23528
847.837	23071
847.972	23098
848.108	23174
848.244	23242
848.379	23094
848.515	22923
848.65	22968
848.786	22930
848.921	23003
849.057	23048
849.192	23048
849.328	23086
849.463	22896
849.598	22889
849.734	22759
849.869	22774
850.004	22698
850.14	22816
850.275	22702
850.41	22713
850.545	22679
850.68	22672
850.815	22801
850.95	22675
851.085	23018
851.22	22877
851.355	22843
851.49	22744
851.625	22767
851.76	22729
851.895	22710
852.03	22774
852.165	22698
852.299	22774
852.434	22782
852.569	22831
852.703	22774
852.838	22733
852.973	22771
853.107	22839
853.242	22793
853.376	22565
853.511	22664
853.645	22542
853.78	22694
853.914	22588
854.048	22577
854.183	22504
854.317	22527
854.451	22801
854.585	22596
854.72	22516
854.854	22626
854.988	22565
855.122	22557
855.256	22405
855.39	22519
855.524	22527
855.658	22588
855.792	22538
855.926	22672
856.06	22573
856.194	22656
856.327	22500
856.461	22440
856.595	22500
856.729	22634
856.862	22698
856.996	22641
857.13	22630
857.263	22725
857.397	22664
857.53	22538
857.664	22577
857.797	22656
857.931	22672
858.064	22573
858.197	22691
858.331	22508
858.464	22493
858.597	22432
858.731	22424
858.864	22573
858.997	22615
859.13	22592
859.263	22542
859.396	22710
859.529	22542
859.662	22500
859.795	22565
859.928	22675
860.061	22691
860.194	22889
860.327	22740
860.46	22596
860.592	22736
860.725	22771
860.858	22668
860.99	22550
861.123	22470
861.256	22565
861.388	22618
861.521	23197
861.653	22516
861.786	22390
861.918	22466
862.05	22497
862.183	22561
862.315	22580
862.447	22557
862.58	22573
862.712	22337
862.844	22192
862.976	22417
863.108	22398
863.24	22577
863.372	22253
863.504	22314
863.636	22246
863.768	22303
863.9	22303
864.032	22287
864.164	22265
864.296	22306
864.428	22409
864.559	22402
864.691	22306
864.823	22348
864.954	22284
865.086	22287
865.217	22371
865.349	22086
865.48	22139
865.612	22128
865.743	22322
865.875	22344
866.006	22078
866.137	22219
866.269	22173
866.4	22101
866.531	22067
866.662	22044
866.793	21998
866.924	22010
867.055	22017
867.186	22048
867.317	22044
867.448	22109
867.579	22128
867.71	22051
867.841	22029
867.972	22010
868.103	21922
868.233	22154
868.364	22070
868.495	22143
868.625	22367
868.756	22382
868.886	22291
869.017	22173
869.147	22440
869.278	22470
869.408	22318
869.539	22287
869.669	22546
869.799	22348
869.929	22527
870.06	22417
870.19	22668
870.32	22630
870.45	22698
870.58	22687
870.71	22809
870.84	22881
870.97	22809
871.1	22752
871.23	22839
871.36	22896
871.489	22793
871.619	22862
871.749	23037
871.879	22938
872.008	22946
872.138	22877
872.267	23014
872.397	22824
872.526	22782
872.656	22672
872.785	22748
872.915	22987
873.044	22965
873.173	22919
873.303	22976
873.432	23071
873.561	23033
873.69	22892
873.819	22987
873.948	22885
874.077	23037
874.206	22835
874.335	22892
874.464	23048
874.593	23041
874.722	23181
874.851	23132
874.979	23223
875.108	23231
875.237	23098
875.365	23140
875.494	23155
875.623	23242
875.751	23258
875.88	23231
876.008	23227
876.136	23364
876.265	23611
876.393	23737
876.521	23691
876.65	23554
876.778	23554
876.906	23543
877.034	23398
877.162	23482
877.29	23505
877.418	23486
877.546	23463
877.674	23501
877.802	23433
877.93	23474
878.058	23406
878.185	23467
878.313	23463
878.441	23459
878.568	23269
878.696	23395
878.824	23566
878.951	23524
879.079	23634
879.206	23931
879.333	23786
879.461	23471
879.588	23554
879.715	23718
879.842	23783
879.97	23630
880.097	23292
880.224	23299
880.351	23296
880.478	23414
880.605	23376
880.732	23292
880.859	23619
880.986	23296
881.112	23356
881.239	23151
881.366	23022
881.493	22965
881.619	22911
881.746	22847
881.872	22911
881.999	22858
882.125	22984
882.252	22968
882.378	22869
882.505	22904
882.631	22698
882.757	22607
882.883	22660
883.01	22542
883.136	22489
883.262	22421
883.388	22360
883.514	22573
883.64	22599
883.766	22466
883.892	22382
884.018	22303
884.143	22478
884.269	22516
884.395	22299
884.52	22082
884.646	22295
884.772	22185
884.897	22112
885.023	22116
885.148	22223
885.274	22299
885.399	22299
885.524	22116
885.65	22318
885.775	22204
885.9	22150
886.025	22424
886.15	22200
886.275	22120
886.4	22010
886.525	22204
886.65	22135
886.775	22188
886.9	22299
887.025	22413
887.149	22196
887.274	21930
887.399	21998
887.523	22040
887.648	21930
887.773	21766
887.897	22120
888.021	22074
888.146	21926
888.27	22093
888.395	22021
888.519	22029
888.643	22048
888.767	21987
888.891	21907
889.015	21709
889.139	21857
889.263	21648
889.387	21876
889.511	21926
889.635	21808
889.759	21709
889.883	21804
890.006	21762
890.13	21686
890.254	21679
890.377	21732
890.501	21431
890.624	21477
890.748	21492
890.871	21382
890.995	21329
891.118	21176
891.241	21310
891.364	21344
891.488	21374
891.611	21294
891.734	21287
891.857	21378
891.98	21302
892.103	21367
892.226	21237
892.349	21252
892.471	21066
892.594	21245
892.717	21081
892.839	21173
892.962	21252
893.085	21249
893.207	21291
893.33	21085
893.452	21108
893.575	21237
893.697	21119
893.819	21386
893.941	21359
894.064	21268
894.186	21195
894.308	21055
894.43	21203
894.552	21237
894.674	21108
894.796	21096
894.918	21203
895.04	21058
895.161	21154
895.283	21173
895.405	21100
895.526	21081
895.648	21161
895.769	21195
895.891	21298
896.012	21138
896.134	21340
896.255	21108
896.376	21146
896.498	21180
896.619	21096
896.74	21176
896.861	21214
896.982	21477
897.103	21500
897.224	21488
897.345	21473
897.466	21439
897.587	21313
897.708	21477
897.828	21264
897.949	21378
898.07	21188
898.19	21252
898.311	21367
898.431	21359
898.552	21378
898.672	21397
898.792	21344
898.913	21336
899.033	21165
899.153	21154
899.273	21173
899.393	21169
899.513	21039
899.633	21127
899.753	21028
899.873	20925
899.993	21211
900.113	20963
900.232	20887
900.352	20933
900.472	20963
900.591	20876
900.711	20777
900.83	20727
900.95	21055
901.069	20952
901.189	20746
901.308	20571
901.427	20389
901.546	20419
901.665	20400
901.784	20385
901.904	20263
902.023	20252
902.141	20020
902.26	19906
902.379	20024
902.498	19921
902.617	19906
902.735	19883
902.854	19845
902.973	19928
903.091	19571
903.21	19453
903.328	19537
903.446	19506
903.565	19441
903.683	19247
903.801	19206
903.919	19293
904.038	19339
904.156	19156
904.274	19179
904.392	19103
904.51	19156
904.627	19084
904.745	19160
904.863	19114
904.981	18947
905.098	18692
905.216	18882
905.334	18856
905.451	18795
905.569	18753
905.686	18882
905.803	18779
905.921	18608
906.038	18730
906.155	18578
906.272	18582
906.389	18551
906.506	18369
906.623	18426
906.74	18330
906.857	18174
906.974	18190
907.091	18273
907.208	18422
907.324	18330
907.441	18273
907.557	18041
907.674	17958
907.79	17904
907.907	18060
908.023	18098
908.139	18011
908.256	17988
908.372	17980
908.488	17901
908.604	17771
908.72	17760
908.836	17741
908.952	17748
909.068	17729
909.184	17733
909.3	17714
909.415	17775
909.531	17805
909.647	17414
909.762	17463
909.878	17474
909.993	17425
910.108	17421
910.224	17482
910.339	17299
910.454	17273
910.57	17246
910.685	17162
910.8	17463
910.915	17318
911.03	17204
911.145	17056
911.259	16991
911.374	16980
911.489	16869
911.604	16904
911.718	16721
911.833	16752
911.947	16691
912.062	16611
912.176	16820
912.291	16736
912.405	16755
912.519	16911
912.633	16930
912.748	16790
912.862	16748
912.976	16615
913.09	16474
913.204	16474
913.318	16523
913.431	16656
913.545	16752
913.659	16607
913.772	16447
913.886	16379
914	16337
914.113	16390
914.226	16352
914.34	16398
914.453	16223
914.566	16379
914.68	16310
914.793	16280
914.906	16051
915.019	15953
915.132	15857
915.245	15892
915.358	15915
915.47	15873
915.583	15953
915.696	15915
915.809	16006
915.921	15975
916.034	15850
916.146	15892
916.259	15747
916.371	15949
916.483	15785
916.595	15838
916.708	15869
916.82	15599
916.932	15755
917.044	15766
917.156	15701
917.268	15507
917.38	15652
917.491	15568
917.603	15450
917.715	15557
917.826	15542
917.938	15507
918.049	15313
918.161	15473
918.272	15629
918.384	15584
918.495	15469
918.606	15378
918.717	15211
918.828	15313
918.939	15359
919.05	15329
919.161	15214
919.272	15081
919.383	15108
919.494	15355
919.604	15485
919.715	15344
919.826	15123
919.936	15203
920.047	15249
920.157	15211
920.267	15374
920.378	15245
920.488	15211
920.598	15310
920.708	15507
920.818	15367
920.928	15408
921.038	15682
921.148	15488
921.258	15154
921.368	15097
921.477	14960
921.587	14948
921.697	14868
921.806	14941
921.916	14887
922.025	14724
922.134	14602
922.244	14507
922.353	14617
922.462	14537
922.571	14381
922.68	14252
922.789	14244
922.898	14259
923.007	14206
923.116	14298
923.224	14263
923.333	14138
923.442	14111
923.55	14020
923.659	14145
923.767	14161
923.876	14039
923.984	14183
924.092	13875
924.201	14054
924.309	14062
924.417	13921
924.525	13978
924.633	13963
924.741	14834
924.849	13727
924.956	13803
925.064	13696
925.172	13681
925.279	13643
925.387	13628
925.494	13677
925.602	13769
925.709	13655
925.816	13609
925.924	13556
926.031	13582
926.138	13544
926.245	13639
926.352	13514
926.459	13601
926.566	13643
926.673	13472
926.779	13339
926.886	13373
926.993	13263
927.099	13126
927.206	13198
927.312	13160
927.419	13171
927.525	13255
927.631	13190
927.737	13099
927.843	13088
927.95	12943
928.056	13023
928.162	13008
928.267	13061
928.373	13556
928.479	13046
928.585	12783
928.69	12878
928.796	12985
928.901	12825
929.007	12665
929.112	12798
929.218	12833
929.323	12715
929.428	12642
929.533	12814
929.638	12593
929.743	12673
929.848	12677
929.953	12707
930.058	12627
930.163	12353
930.267	12418
930.372	12483
930.477	12376
930.581	12616
930.685	12464
930.79	12129
930.894	12251
930.998	12186
931.103	12456
931.207	12003
931.311	11939
931.415	11855
931.519	11551
931.623	11623
