Data from test_V78500241_2465.txt Node
Date: Fri Mar 25 15:58:52 CST 2022
User: usil
Spectrometer: V785-0024
Trigger mode: 0
Integration Time (sec): 4.000000E-1
Scans to average: 1
Nonlinearity correction enabled: false
Boxcar width: 0
Storing dark spectrum: false
XAxis mode: Wavelengths
Number of Pixels in Spectrum: 1024
>>>>>Begin Spectral Data<<<<<
801.071	28793
801.214	28725
801.356	28481
801.499	28375
801.641	28238
801.783	28211
801.926	28284
802.068	28306
802.211	28200
802.353	28044
802.496	28093
802.638	27914
802.78	27759
802.923	28010
803.065	27808
803.208	27876
803.35	27884
803.492	28238
803.635	28150
803.777	28135
803.919	28139
804.061	28478
804.204	28337
804.346	28135
804.488	28097
804.63	28272
804.773	28261
804.915	28360
805.057	28303
805.199	28226
805.341	28303
805.483	28314
805.626	28375
805.768	28299
805.91	28443
806.052	28363
806.194	28375
806.336	28421
806.478	28382
806.62	28375
806.762	28542
806.904	28622
807.046	28778
807.188	28774
807.33	28854
807.472	28892
807.614	28812
807.756	28812
807.898	28660
808.04	28580
808.182	28592
808.324	28683
808.465	28854
808.607	28763
808.749	29071
808.891	29170
809.033	29261
809.174	29098
809.316	29090
809.458	28984
809.6	29037
809.741	29151
809.883	29280
810.025	29299
810.166	29239
810.308	29318
810.45	29227
810.591	29155
810.733	29162
810.875	29079
811.016	28824
811.158	28923
811.299	29033
811.441	29223
811.582	29227
811.724	29029
811.865	28976
812.007	28908
812.148	29067
812.29	29102
812.431	29132
812.573	29353
812.714	29395
812.855	29672
812.997	29634
813.138	29798
813.279	29741
813.421	29596
813.562	29676
813.703	29459
813.845	29280
813.986	28911
814.127	28786
814.268	28679
814.41	28835
814.551	28721
814.692	28717
814.833	28573
814.974	28759
815.115	28854
815.256	28679
815.397	28500
815.539	28516
815.68	28645
815.821	28447
815.962	28588
816.103	28561
816.244	28561
816.385	28363
816.526	28314
816.666	28261
816.807	28074
816.948	28188
817.089	28067
817.23	28082
817.371	27994
817.512	28090
817.653	27960
817.793	27991
817.934	27964
818.075	28131
818.216	28131
818.356	27869
818.497	28013
818.638	27819
818.778	27854
818.919	27857
819.06	27854
819.2	27914
819.341	28120
819.481	28067
819.622	28109
819.762	28375
819.903	28303
820.043	28291
820.184	28090
820.324	28166
820.465	28238
820.605	28150
820.746	28268
820.886	28013
821.026	28097
821.167	28162
821.307	28109
821.447	28207
821.588	28021
821.728	27873
821.868	27781
822.008	27648
822.149	27622
822.289	27629
822.429	27222
822.569	27176
822.709	27329
822.849	27089
822.99	26986
823.13	27184
823.27	27074
823.41	26929
823.55	26762
823.69	26952
823.83	26914
823.97	26872
824.11	26735
824.25	26777
824.389	26636
824.529	26876
824.669	26819
824.809	26880
824.949	26727
825.089	26876
825.228	26640
825.368	26549
825.508	26655
825.648	26636
825.787	26640
825.927	26716
826.067	26526
826.206	26617
826.346	26781
826.485	26598
826.625	26678
826.765	26788
826.904	26674
827.044	26442
827.183	26484
827.323	26377
827.462	26400
827.601	26351
827.741	26240
827.88	26453
828.02	26202
828.159	26202
828.298	26347
828.437	26438
828.577	26259
828.716	26362
828.855	26176
828.994	26024
829.134	25944
829.273	26149
829.412	25993
829.551	25856
829.69	26027
829.829	26035
829.968	26073
830.107	26084
830.246	26050
830.385	26046
830.524	25921
830.663	25837
830.802	25727
830.941	25655
831.08	25578
831.219	25597
831.357	25563
831.496	25864
831.635	25586
831.774	25457
831.913	25548
832.051	25449
832.19	25518
832.329	25293
832.467	25312
832.606	25255
832.744	25244
832.883	25099
833.022	25213
833.16	25400
833.299	25301
833.437	25354
833.576	25403
833.714	25479
833.852	25499
833.991	25419
834.129	25400
834.267	25312
834.406	25495
834.544	25415
834.682	25301
834.821	25213
834.959	25518
835.097	25335
835.235	25441
835.373	25324
835.511	25285
835.65	25118
835.788	25194
835.926	25206
836.064	25072
836.202	24905
836.34	25251
836.478	25278
836.615	25179
836.753	25088
836.891	25175
837.029	25118
837.167	25084
837.305	25137
837.443	24981
837.58	24924
837.718	24981
837.856	25076
837.993	24932
838.131	24821
838.269	24913
838.406	24897
838.544	24772
838.681	24612
838.819	24601
838.956	24456
839.094	24403
839.231	24399
839.369	24566
839.506	24783
839.643	24776
839.781	24429
839.918	24361
840.055	24429
840.193	24346
840.33	24323
840.467	24486
840.604	24388
840.742	24646
840.879	24220
841.016	24357
841.153	24224
841.29	24353
841.427	24399
841.564	24452
841.701	24388
841.838	24273
841.975	24327
842.112	24262
842.249	24194
842.385	24125
842.522	24277
842.659	24140
842.796	24091
842.933	24068
843.069	24148
843.206	23988
843.343	24186
843.479	24201
843.616	24034
843.752	23843
843.889	23927
844.025	23980
844.162	23847
844.298	24015
844.435	23889
844.571	23863
844.708	23904
844.844	23992
844.98	24034
845.117	23931
845.253	23843
845.389	23710
845.525	23840
845.661	23653
845.798	23707
845.934	23539
846.07	23665
846.206	23600
846.342	23790
846.478	23638
846.614	23524
846.75	23265
846.886	23280
847.022	23444
847.158	23353
847.294	23303
847.429	23467
847.565	23341
847.701	23493
847.837	23098
847.972	23067
848.108	23121
848.244	23220
848.379	22904
848.515	22927
848.65	22919
848.786	22896
848.921	22987
849.057	23003
849.192	23060
849.328	23014
849.463	23014
849.598	22949
849.734	22812
849.869	22729
850.004	22668
850.14	22740
850.275	22630
850.41	22634
850.545	22736
850.68	22596
850.815	22626
850.95	22710
851.085	22862
851.22	22835
851.355	22557
851.49	22706
851.625	22443
851.76	22694
851.895	22538
852.03	22573
852.165	22607
852.299	22782
852.434	22710
852.569	22637
852.703	22668
852.838	22793
852.973	22793
853.107	22839
853.242	22645
853.376	22569
853.511	22352
853.645	22470
853.78	22592
853.914	22729
854.048	22531
854.183	22428
854.317	22596
854.451	22584
854.585	22493
854.72	22538
854.854	22618
854.988	22538
855.122	22459
855.256	22310
855.39	22508
855.524	22557
855.658	22550
855.792	22481
855.926	22405
856.06	22497
856.194	22557
856.327	22546
856.461	22417
856.595	22474
856.729	22447
856.862	22557
856.996	22497
857.13	22493
857.263	22611
857.397	22554
857.53	22371
857.664	22596
857.797	22557
857.931	22565
858.064	22622
858.197	22584
858.331	22497
858.464	22436
858.597	22352
858.731	22424
858.864	22493
858.997	22466
859.13	22588
859.263	22459
859.396	22557
859.529	22489
859.662	22538
859.795	22417
859.928	22580
860.061	22622
860.194	22755
860.327	22691
860.46	22645
860.592	22641
860.725	22740
860.858	22660
860.99	22485
861.123	22322
861.256	22459
861.388	22630
861.521	23216
861.653	22459
861.786	22230
861.918	22379
862.05	22447
862.183	22421
862.315	22363
862.447	22470
862.58	22398
862.712	22181
862.844	22090
862.976	22348
863.108	22249
863.24	22672
863.372	22166
863.504	22261
863.636	22284
863.768	22272
863.9	22204
864.032	22131
864.164	22158
864.296	22238
864.428	22329
864.559	22284
864.691	22257
864.823	22124
864.954	22135
865.086	22150
865.217	22128
865.349	21941
865.48	22048
865.612	22002
865.743	22242
865.875	22173
866.006	22010
866.137	22013
866.269	22025
866.4	22090
866.531	22021
866.662	21975
866.793	21979
866.924	22040
867.055	22048
867.186	22002
867.317	22002
867.448	21964
867.579	21983
867.71	21949
867.841	21873
867.972	21915
868.103	22070
868.233	22013
868.364	22067
868.495	22097
868.625	22242
868.756	22287
868.886	22230
869.017	22223
869.147	22348
869.278	22337
869.408	22261
869.539	22333
869.669	22291
869.799	22261
869.929	22333
870.06	22284
870.19	22679
870.32	22386
870.45	22557
870.58	22691
870.71	22710
870.84	22691
870.97	22645
871.1	22557
871.23	22717
871.36	22923
871.489	22733
871.619	22828
871.749	22831
871.879	22873
872.008	22885
872.138	22854
872.267	22843
872.397	22736
872.526	22599
872.656	22717
872.785	22649
872.915	22801
873.044	23006
873.173	22866
873.303	22938
873.432	23041
873.561	22984
873.69	22873
873.819	23064
873.948	22953
874.077	22892
874.206	22850
874.335	22858
874.464	22866
874.593	23090
874.722	23018
874.851	23067
874.979	22968
875.108	23212
875.237	22930
875.365	22904
875.494	23014
875.623	23155
875.751	23048
875.88	23079
876.008	23143
876.136	23200
876.265	23455
876.393	23600
876.521	23467
876.65	23581
876.778	23490
876.906	23547
877.034	23497
877.162	23436
877.29	23315
877.418	23429
877.546	23608
877.674	23379
877.802	23356
877.93	23463
878.058	23334
878.185	23318
878.313	23436
878.441	23490
878.568	23318
878.696	23307
878.824	23410
878.951	23349
879.079	23562
879.206	23646
879.333	23623
879.461	23395
879.588	23471
879.715	23611
879.842	23699
879.97	23528
880.097	23349
880.224	23258
880.351	23216
880.478	23200
880.605	23060
880.732	23296
880.859	23524
880.986	23193
881.112	23250
881.239	23124
881.366	22866
881.493	22862
881.619	22733
881.746	22877
881.872	22862
881.999	22694
882.125	22748
882.252	22892
882.378	22729
882.505	22976
882.631	22683
882.757	22504
882.883	22489
883.01	22451
883.136	22402
883.262	22287
883.388	22299
883.514	22649
883.64	22531
883.766	22299
883.892	22382
884.018	22272
884.143	22436
884.269	22390
884.395	22238
884.52	22105
884.646	22017
884.772	22128
884.897	21873
885.023	22112
885.148	22120
885.274	22238
885.399	22204
885.524	22101
885.65	22097
885.775	22105
885.9	22147
886.025	22207
886.15	22223
886.275	21994
886.4	22044
886.525	22082
886.65	21987
886.775	22051
886.9	22173
887.025	22253
887.149	22078
887.274	21975
887.399	21873
887.523	21911
887.648	21774
887.773	21819
887.897	21922
888.021	21911
888.146	21793
888.27	21991
888.395	21922
888.519	21945
888.643	21941
888.767	21956
888.891	21656
889.015	21759
889.139	21713
889.263	21591
889.387	21690
889.511	21831
889.635	21842
889.759	21591
889.883	21663
890.006	21732
890.13	21747
890.254	21618
890.377	21599
890.501	21336
890.624	21378
890.748	21439
890.871	21241
890.995	21131
891.118	21135
891.241	21222
891.364	21249
891.488	21348
891.611	21313
891.734	21116
891.857	21211
891.98	21233
892.103	21165
892.226	21260
892.349	21199
892.471	21051
892.594	21180
892.717	21195
892.839	21066
892.962	21089
893.085	21207
893.207	21032
893.33	20880
893.452	21005
893.575	21047
893.697	21142
893.819	21321
893.941	21241
894.064	21123
894.186	20960
894.308	20979
894.43	21119
894.552	21169
894.674	21211
894.796	21039
894.918	21093
895.04	21017
895.161	21085
895.283	21131
895.405	21119
895.526	21169
895.648	21017
895.769	20982
895.891	21123
896.012	21195
896.134	21051
896.255	21005
896.376	21039
896.498	21020
896.619	21070
896.74	21043
896.861	21100
896.982	21462
897.103	21564
897.224	21218
897.345	21363
897.466	21211
897.587	21161
897.708	21443
897.828	21272
897.949	21264
898.07	21123
898.19	21161
898.311	21321
898.431	21207
898.552	21408
898.672	21302
898.792	21214
898.913	21310
899.033	21176
899.153	21017
899.273	20979
899.393	20933
899.513	21055
899.633	21017
899.753	21013
899.873	21001
899.993	20956
900.113	20960
900.232	21005
900.352	20880
900.472	20826
900.591	20754
900.711	20708
900.83	20701
900.95	20826
901.069	20891
901.189	20613
901.308	20343
901.427	20442
901.546	20370
901.665	20408
901.784	20339
901.904	20164
902.023	20111
902.141	19947
902.26	19776
902.379	19932
902.498	19963
902.617	19769
902.735	19826
902.854	19811
902.973	19811
903.091	19506
903.21	19495
903.328	19537
903.446	19483
903.565	19270
903.683	19320
903.801	19183
903.919	19228
904.038	19320
904.156	19072
904.274	19126
904.392	19110
904.51	19091
904.627	19057
904.745	19088
904.863	19133
904.981	18977
905.098	18658
905.216	18833
905.334	18703
905.451	18772
905.569	18654
905.686	18684
905.803	18635
905.921	18540
906.038	18661
906.155	18513
906.272	18433
906.389	18490
906.506	18311
906.623	18296
906.74	18258
906.857	18152
906.974	18068
907.091	18319
907.208	18388
907.324	18311
907.441	18095
907.557	18003
907.674	17999
907.79	17878
907.907	17984
908.023	17942
908.139	17893
908.256	17897
908.372	17885
908.488	17790
908.604	17684
908.72	17741
908.836	17771
908.952	17562
909.068	17638
909.184	17661
909.3	17733
909.415	17707
909.531	17615
909.647	17448
909.762	17509
909.878	17391
909.993	17345
910.108	17395
910.224	17334
910.339	17307
910.454	17223
910.57	17155
910.685	17071
910.8	17376
910.915	17315
911.03	17132
911.145	16942
911.259	16889
911.374	17014
911.489	16816
911.604	16790
911.718	16721
911.833	16584
911.947	16584
912.062	16615
912.176	16649
912.291	16641
912.405	16618
912.519	16828
912.633	16927
912.748	16683
912.862	16611
912.976	16489
913.09	16371
913.204	16508
913.318	16535
913.431	16630
913.545	16561
913.659	16596
913.772	16409
913.886	16348
914	16299
914.113	16405
914.226	16363
914.34	16272
914.453	16147
914.566	16261
914.68	16128
914.793	16090
914.906	15884
915.019	15838
915.132	15876
915.245	15865
915.358	15854
915.47	15838
915.583	15899
915.696	15835
915.809	15964
915.921	15949
916.034	15747
916.146	15774
916.259	15717
916.371	15709
916.483	15903
916.595	15694
916.708	15682
916.82	15599
916.932	15690
917.044	15610
917.156	15614
917.268	15481
917.38	15405
917.491	15424
917.603	15545
917.715	15591
917.826	15572
917.938	15443
918.049	15344
918.161	15416
918.272	15515
918.384	15545
918.495	15367
918.606	15294
918.717	15165
918.828	15237
918.939	15237
919.05	15089
919.161	15252
919.272	14990
919.383	15108
919.494	15283
919.604	15389
919.715	15241
919.826	15020
919.936	15195
920.047	15252
920.157	15154
920.267	15287
920.378	15116
920.488	15093
920.598	15336
920.708	15496
920.818	15237
920.928	15321
921.038	15481
921.148	15408
921.258	15161
921.368	15017
921.477	14883
921.587	14952
921.697	14785
921.806	14857
921.916	14731
922.025	14579
922.134	14530
922.244	14560
922.353	14484
922.462	14446
922.571	14404
922.68	14206
922.789	14142
922.898	14130
923.007	14050
923.116	14164
923.224	14119
923.333	14183
923.442	14100
923.55	13978
923.659	13989
923.767	14043
923.876	14062
923.984	14058
924.092	13883
924.201	13970
924.309	13845
924.417	13898
924.525	13788
924.633	13921
924.741	14522
924.849	13597
924.956	13811
925.064	13559
925.172	13499
925.279	13609
925.387	13578
925.494	13510
925.602	13681
925.709	13605
925.816	13457
925.924	13476
926.031	13559
926.138	13441
926.245	13495
926.352	13369
926.459	13499
926.566	13578
926.673	13472
926.779	13403
926.886	13232
926.993	13129
927.099	13107
927.206	13069
927.312	13061
927.419	13156
927.525	13080
927.631	13114
927.737	13023
927.843	12947
927.95	12779
928.056	12882
928.162	12932
928.267	12871
928.373	13597
928.479	12878
928.585	12783
928.69	12913
928.796	12894
928.901	12905
929.007	12620
929.112	12696
929.218	12760
929.323	12635
929.428	12612
929.533	12650
929.638	12517
929.743	12536
929.848	12582
929.953	12563
930.058	12555
930.163	12239
930.267	12273
930.372	12456
930.477	12285
930.581	12437
930.685	12346
930.79	12186
930.894	12270
930.998	12098
931.103	12296
931.207	11942
931.311	11832
931.415	11722
931.519	11573
931.623	11532
