Data from test_V78500241_1033.txt Node
Date: Fri Mar 25 15:48:57 CST 2022
User: usil
Spectrometer: V785-0024
Trigger mode: 0
Integration Time (sec): 4.000000E-1
Scans to average: 1
Nonlinearity correction enabled: false
Boxcar width: 0
Storing dark spectrum: false
XAxis mode: Wavelengths
Number of Pixels in Spectrum: 1024
>>>>>Begin Spectral Data<<<<<
801.071	27888
801.214	27759
801.356	27572
801.499	27553
801.641	27561
801.783	27424
801.926	27473
802.068	27355
802.211	27374
802.353	27146
802.496	27017
802.638	27131
802.78	27116
802.923	27089
803.065	26994
803.208	26902
803.35	27058
803.492	27085
803.635	27123
803.777	27142
803.919	27294
804.061	27644
804.204	27298
804.346	27020
804.488	27074
804.63	27359
804.773	27211
804.915	27260
805.057	27332
805.199	27116
805.341	27222
805.483	27306
805.626	27408
805.768	27260
805.91	27405
806.052	27473
806.194	27176
806.336	27572
806.478	27393
806.62	27504
806.762	27481
806.904	27682
807.046	27869
807.188	27823
807.33	27781
807.472	27876
807.614	27762
807.756	27774
807.898	27701
808.04	27857
808.182	27606
808.324	27816
808.465	27701
808.607	27922
808.749	28101
808.891	28021
809.033	28215
809.174	28169
809.316	28101
809.458	28063
809.6	28120
809.741	28101
809.883	28192
810.025	28310
810.166	28436
810.308	28291
810.45	28333
810.591	28090
810.733	28078
810.875	28101
811.016	28002
811.158	27941
811.299	27991
811.441	28234
811.582	28215
811.724	28067
811.865	27979
812.007	28048
812.148	28010
812.29	28067
812.431	28310
812.573	28322
812.714	28462
812.855	28702
812.997	28790
813.138	28744
813.279	28698
813.421	28706
813.562	28630
813.703	28478
813.845	28394
813.986	27998
814.127	27800
814.268	27846
814.41	27857
814.551	27736
814.692	27816
814.833	27713
814.974	27633
815.115	27812
815.256	27568
815.397	27530
815.539	27614
815.68	27576
815.821	27492
815.962	27622
816.103	27549
816.244	27389
816.385	27279
816.526	27306
816.666	27161
816.807	27009
816.948	27108
817.089	27119
817.23	27112
817.371	27085
817.512	26891
817.653	26956
817.793	27039
817.934	27074
818.075	26960
818.216	27028
818.356	26967
818.497	26956
818.638	26640
818.778	26826
818.919	26902
819.06	26906
819.2	27001
819.341	26819
819.481	27047
819.622	27119
819.762	27408
819.903	27351
820.043	27119
820.184	27184
820.324	27131
820.465	27096
820.605	27161
820.746	27226
820.886	27146
821.026	27085
821.167	27150
821.307	27268
821.447	27127
821.588	26872
821.728	26868
821.868	26788
822.008	26431
822.149	26488
822.289	26507
822.429	26237
822.569	26096
822.709	26126
822.849	26081
822.99	26195
823.13	25970
823.27	25925
823.41	25826
823.55	25689
823.69	25780
823.83	25951
823.97	25890
824.11	25689
824.25	25571
824.389	25708
824.529	25727
824.669	25708
824.809	25624
824.949	25826
825.089	25799
825.228	25776
825.368	25662
825.508	25590
825.648	25681
825.787	25552
825.927	25529
826.067	25468
826.206	25590
826.346	25441
826.485	25567
826.625	25529
826.765	25578
826.904	25495
827.044	25259
827.183	25236
827.323	25308
827.462	25354
827.601	25251
827.741	25289
827.88	25251
828.02	25114
828.159	25152
828.298	25187
828.437	25255
828.577	25122
828.716	25415
828.855	25031
828.994	25012
829.134	24951
829.273	24981
829.412	24875
829.551	24939
829.69	24992
829.829	24981
829.968	24992
830.107	25034
830.246	24909
830.385	24810
830.524	24821
830.663	24741
830.802	24654
830.941	24635
831.08	24551
831.219	24601
831.357	24620
831.496	24844
831.635	24540
831.774	24456
831.913	24426
832.051	24410
832.19	24270
832.329	24285
832.467	24277
832.606	24053
832.744	24209
832.883	24247
833.022	24232
833.16	24285
833.299	24281
833.437	24144
833.576	24262
833.714	24334
833.852	24277
833.991	24372
834.129	24353
834.267	24315
834.406	24410
834.544	24292
834.682	24186
834.821	24095
834.959	24380
835.097	24220
835.235	24399
835.373	24178
835.511	24296
835.65	24129
835.788	24140
835.926	24003
836.064	23935
836.202	23897
836.34	24022
836.478	24167
836.615	24129
836.753	24095
836.891	24121
837.029	24095
837.167	24106
837.305	23988
837.443	23923
837.58	23882
837.718	24045
837.856	24068
837.993	23794
838.131	23946
838.269	23756
838.406	23832
838.544	23851
838.681	23566
838.819	23566
838.956	23299
839.094	23421
839.231	23463
839.369	23589
839.506	23733
839.643	23608
839.781	23398
839.918	23296
840.055	23452
840.193	23284
840.33	23349
840.467	23360
840.604	23463
840.742	23630
840.879	23204
841.016	23223
841.153	23185
841.29	23376
841.427	23288
841.564	23410
841.701	23337
841.838	23235
841.975	23200
842.112	23140
842.249	23261
842.385	23075
842.522	23311
842.659	23071
842.796	22999
842.933	23025
843.069	23003
843.206	23102
843.343	23174
843.479	23083
843.616	23003
843.752	22869
843.889	23029
844.025	22957
844.162	22824
844.298	22949
844.435	22797
844.571	22805
844.708	22873
844.844	23010
844.98	22980
845.117	22961
845.253	22812
845.389	22668
845.525	22596
845.661	22672
845.798	22679
845.934	22588
846.07	22519
846.206	22550
846.342	22717
846.478	22554
846.614	22493
846.75	22249
846.886	22470
847.022	22344
847.158	22337
847.294	22295
847.429	22314
847.565	22223
847.701	22626
847.837	22105
847.972	22086
848.108	22032
848.244	22059
848.379	21880
848.515	21968
848.65	21797
848.786	21968
848.921	21892
849.057	21983
849.192	21941
849.328	21857
849.463	22002
849.598	21861
849.734	21873
849.869	21770
850.004	21728
850.14	21667
850.275	21675
850.41	21644
850.545	21663
850.68	21618
850.815	21694
850.95	21663
851.085	21873
851.22	21785
851.355	21705
851.49	21682
851.625	21614
851.76	21682
851.895	21572
852.03	21431
852.165	21599
852.299	21743
852.434	21793
852.569	21717
852.703	21720
852.838	21656
852.973	21724
853.107	21865
853.242	21618
853.376	21545
853.511	21370
853.645	21462
853.78	21663
853.914	21462
854.048	21469
854.183	21325
854.317	21679
854.451	21717
854.585	21450
854.72	21587
854.854	21572
854.988	21367
855.122	21477
855.256	21389
855.39	21412
855.524	21534
855.658	21504
855.792	21431
855.926	21507
856.06	21443
856.194	21553
856.327	21469
856.461	21325
856.595	21401
856.729	21431
856.862	21561
856.996	21500
857.13	21583
857.263	21580
857.397	21443
857.53	21481
857.664	21660
857.797	21530
857.931	21618
858.064	21473
858.197	21720
858.331	21473
858.464	21382
858.597	21294
858.731	21515
858.864	21481
858.997	21477
859.13	21488
859.263	21549
859.396	21629
859.529	21401
859.662	21420
859.795	21492
859.928	21519
860.061	21553
860.194	21625
860.327	21610
860.46	21466
860.592	21629
860.725	21709
860.858	21709
860.99	21538
861.123	21408
861.256	21317
861.388	21526
861.521	22284
861.653	21359
861.786	21340
861.918	21359
862.05	21332
862.183	21378
862.315	21500
862.447	21534
862.58	21370
862.712	21207
862.844	21135
862.976	21245
863.108	21199
863.24	21633
863.372	21199
863.504	21211
863.636	21142
863.768	21146
863.9	21169
864.032	21119
864.164	21074
864.296	21161
864.428	21275
864.559	21313
864.691	21424
864.823	21192
864.954	21203
865.086	21096
865.217	21207
865.349	21047
865.48	21157
865.612	21131
865.743	21176
865.875	21275
866.006	21100
866.137	21074
866.269	21081
866.4	21207
866.531	21020
866.662	20944
866.793	20967
866.924	21100
867.055	21173
867.186	21005
867.317	21047
867.448	20941
867.579	21024
867.71	20967
867.841	20925
867.972	21096
868.103	20910
868.233	21104
868.364	21108
868.495	21150
868.625	21252
868.756	21405
868.886	21138
869.017	21359
869.147	21348
869.278	21329
869.408	21268
869.539	21283
869.669	21321
869.799	21264
869.929	21405
870.06	21389
870.19	21644
870.32	21462
870.45	21644
870.58	21637
870.71	21728
870.84	21686
870.97	21713
871.1	21682
871.23	21854
871.36	21880
871.489	21694
871.619	21823
871.749	21838
871.879	21823
872.008	21884
872.138	21888
872.267	21812
872.397	21751
872.526	21861
872.656	21701
872.785	21728
872.915	21747
873.044	21960
873.173	21895
873.303	21975
873.432	21915
873.561	21983
873.69	21854
873.819	22021
873.948	21960
874.077	21804
874.206	21755
874.335	21903
874.464	22021
874.593	22154
874.722	22173
874.851	22070
874.979	22226
875.108	22173
875.237	22139
875.365	22105
875.494	22116
875.623	22261
875.751	22059
875.88	22105
876.008	22265
876.136	22249
876.265	22481
876.393	22554
876.521	22611
876.65	22474
876.778	22481
876.906	22409
877.034	22352
877.162	22546
877.29	22440
877.418	22432
877.546	22531
877.674	22500
877.802	22428
877.93	22432
878.058	22249
878.185	22402
878.313	22424
878.441	22421
878.568	22314
878.696	22417
878.824	22485
878.951	22653
879.079	22645
879.206	22713
879.333	22698
879.461	22497
879.588	22580
879.715	22573
879.842	22687
879.97	22474
880.097	22344
880.224	22230
880.351	22356
880.478	22341
880.605	22207
880.732	22272
880.859	22436
880.986	22200
881.112	22318
881.239	22185
881.366	22055
881.493	21968
881.619	21964
881.746	21945
881.872	21762
881.999	21797
882.125	21652
882.252	21934
882.378	21835
882.505	21892
882.631	21564
882.757	21675
882.883	21705
883.01	21595
883.136	21534
883.262	21401
883.388	21412
883.514	21576
883.64	21576
883.766	21447
883.892	21431
884.018	21447
884.143	21374
884.269	21538
884.395	21325
884.52	21116
884.646	21226
884.772	21123
884.897	21093
885.023	21169
885.148	21249
885.274	21264
885.399	21237
885.524	21211
885.65	21207
885.775	21249
885.9	21161
886.025	21287
886.15	21279
886.275	21070
886.4	21157
886.525	21009
886.65	21013
886.775	21032
886.9	21283
887.025	21340
887.149	21176
887.274	21005
887.399	20952
887.523	21058
887.648	20944
887.773	20960
887.897	20910
888.021	20937
888.146	20880
888.27	20975
888.395	21074
888.519	20857
888.643	21020
888.767	20929
888.891	20868
889.015	20701
889.139	20891
889.263	20758
889.387	20788
889.511	20914
889.635	20819
889.759	20667
889.883	20617
890.006	20754
890.13	20834
890.254	20651
890.377	20651
890.501	20587
890.624	20549
890.748	20511
890.871	20305
890.995	20298
891.118	20282
891.241	20259
891.364	20408
891.488	20412
891.611	20446
891.734	20309
891.857	20343
891.98	20294
892.103	20351
892.226	20358
892.349	20294
892.471	20115
892.594	20309
892.717	20358
892.839	20168
892.962	20301
893.085	20210
893.207	20153
893.33	20126
893.452	20122
893.575	20263
893.697	20233
893.819	20355
893.941	20438
894.064	20343
894.186	20157
894.308	20187
894.43	20347
894.552	20286
894.674	20320
894.796	20202
894.918	20221
895.04	20320
895.161	20290
895.283	20305
895.405	20336
895.526	20317
895.648	20161
895.769	20271
895.891	20252
896.012	20286
896.134	20267
896.255	20252
896.376	20088
896.498	20214
896.619	20320
896.74	20142
896.861	20134
896.982	20446
897.103	20655
897.224	20518
897.345	20393
897.466	20332
897.587	20389
897.708	20686
897.828	20423
897.949	20385
898.07	20168
898.19	20336
898.311	20507
898.431	20461
898.552	20366
898.672	20473
898.792	20415
898.913	20457
899.033	20358
899.153	20271
899.273	20088
899.393	20183
899.513	20206
899.633	20168
899.753	20240
899.873	20134
899.993	20187
900.113	20119
900.232	20081
900.352	20084
900.472	20100
900.591	19947
900.711	19963
900.83	19925
900.95	20115
901.069	20024
901.189	19742
901.308	19647
901.427	19563
901.546	19502
901.665	19499
901.784	19571
901.904	19388
902.023	19232
902.141	19031
902.26	19118
902.379	19156
902.498	19114
902.617	19031
902.735	19145
902.854	18935
902.973	18947
903.091	18798
903.21	18711
903.328	18665
903.446	18661
903.565	18559
903.683	18555
903.801	18437
903.919	18627
904.038	18422
904.156	18281
904.274	18327
904.392	18342
904.51	18342
904.627	18258
904.745	18262
904.863	18346
904.981	18110
905.098	17904
905.216	18095
905.334	17996
905.451	18022
905.569	17904
905.686	18015
905.803	17965
905.921	17752
906.038	17828
906.155	17824
906.272	17600
906.389	17638
906.506	17429
906.623	17604
906.74	17471
906.857	17474
906.974	17337
907.091	17592
907.208	17630
907.324	17577
907.441	17478
907.557	17174
907.674	17273
907.79	17200
907.907	17208
908.023	17220
908.139	17227
908.256	17102
908.372	17098
908.488	16987
908.604	16976
908.72	16923
908.836	16873
908.952	16847
909.068	16957
909.184	17052
909.3	16953
909.415	16862
909.531	16885
909.647	16637
909.762	16668
909.878	16584
909.993	16675
910.108	16649
910.224	16664
910.339	16523
910.454	16531
910.57	16436
910.685	16314
910.8	16763
910.915	16611
911.03	16428
911.145	16295
911.259	16219
911.374	16230
911.489	16124
911.604	16128
911.718	16036
911.833	15941
911.947	15823
912.062	15823
912.176	15964
912.291	16097
912.405	15869
912.519	16181
912.633	16112
912.748	16013
912.862	15972
912.976	15873
913.09	15762
913.204	15778
913.318	15861
913.431	15869
913.545	15884
913.659	15907
913.772	15797
913.886	15496
914	15591
914.113	15606
914.226	15728
914.34	15671
914.453	15450
914.566	15557
914.68	15374
914.793	15466
914.906	15237
915.019	15176
915.132	15116
915.245	15211
915.358	15169
915.47	15127
915.583	15195
915.696	15272
915.809	15408
915.921	15275
916.034	15180
916.146	15119
916.259	15070
916.371	15077
916.483	15131
916.595	15066
916.708	15077
916.82	15032
916.932	15020
917.044	14960
917.156	14990
917.268	14902
917.38	14838
917.491	14906
917.603	14876
917.715	14857
917.826	14944
917.938	14830
918.049	14659
918.161	14842
918.272	14872
918.384	14937
918.495	14815
918.606	14663
918.717	14602
918.828	14575
918.939	14579
919.05	14499
919.161	14610
919.272	14404
919.383	14473
919.494	14549
919.604	14670
919.715	14564
919.826	14549
919.936	14549
920.047	14689
920.157	14613
920.267	14712
920.378	14590
920.488	14522
920.598	14765
920.708	14906
920.818	14682
920.928	14613
921.038	14887
921.148	14925
921.258	14473
921.368	14408
921.477	14244
921.587	14305
921.697	14233
921.806	14324
921.916	14050
922.025	13959
922.134	13989
922.244	13928
922.353	13967
922.462	13833
922.571	13685
922.68	13624
922.789	13636
922.898	13639
923.007	13502
923.116	13559
923.224	13628
923.333	13533
923.442	13472
923.55	13483
923.659	13476
923.767	13556
923.876	13362
923.984	13468
924.092	13304
924.201	13388
924.309	13297
924.417	13312
924.525	13206
924.633	13251
924.741	13970
924.849	13149
924.956	13183
925.064	13072
925.172	12977
925.279	12981
925.387	12916
925.494	12954
925.602	13095
925.709	13019
925.816	12871
925.924	12954
926.031	13065
926.138	12962
926.245	12947
926.352	12897
926.459	13015
926.566	13031
926.673	12772
926.779	12738
926.886	12738
926.993	12585
927.099	12490
927.206	12494
927.312	12521
927.419	12566
927.525	12521
927.631	12559
927.737	12483
927.843	12403
927.95	12292
928.056	12467
928.162	12452
928.267	12350
928.373	13050
928.479	12441
928.585	12171
928.69	12353
928.796	12437
928.901	12213
929.007	12007
929.112	12273
929.218	12133
929.323	12049
929.428	12121
929.533	12243
929.638	12083
929.743	12007
929.848	12121
929.953	11999
930.058	12041
930.163	11794
930.267	11809
930.372	11889
930.477	11767
930.581	11950
930.685	11843
930.79	11718
930.894	11695
930.998	11604
931.103	11756
931.207	11471
931.311	11315
931.415	11212
931.519	11117
931.623	11060
