Data from test_V78500241_641.txt Node
Date: Fri Mar 25 15:46:14 CST 2022
User: usil
Spectrometer: V785-0024
Trigger mode: 0
Integration Time (sec): 4.000000E-1
Scans to average: 1
Nonlinearity correction enabled: false
Boxcar width: 0
Storing dark spectrum: false
XAxis mode: Wavelengths
Number of Pixels in Spectrum: 1024
>>>>>Begin Spectral Data<<<<<
801.071	27435
801.214	27367
801.356	27135
801.499	27058
801.641	26929
801.783	26937
801.926	27009
802.068	26963
802.211	26899
802.353	26686
802.496	26667
802.638	26560
802.78	26594
802.923	26583
803.065	26602
803.208	26480
803.35	26712
803.492	26823
803.635	26701
803.777	26667
803.919	26769
804.061	27081
804.204	26956
804.346	26804
804.488	26621
804.63	26708
804.773	26667
804.915	26716
805.057	26788
805.199	26781
805.341	26883
805.483	26834
805.626	26842
805.768	26735
805.91	26785
806.052	26944
806.194	26708
806.336	26940
806.478	26998
806.62	26823
806.762	26998
806.904	27195
807.046	27507
807.188	27427
807.33	27332
807.472	27370
807.614	27260
807.756	27245
807.898	27180
808.04	27104
808.182	27119
808.324	27161
808.465	27093
808.607	27424
808.749	27408
808.891	27641
809.033	27747
809.174	27610
809.316	27572
809.458	27709
809.6	27603
809.741	27644
809.883	27538
810.025	27823
810.166	27789
810.308	27717
810.45	27823
810.591	27709
810.733	27458
810.875	27481
811.016	27370
811.158	27485
811.299	27580
811.441	27717
811.582	27485
811.724	27359
811.865	27466
812.007	27485
812.148	27629
812.29	27553
812.431	27709
812.573	27892
812.714	27861
812.855	27892
812.997	28032
813.138	28284
813.279	28181
813.421	28059
813.562	28025
813.703	27819
813.845	27728
813.986	27355
814.127	27252
814.268	27283
814.41	27176
814.551	27264
814.692	27260
814.833	27146
814.974	27131
815.115	27169
815.256	27043
815.397	27039
815.539	26952
815.68	26925
815.821	26982
815.962	26998
816.103	26914
816.244	26864
816.385	26796
816.526	26781
816.666	26644
816.807	26495
816.948	26522
817.089	26522
817.23	26632
817.371	26438
817.512	26503
817.653	26473
817.793	26450
817.934	26480
818.075	26503
818.216	26423
818.356	26476
818.497	26271
818.638	26237
818.778	26161
818.919	26351
819.06	26290
819.2	26476
819.341	26431
819.481	26495
819.622	26484
819.762	26788
819.903	26781
820.043	26552
820.184	26564
820.324	26552
820.465	26712
820.605	26507
820.746	26564
820.886	26362
821.026	26530
821.167	26533
821.307	26587
821.447	26446
821.588	26339
821.728	26206
821.868	26164
822.008	25845
822.149	25947
822.289	25925
822.429	25677
822.569	25689
822.709	25609
822.849	25525
822.99	25441
823.13	25430
823.27	25426
823.41	25301
823.55	25171
823.69	25141
823.83	25270
823.97	25156
824.11	25019
824.25	25008
824.389	25069
824.529	25122
824.669	25038
824.809	25122
824.949	25225
825.089	25046
825.228	24996
825.368	25015
825.508	24791
825.648	25046
825.787	24837
825.927	25019
826.067	24909
826.206	24920
826.346	24894
826.485	24920
826.625	24966
826.765	24920
826.904	25038
827.044	24604
827.183	24719
827.323	24711
827.462	24673
827.601	24677
827.741	24601
827.88	24715
828.02	24597
828.159	24559
828.298	24631
828.437	24734
828.577	24616
828.716	24665
828.855	24490
828.994	24388
829.134	24277
829.273	24395
829.412	24311
829.551	24239
829.69	24254
829.829	24395
829.968	24391
830.107	24418
830.246	24357
830.385	24346
830.524	24220
830.663	24095
830.802	24106
830.941	23984
831.08	23916
831.219	23973
831.357	23920
831.496	24228
831.635	23889
831.774	24003
831.913	23703
832.051	23676
832.19	23737
832.329	23790
832.467	23600
832.606	23589
832.744	23630
832.883	23634
833.022	23646
833.16	23630
833.299	23608
833.437	23577
833.576	23741
833.714	23733
833.852	23737
833.991	23771
834.129	23589
834.267	23619
834.406	23604
834.544	23668
834.682	23528
834.821	23676
834.959	23798
835.097	23600
835.235	23653
835.373	23649
835.511	23619
835.65	23596
835.788	23429
835.926	23292
836.064	23299
836.202	23334
836.34	23455
836.478	23619
836.615	23341
836.753	23493
836.891	23512
837.029	23528
837.167	23471
837.305	23368
837.443	23406
837.58	23429
837.718	23535
837.856	23273
837.993	23288
838.131	23246
838.269	23239
838.406	23231
838.544	22991
838.681	22976
838.819	22957
838.956	22854
839.094	22961
839.231	22927
839.369	23136
839.506	23170
839.643	23067
839.781	22767
839.918	22812
840.055	22896
840.193	22881
840.33	22831
840.467	22763
840.604	22790
840.742	23094
840.879	22653
841.016	22649
841.153	22535
841.29	22820
841.427	22733
841.564	22831
841.701	22752
841.838	22694
841.975	22580
842.112	22546
842.249	22504
842.385	22561
842.522	22687
842.659	22653
842.796	22535
842.933	22523
843.069	22344
843.206	22299
843.343	22379
843.479	22493
843.616	22462
843.752	22295
843.889	22261
844.025	22284
844.162	22192
844.298	22352
844.435	22196
844.571	22150
844.708	22223
844.844	22322
844.98	22455
845.117	22306
845.253	22154
845.389	22200
845.525	22265
845.661	22090
845.798	22109
845.934	21991
846.07	22036
846.206	22029
846.342	22063
846.478	21819
846.614	21724
846.75	21720
846.886	21770
847.022	21831
847.158	21827
847.294	21720
847.429	21774
847.565	21736
847.701	21991
847.837	21496
847.972	21416
848.108	21549
848.244	21485
848.379	21439
848.515	21359
848.65	21192
848.786	21249
848.921	21302
849.057	21481
849.192	21401
849.328	21283
849.463	21363
849.598	21192
849.734	21192
849.869	21135
850.004	21032
850.14	21146
850.275	21176
850.41	21009
850.545	21081
850.68	21036
850.815	21051
850.95	21005
851.085	21169
851.22	21203
851.355	21077
851.49	21047
851.625	21093
851.76	21081
851.895	20948
852.03	21024
852.165	21100
852.299	21161
852.434	21055
852.569	21142
852.703	21085
852.838	21173
852.973	21237
853.107	21112
853.242	20994
853.376	20906
853.511	20838
853.645	20998
853.78	21077
853.914	20956
854.048	20785
854.183	20891
854.317	20891
854.451	21169
854.585	20986
854.72	20910
854.854	21001
854.988	20910
855.122	20941
855.256	20857
855.39	20914
855.524	20876
855.658	21009
855.792	20902
855.926	20956
856.06	20921
856.194	20933
856.327	20891
856.461	20933
856.595	20853
856.729	20910
856.862	21062
856.996	20941
857.13	20967
857.263	20956
857.397	20986
857.53	20765
857.664	20979
857.797	20960
857.931	21001
858.064	20918
858.197	20963
858.331	20918
858.464	20895
858.597	20788
858.731	20941
858.864	20864
858.997	20864
859.13	20948
859.263	20921
859.396	21039
859.529	20861
859.662	20804
859.795	20838
859.928	20986
860.061	20979
860.194	21085
860.327	20933
860.46	20960
860.592	20990
860.725	21043
860.858	20906
860.99	20914
861.123	20868
861.256	20880
861.388	20895
861.521	21485
861.653	20663
861.786	20750
861.918	20644
862.05	20724
862.183	20788
862.315	20868
862.447	20971
862.58	20785
862.712	20708
862.844	20507
862.976	20823
863.108	20720
863.24	20967
863.372	20674
863.504	20655
863.636	20655
863.768	20488
863.9	20606
864.032	20617
864.164	20514
864.296	20712
864.428	20655
864.559	20724
864.691	20720
864.823	20606
864.954	20674
865.086	20579
865.217	20636
865.349	20423
865.48	20556
865.612	20568
865.743	20621
865.875	20537
866.006	20560
866.137	20522
866.269	20522
866.4	20381
866.531	20552
866.662	20408
866.793	20488
866.924	20446
867.055	20575
867.186	20469
867.317	20503
867.448	20351
867.579	20438
867.71	20431
867.841	20454
867.972	20499
868.103	20374
868.233	20476
868.364	20412
868.495	20503
868.625	20674
868.756	20807
868.886	20754
869.017	20697
869.147	20857
869.278	20792
869.408	20765
869.539	20697
869.669	20849
869.799	20819
869.929	20834
870.06	20762
870.19	21043
870.32	20994
870.45	21100
870.58	21112
870.71	21298
870.84	21393
870.97	21135
871.1	21047
871.23	21367
871.36	21363
871.489	21138
871.619	21313
871.749	21332
871.879	21397
872.008	21450
872.138	21256
872.267	21355
872.397	21077
872.526	21199
872.656	21131
872.785	21051
872.915	21329
873.044	21420
873.173	21302
873.303	21340
873.432	21500
873.561	21412
873.69	21355
873.819	21237
873.948	21397
874.077	21408
874.206	21249
874.335	21344
874.464	21367
874.593	21667
874.722	21492
874.851	21526
874.979	21618
875.108	21599
875.237	21450
875.365	21488
875.494	21549
875.623	21553
875.751	21526
875.88	21576
876.008	21637
876.136	21759
876.265	21835
876.393	22013
876.521	22078
876.65	22044
876.778	21956
876.906	21892
877.034	21895
877.162	21945
877.29	21865
877.418	21934
877.546	21869
877.674	21987
877.802	21972
877.93	21838
878.058	21880
878.185	21724
878.313	21797
878.441	21903
878.568	21762
878.696	21816
878.824	21941
878.951	22067
879.079	22185
879.206	22086
879.333	22036
879.461	21960
879.588	22032
879.715	22196
879.842	22284
879.97	21941
880.097	21762
880.224	21720
880.351	21690
880.478	21861
880.605	21637
880.732	21675
880.859	21899
880.986	21747
881.112	21762
881.239	21488
881.366	21416
881.493	21367
881.619	21283
881.746	21302
881.872	21397
881.999	21184
882.125	21237
882.252	21397
882.378	21291
882.505	21393
882.631	21245
882.757	21055
882.883	21081
883.01	21066
883.136	20979
883.262	20861
883.388	20735
883.514	20975
883.64	20963
883.766	20906
883.892	20853
884.018	20929
884.143	20925
884.269	21093
884.395	20785
884.52	20621
884.646	20678
884.772	20659
884.897	20507
885.023	20613
885.148	20895
885.274	20727
885.399	20807
885.524	20705
885.65	20659
885.775	20697
885.9	20746
886.025	20834
886.15	20746
886.275	20602
886.4	20590
886.525	20674
886.65	20716
886.775	20533
886.9	20739
887.025	20826
887.149	20583
887.274	20511
887.399	20450
887.523	20526
887.648	20419
887.773	20336
887.897	20511
888.021	20419
888.146	20324
888.27	20583
888.395	20469
888.519	20473
888.643	20450
888.767	20526
888.891	20393
889.015	20317
889.139	20248
889.263	20221
889.387	20317
889.511	20427
889.635	20351
889.759	20271
889.883	20233
890.006	20286
890.13	20309
890.254	20180
890.377	20187
890.501	19978
890.624	19967
890.748	20126
890.871	19921
890.995	19723
891.118	19833
891.241	19803
891.364	19833
891.488	19928
891.611	19864
891.734	19837
891.857	19894
891.98	19795
892.103	19871
892.226	19784
892.349	19795
892.471	19620
892.594	19727
892.717	19738
892.839	19784
892.962	19845
893.085	19909
893.207	19753
893.33	19601
893.452	19655
893.575	19830
893.697	19651
893.819	19788
893.941	19757
894.064	19780
894.186	19727
894.308	19639
894.43	19791
894.552	19814
894.674	19799
894.796	19662
894.918	19727
895.04	19696
895.161	19917
895.283	19849
895.405	19620
895.526	19875
895.648	19658
895.769	19753
895.891	19700
896.012	19845
896.134	19841
896.255	19700
896.376	19639
896.498	19841
896.619	19833
896.74	19765
896.861	19753
896.982	20031
897.103	20195
897.224	20122
897.345	19890
897.466	19951
897.587	19871
897.708	20107
897.828	19978
897.949	19967
898.07	19822
898.19	19860
898.311	19898
898.431	20012
898.552	19940
898.672	20046
898.792	20062
898.913	19959
899.033	19849
899.153	19898
899.273	19719
899.393	19715
899.513	19765
899.633	19776
899.753	19830
899.873	19571
899.993	19833
900.113	19742
900.232	19700
900.352	19578
900.472	19480
900.591	19658
900.711	19590
900.83	19506
900.95	19647
901.069	19643
901.189	19556
901.308	19255
901.427	19084
901.546	19103
901.665	19190
901.784	19152
901.904	18962
902.023	18894
902.141	18654
902.26	18635
902.379	18654
902.498	18631
902.617	18570
902.735	18673
902.854	18547
902.973	18578
903.091	18327
903.21	18273
903.328	18311
903.446	18235
903.565	18030
903.683	18110
903.801	18041
903.919	18034
904.038	18068
904.156	17992
904.274	18030
904.392	17836
904.51	17813
904.627	17885
904.745	17958
904.863	17942
904.981	17680
905.098	17573
905.216	17539
905.334	17619
905.451	17493
905.569	17611
905.686	17554
905.803	17615
905.921	17258
906.038	17433
906.155	17360
906.272	17341
906.389	17299
906.506	17128
906.623	17105
906.74	17132
906.857	16862
906.974	16927
907.091	17143
907.208	17200
907.324	17117
907.441	16957
907.557	16881
907.674	16892
907.79	16717
907.907	16824
908.023	16847
908.139	16782
908.256	16713
908.372	16683
908.488	16634
908.604	16615
908.72	16466
908.836	16607
908.952	16504
909.068	16523
909.184	16592
909.3	16558
909.415	16626
909.531	16394
909.647	16253
909.762	16287
909.878	16196
909.993	16211
910.108	16154
910.224	16169
910.339	16223
910.454	16097
910.57	16169
910.685	16006
910.8	16219
910.915	16177
911.03	16067
911.145	15884
911.259	15774
911.374	15724
911.489	15793
911.604	15800
911.718	15564
911.833	15641
911.947	15397
912.062	15420
912.176	15511
912.291	15656
912.405	15629
912.519	15800
912.633	15838
912.748	15591
912.862	15580
912.976	15393
913.09	15241
913.204	15359
913.318	15443
913.431	15519
913.545	15469
913.659	15469
913.772	15340
913.886	15275
914	15188
914.113	15264
914.226	15264
914.34	15264
914.453	15017
914.566	15355
914.68	15077
914.793	15138
914.906	14902
915.019	14861
915.132	14724
915.245	14830
915.358	14872
915.47	14819
915.583	14853
915.696	14819
915.809	14994
915.921	14952
916.034	14807
916.146	14663
916.259	14701
916.371	14849
916.483	14830
916.595	14651
916.708	14682
916.82	14712
916.932	14689
917.044	14587
917.156	14537
917.268	14488
917.38	14461
917.491	14385
917.603	14457
917.715	14537
917.826	14560
917.938	14389
918.049	14317
918.161	14446
918.272	14503
918.384	14545
918.495	14404
918.606	14389
918.717	14183
918.828	14233
918.939	14278
919.05	14168
919.161	14233
919.272	14096
919.383	14145
919.494	14286
919.604	14514
919.715	14221
919.826	14176
919.936	14202
920.047	14305
920.157	14263
920.267	14419
920.378	14248
920.488	14134
920.598	14377
920.708	14465
920.818	14423
920.928	14332
921.038	14587
921.148	14446
921.258	14202
921.368	13989
921.477	14005
921.587	13898
921.697	13879
921.806	13974
921.916	13814
922.025	13620
922.134	13601
922.244	13594
922.353	13677
922.462	13514
922.571	13430
922.68	13308
922.789	13266
922.898	13278
923.007	13103
923.116	13346
923.224	13274
923.333	13209
923.442	13095
923.55	13133
923.659	13118
923.767	13152
923.876	13118
923.984	13114
924.092	12935
924.201	12951
924.309	13072
924.417	12943
924.525	12916
924.633	13034
924.741	13723
924.849	12749
924.956	12935
925.064	12738
925.172	12589
925.279	12669
925.387	12772
925.494	12665
925.602	12817
925.709	12665
925.816	12620
925.924	12726
926.031	12741
926.138	12631
926.245	12715
926.352	12547
926.459	12688
926.566	12662
926.673	12536
926.779	12418
926.886	12464
926.993	12357
927.099	12254
927.206	12266
927.312	12254
927.419	12414
927.525	12319
927.631	12186
927.737	12110
927.843	12106
927.95	12053
928.056	12064
928.162	12216
928.267	12167
928.373	12787
928.479	12144
928.585	11958
928.69	12026
928.796	12003
928.901	11984
929.007	11817
929.112	11927
929.218	11901
929.323	11901
929.428	11794
929.533	11961
929.638	11775
929.743	11794
929.848	11809
929.953	11855
930.058	11726
930.163	11551
930.267	11619
930.372	11707
930.477	11463
930.581	11661
930.685	11608
930.79	11444
930.894	11482
930.998	11299
931.103	11452
931.207	11212
931.311	11064
931.415	11029
931.519	10831
931.623	10824
