Data from test_V78500241_3398.txt Node
Date: Fri Mar 25 16:05:20 CST 2022
User: usil
Spectrometer: V785-0024
Trigger mode: 0
Integration Time (sec): 4.000000E-1
Scans to average: 1
Nonlinearity correction enabled: false
Boxcar width: 0
Storing dark spectrum: false
XAxis mode: Wavelengths
Number of Pixels in Spectrum: 1024
>>>>>Begin Spectral Data<<<<<
801.071	28550
801.214	28287
801.356	28166
801.499	28147
801.641	27994
801.783	28093
801.926	28029
802.068	28181
802.211	27907
802.353	27842
802.496	27827
802.638	27876
802.78	27751
802.923	27614
803.065	27622
803.208	27572
803.35	27622
803.492	27865
803.635	27953
803.777	27663
803.919	27937
804.061	28246
804.204	28010
804.346	27854
804.488	27869
804.63	27732
804.773	27713
804.915	27895
805.057	28017
805.199	27873
805.341	27854
805.483	28025
805.626	28025
805.768	27953
805.91	28139
806.052	28135
806.194	27953
806.336	28162
806.478	28150
806.62	28029
806.762	28154
806.904	28440
807.046	28626
807.188	28504
807.33	28512
807.472	28455
807.614	28371
807.756	28550
807.898	28356
808.04	28211
808.182	28223
808.324	28226
808.465	28523
808.607	28470
808.749	28748
808.891	28847
809.033	28972
809.174	28820
809.316	28752
809.458	28599
809.6	28691
809.741	28862
809.883	28915
810.025	29044
810.166	29064
810.308	29041
810.45	29044
810.591	29048
810.733	28778
810.875	28812
811.016	28801
811.158	28649
811.299	28839
811.441	28991
811.582	28900
811.724	28828
811.865	28759
812.007	28782
812.148	28809
812.29	28748
812.431	28858
812.573	29022
812.714	29113
812.855	29212
812.997	29406
813.138	29528
813.279	29410
813.421	29239
813.562	29299
813.703	29102
813.845	28946
813.986	28755
814.127	28489
814.268	28622
814.41	28417
814.551	28436
814.692	28462
814.833	28493
814.974	28440
815.115	28405
815.256	28265
815.397	28246
815.539	28375
815.68	28322
815.821	28215
815.962	28185
816.103	28268
816.244	28166
816.385	28147
816.526	27930
816.666	27766
816.807	27781
816.948	27789
817.089	27762
817.23	27842
817.371	27789
817.512	27838
817.653	27717
817.793	27717
817.934	27804
818.075	27914
818.216	27583
818.356	27606
818.497	27751
818.638	27622
818.778	27561
818.919	27500
819.06	27447
819.2	27515
819.341	27713
819.481	27709
819.622	27964
819.762	28131
819.903	28017
820.043	27880
820.184	27930
820.324	27941
820.465	27941
820.605	28017
820.746	27873
820.886	27835
821.026	27751
821.167	27857
821.307	27861
821.447	27663
821.588	27568
821.728	27572
821.868	27466
822.008	27268
822.149	27310
822.289	27138
822.429	27055
822.569	26921
822.709	27005
822.849	26746
822.99	26834
823.13	26792
823.27	26686
823.41	26621
823.55	26362
823.69	26568
823.83	26484
823.97	26549
824.11	26298
824.25	26385
824.389	26336
824.529	26476
824.669	26317
824.809	26503
824.949	26434
825.089	26404
825.228	26457
825.368	26324
825.508	26180
825.648	26313
825.787	26278
825.927	26313
826.067	26050
826.206	26218
826.346	26294
826.485	26271
826.625	26244
826.765	26377
826.904	26225
827.044	26081
827.183	26122
827.323	25959
827.462	26012
827.601	25936
827.741	25989
827.88	25982
828.02	25894
828.159	26012
828.298	26092
828.437	26107
828.577	25826
828.716	26092
828.855	25852
828.994	25807
829.134	25731
829.273	25795
829.412	25647
829.551	25586
829.69	25753
829.829	25689
829.968	25529
830.107	25784
830.246	25727
830.385	25731
830.524	25559
830.663	25434
830.802	25388
830.941	25270
831.08	25194
831.219	25407
831.357	25350
831.496	25540
831.635	25263
831.774	25251
831.913	25175
832.051	25091
832.19	25053
832.329	25232
832.467	24985
832.606	24996
832.744	24897
832.883	24958
833.022	24779
833.16	24772
833.299	25000
833.437	24863
833.576	25042
833.714	24928
833.852	25031
833.991	25126
834.129	25099
834.267	25145
834.406	25042
834.544	25008
834.682	25038
834.821	25038
834.959	25050
835.097	25012
835.235	25046
835.373	25008
835.511	24924
835.65	25038
835.788	24810
835.926	24654
836.064	24707
836.202	24642
836.34	24924
836.478	24905
836.615	24844
836.753	24749
836.891	24951
837.029	24913
837.167	24700
837.305	24787
837.443	24661
837.58	24639
837.718	24779
837.856	24700
837.993	24601
838.131	24559
838.269	24604
838.406	24593
838.544	24540
838.681	24270
838.819	24224
838.956	24129
839.094	24114
839.231	24266
839.369	24311
839.506	24475
839.643	24292
839.781	24117
839.918	24117
840.055	23984
840.193	24026
840.33	24098
840.467	24038
840.604	24095
840.742	24098
840.879	23920
841.016	23977
841.153	23999
841.29	24148
841.427	24159
841.564	24091
841.701	24007
841.838	24057
841.975	23946
842.112	24026
842.249	23977
842.385	23863
842.522	23999
842.659	23847
842.796	23836
842.933	23767
843.069	23805
843.206	23718
843.343	23874
843.479	23874
843.616	23851
843.752	23577
843.889	23653
844.025	23813
844.162	23535
844.298	23649
844.435	23547
844.571	23539
844.708	23558
844.844	23813
844.98	23653
845.117	23608
845.253	23535
845.389	23463
845.525	23505
845.661	23539
845.798	23425
845.934	23303
846.07	23322
846.206	23353
846.342	23421
846.478	23337
846.614	23174
846.75	23029
846.886	22946
847.022	23041
847.158	23117
847.294	23079
847.429	22991
847.565	22968
847.701	23277
847.837	22877
847.972	22679
848.108	22889
848.244	22850
848.379	22656
848.515	22573
848.65	22679
848.786	22580
848.921	22675
849.057	22729
849.192	22744
849.328	22516
849.463	22440
849.598	22622
849.734	22481
849.869	22584
850.004	22329
850.14	22550
850.275	22527
850.41	22329
850.545	22413
850.68	22314
850.815	22371
850.95	22344
851.085	22504
851.22	22440
851.355	22409
851.49	22272
851.625	22303
851.76	22268
851.895	22287
852.03	22367
852.165	22459
852.299	22405
852.434	22363
852.569	22481
852.703	22314
852.838	22489
852.973	22504
853.107	22455
853.242	22329
853.376	22207
853.511	21979
853.645	22204
853.78	22379
853.914	22261
854.048	22154
854.183	22120
854.317	22348
854.451	22390
854.585	22200
854.72	22295
854.854	22268
854.988	22051
855.122	22181
855.256	22093
855.39	22143
855.524	22363
855.658	22246
855.792	22295
855.926	22097
856.06	22265
856.194	22322
856.327	22230
856.461	22287
856.595	22139
856.729	22120
856.862	22318
856.996	22223
857.13	22329
857.263	22303
857.397	22185
857.53	22207
857.664	22261
857.797	22116
857.931	22379
858.064	22192
858.197	22360
858.331	22215
858.464	22093
858.597	22093
858.731	22147
858.864	22158
858.997	22097
859.13	22219
859.263	22261
859.396	22230
859.529	22246
859.662	22272
859.795	22150
859.928	22257
860.061	22280
860.194	22436
860.327	22348
860.46	22257
860.592	22310
860.725	22325
860.858	22314
860.99	22196
861.123	22086
861.256	22143
861.388	22333
861.521	22976
861.653	22093
861.786	21915
861.918	22051
862.05	22109
862.183	22109
862.315	22124
862.447	22223
862.58	22112
862.712	21895
862.844	21934
862.976	22051
863.108	22169
863.24	22417
863.372	21793
863.504	21972
863.636	21873
863.768	21949
863.9	21876
864.032	21968
864.164	21975
864.296	21956
864.428	22177
864.559	21907
864.691	21941
864.823	21949
864.954	21968
865.086	21876
865.217	21975
865.349	21717
865.48	21800
865.612	21713
865.743	22051
865.875	21861
866.006	21800
866.137	21789
866.269	21812
866.4	21827
866.531	21679
866.662	21652
866.793	21690
866.924	21857
867.055	21797
867.186	21797
867.317	21652
867.448	21652
867.579	21656
867.71	21667
867.841	21679
867.972	21781
868.103	21751
868.233	21728
868.364	21747
868.495	21728
868.625	21926
868.756	22029
868.886	21941
869.017	21876
869.147	22131
869.278	22109
869.408	21953
869.539	22032
869.669	22101
869.799	22029
869.929	22067
870.06	22082
870.19	22246
870.32	22310
870.45	22325
870.58	22405
870.71	22417
870.84	22455
870.97	22363
871.1	22432
871.23	22561
871.36	22599
871.489	22466
871.619	22512
871.749	22478
871.879	22573
872.008	22687
872.138	22512
872.267	22550
872.397	22470
872.526	22394
872.656	22402
872.785	22428
872.915	22596
873.044	22634
873.173	22519
873.303	22599
873.432	22630
873.561	22687
873.69	22538
873.819	22577
873.948	22748
874.077	22649
874.206	22557
874.335	22599
874.464	22820
874.593	22835
874.722	22828
874.851	22812
874.979	22820
875.108	22850
875.237	22835
875.365	22687
875.494	22615
875.623	22904
875.751	22831
875.88	22755
876.008	22881
876.136	22984
876.265	23311
876.393	23159
876.521	23322
876.65	23242
876.778	23041
876.906	23185
877.034	23181
877.162	23143
877.29	23018
877.418	23170
877.546	23102
877.674	23220
877.802	23204
877.93	23170
878.058	23216
878.185	22961
878.313	23193
878.441	23174
878.568	22953
878.696	23147
878.824	23098
878.951	23296
879.079	23280
879.206	23528
879.333	23383
879.461	23178
879.588	23242
879.715	23349
879.842	23406
879.97	23162
880.097	23033
880.224	23048
880.351	23056
880.478	23044
880.605	22946
880.732	23056
880.859	23200
880.986	23041
881.112	22968
881.239	22881
881.366	22733
881.493	22649
881.619	22550
881.746	22622
881.872	22626
881.999	22565
882.125	22428
882.252	22618
882.378	22561
882.505	22675
882.631	22508
882.757	22280
882.883	22322
883.01	22177
883.136	22150
883.262	22112
883.388	22063
883.514	22226
883.64	22360
883.766	22067
883.892	21899
884.018	22067
884.143	22128
884.269	22268
884.395	21949
884.52	21831
884.646	21732
884.772	21789
884.897	21698
885.023	21884
885.148	21953
885.274	21979
885.399	21934
885.524	21903
885.65	21960
885.775	21850
885.9	21892
886.025	21915
886.15	21994
886.275	21869
886.4	21751
886.525	21869
886.65	21793
886.775	21736
886.9	21983
887.025	22135
887.149	21865
887.274	21690
887.399	21679
887.523	21614
887.648	21469
887.773	21603
887.897	21534
888.021	21694
888.146	21545
888.27	21831
888.395	21724
888.519	21686
888.643	21557
888.767	21781
888.891	21530
889.015	21424
889.139	21603
889.263	21332
889.387	21507
889.511	21549
889.635	21492
889.759	21519
889.883	21370
890.006	21344
890.13	21477
890.254	21264
890.377	21245
890.501	21184
890.624	21138
890.748	21245
890.871	21051
890.995	20967
891.118	20914
891.241	21051
891.364	20979
891.488	21165
891.611	20956
891.734	20971
891.857	21051
891.98	21100
892.103	21066
892.226	20941
892.349	20956
892.471	20708
892.594	21001
892.717	20941
892.839	20823
892.962	20891
893.085	20948
893.207	20910
893.33	20834
893.452	20880
893.575	20937
893.697	20830
893.819	20864
893.941	21070
894.064	20891
894.186	20838
894.308	20819
894.43	20971
894.552	20956
894.674	20826
894.796	20724
894.918	20811
895.04	20868
895.161	20948
895.283	20872
895.405	20750
895.526	20861
895.648	20956
895.769	20842
895.891	20857
896.012	21043
896.134	21028
896.255	20811
896.376	20921
896.498	20819
896.619	20910
896.74	20845
896.861	20857
896.982	21268
897.103	21294
897.224	21165
897.345	21070
897.466	20952
897.587	21001
897.708	21283
897.828	21108
897.949	21024
898.07	20982
898.19	21005
898.311	21180
898.431	21062
898.552	21028
898.672	21047
898.792	21138
898.913	21230
899.033	20960
899.153	20944
899.273	20781
899.393	20845
899.513	20845
899.633	20853
899.753	20720
899.873	20807
899.993	20682
900.113	20773
900.232	20834
900.352	20727
900.472	20651
900.591	20552
900.711	20598
900.83	20564
900.95	20659
901.069	20632
901.189	20492
901.308	20313
901.427	20221
901.546	20161
901.665	20248
901.784	20176
901.904	20115
902.023	19944
902.141	19681
902.26	19708
902.379	19772
902.498	19715
902.617	19708
902.735	19719
902.854	19529
902.973	19525
903.091	19426
903.21	19240
903.328	19343
903.446	19327
903.565	19103
903.683	19160
903.801	19084
903.919	19099
904.038	19057
904.156	18996
904.274	18875
904.392	18882
904.51	18859
904.627	18947
904.745	18909
904.863	18848
904.981	18646
905.098	18654
905.216	18631
905.334	18498
905.451	18532
905.569	18544
905.686	18661
905.803	18563
905.921	18353
906.038	18369
906.155	18311
906.272	18304
906.389	18426
906.506	17988
906.623	18087
906.74	18129
906.857	18011
906.974	17977
907.091	18114
907.208	18258
907.324	18114
907.441	17954
907.557	17885
907.674	17794
907.79	17714
907.907	17760
908.023	17794
908.139	17885
908.256	17642
908.372	17733
908.488	17646
908.604	17623
908.72	17493
908.836	17452
908.952	17520
909.068	17490
909.184	17672
909.3	17512
909.415	17558
909.531	17509
909.647	17269
909.762	17216
909.878	17132
909.993	17189
910.108	17193
910.224	17143
910.339	17193
910.454	17170
910.57	17010
910.685	16942
910.8	17113
910.915	17102
911.03	16953
911.145	16733
911.259	16835
911.374	16869
911.489	16721
911.604	16603
911.718	16558
911.833	16519
911.947	16432
912.062	16268
912.176	16527
912.291	16516
912.405	16580
912.519	16729
912.633	16793
912.748	16531
912.862	16554
912.976	16322
913.09	16287
913.204	16295
913.318	16382
913.431	16546
913.545	16424
913.659	16382
913.772	16337
913.886	16215
914	15972
914.113	16303
914.226	16284
914.34	16147
914.453	16010
914.566	16086
914.68	16013
914.793	16013
914.906	15838
915.019	15812
915.132	15519
915.245	15709
915.358	15694
915.47	15831
915.583	15751
915.696	15785
915.809	15922
915.921	15819
916.034	15736
916.146	15625
916.259	15591
916.371	15736
916.483	15591
916.595	15462
916.708	15637
916.82	15530
916.932	15443
917.044	15584
917.156	15488
917.268	15351
917.38	15355
917.491	15348
917.603	15313
917.715	15435
917.826	15420
917.938	15332
918.049	15214
918.161	15294
918.272	15401
918.384	15386
918.495	15302
918.606	15169
918.717	15001
918.828	15043
918.939	15135
919.05	15043
919.161	15108
919.272	14895
919.383	14998
919.494	15074
919.604	15340
919.715	15062
919.826	14895
919.936	15013
920.047	15108
920.157	15135
920.267	15203
920.378	15074
920.488	15028
920.598	15157
920.708	15363
920.818	15161
920.928	15146
921.038	15408
921.148	15272
921.258	14956
921.368	14883
921.477	14845
921.587	14792
921.697	14663
921.806	14727
921.916	14617
922.025	14454
922.134	14415
922.244	14385
922.353	14374
922.462	14339
922.571	14210
922.68	14149
922.789	14024
922.898	14214
923.007	13932
923.116	14180
923.224	14035
923.333	14065
923.442	13906
923.55	13894
923.659	13932
923.767	13894
923.876	13845
923.984	13860
924.092	13788
924.201	13791
924.309	13864
924.417	13761
924.525	13746
924.633	13746
924.741	14640
924.849	13495
924.956	13597
925.064	13502
925.172	13430
925.279	13426
925.387	13403
925.494	13460
925.602	13480
925.709	13502
925.816	13362
925.924	13502
926.031	13438
926.138	13316
926.245	13384
926.352	13343
926.459	13441
926.566	13434
926.673	13388
926.779	13088
926.886	13183
926.993	12993
927.099	12966
927.206	12962
927.312	12989
927.419	13031
927.525	13038
927.631	13038
927.737	12825
927.843	12833
927.95	12802
928.056	12821
928.162	12863
928.267	12939
928.373	13381
928.479	12848
928.585	12547
928.69	12719
928.796	12867
928.901	12642
929.007	12403
929.112	12612
929.218	12665
929.323	12521
929.428	12555
929.533	12650
929.638	12464
929.743	12441
929.848	12509
929.953	12429
930.058	12319
930.163	12194
930.267	12201
930.372	12350
930.477	12144
930.581	12327
930.685	12133
930.79	12072
930.894	12091
930.998	11988
931.103	12216
931.207	11840
931.311	11802
931.415	11596
931.519	11493
931.623	11417
