Data from test_V78500241_308.txt Node
Date: Fri Mar 25 15:43:56 CST 2022
User: usil
Spectrometer: V785-0024
Trigger mode: 0
Integration Time (sec): 4.000000E-1
Scans to average: 1
Nonlinearity correction enabled: false
Boxcar width: 0
Storing dark spectrum: false
XAxis mode: Wavelengths
Number of Pixels in Spectrum: 1024
>>>>>Begin Spectral Data<<<<<
801.071	29756
801.214	29836
801.356	29581
801.499	29406
801.641	29315
801.783	29566
801.926	29360
802.068	29353
802.211	29254
802.353	29174
802.496	28991
802.638	29044
802.78	29052
802.923	28896
803.065	29102
803.208	29014
803.35	29060
803.492	29208
803.635	29174
803.777	29113
803.919	29117
804.061	29592
804.204	29284
804.346	29121
804.488	29014
804.63	29181
804.773	29010
804.915	29052
805.057	29212
805.199	29200
805.341	29235
805.483	29296
805.626	29254
805.768	29254
805.91	29288
806.052	29539
806.194	29124
806.336	29615
806.478	29383
806.62	29452
806.762	29402
806.904	29695
807.046	29843
807.188	29802
807.33	29767
807.472	29840
807.614	29592
807.756	29627
807.898	29474
808.04	29436
808.182	29558
808.324	29623
808.465	29554
808.607	29729
808.749	29813
808.891	30053
809.033	30277
809.174	29912
809.316	29908
809.458	29992
809.6	29832
809.741	30041
809.883	30060
810.025	30087
810.166	30197
810.308	30228
810.45	30304
810.591	30148
810.733	29939
810.875	29935
811.016	29764
811.158	29866
811.299	30136
811.441	30155
811.582	29908
811.724	29840
811.865	29969
812.007	29935
812.148	29954
812.29	30022
812.431	30102
812.573	30277
812.714	30441
812.855	30509
812.997	30563
813.138	30825
813.279	30715
813.421	30399
813.562	30399
813.703	30235
813.845	30235
813.986	29840
814.127	29809
814.268	29535
814.41	29463
814.551	29509
814.692	29737
814.833	29543
814.974	29490
815.115	29672
815.256	29490
815.397	29463
815.539	29417
815.68	29493
815.821	29349
815.962	29444
816.103	29387
816.244	29227
816.385	29258
816.526	29128
816.666	29064
816.807	28847
816.948	28934
817.089	28923
817.23	28820
817.371	28828
817.512	28774
817.653	28755
817.793	28805
817.934	28790
818.075	28847
818.216	28771
818.356	28828
818.497	28736
818.638	28592
818.778	28546
818.919	28504
819.06	28588
819.2	28698
819.341	28660
819.481	28816
819.622	28999
819.762	29151
819.903	29025
820.043	28946
820.184	28904
820.324	29022
820.465	28923
820.605	28927
820.746	28987
820.886	28767
821.026	28877
821.167	28850
821.307	28991
821.447	28740
821.588	28786
821.728	28679
821.868	28401
822.008	28234
822.149	28177
822.289	28158
822.429	28006
822.569	27903
822.709	27884
822.849	27732
822.99	27743
823.13	27644
823.27	27869
823.41	27492
823.55	27435
823.69	27690
823.83	27549
823.97	27469
824.11	27298
824.25	27222
824.389	27378
824.529	27538
824.669	27427
824.809	27504
824.949	27424
825.089	27408
825.228	27405
825.368	27340
825.508	27127
825.648	27100
825.787	27211
825.927	27252
826.067	27192
826.206	27161
826.346	27268
826.485	27142
826.625	27176
826.765	27233
826.904	27241
827.044	27116
827.183	26940
827.323	26849
827.462	27089
827.601	26899
827.741	26811
827.88	27036
828.02	26785
828.159	26864
828.298	26830
828.437	26887
828.577	26773
828.716	26956
828.855	26777
828.994	26625
829.134	26560
829.273	26564
829.412	26522
829.551	26377
829.69	26640
829.829	26518
829.968	26579
830.107	26750
830.246	26571
830.385	26560
830.524	26453
830.663	26298
830.802	26240
830.941	26088
831.08	26027
831.219	26149
831.357	26221
831.496	26301
831.635	26016
831.774	26126
831.913	26046
832.051	25875
832.19	25890
832.329	25940
832.467	25772
832.606	25628
832.744	25757
832.883	25807
833.022	25696
833.16	25715
833.299	25814
833.437	25704
833.576	25788
833.714	25856
833.852	25799
833.991	25814
834.129	25986
834.267	25807
834.406	25700
834.544	25860
834.682	25719
834.821	25723
834.959	25993
835.097	25655
835.235	25822
835.373	25772
835.511	25674
835.65	25662
835.788	25571
835.926	25518
836.064	25377
836.202	25434
836.34	25647
836.478	25753
836.615	25548
836.753	25582
836.891	25597
837.029	25590
837.167	25377
837.305	25411
837.443	25495
837.58	25487
837.718	25415
837.856	25476
837.993	25221
838.131	25255
838.269	25316
838.406	25251
838.544	24985
838.681	24970
838.819	25019
838.956	25034
839.094	24928
839.231	24814
839.369	24928
839.506	25228
839.643	25019
839.781	24745
839.918	24730
840.055	24810
840.193	24825
840.33	24863
840.467	24791
840.604	24757
840.742	24973
840.879	24582
841.016	24700
841.153	24509
841.29	24738
841.427	24540
841.564	24684
841.701	24738
841.838	24715
841.975	24494
842.112	24570
842.249	24414
842.385	24445
842.522	24776
842.659	24365
842.796	24353
842.933	24437
843.069	24220
843.206	24388
843.343	24380
843.479	24384
843.616	24445
843.752	24205
843.889	24186
844.025	24342
844.162	24117
844.298	24224
844.435	24098
844.571	24114
844.708	24167
844.844	24323
844.98	24235
845.117	24289
845.253	24083
845.389	24068
845.525	24072
845.661	24076
845.798	23904
845.934	23874
846.07	23893
846.206	23866
846.342	23882
846.478	23786
846.614	23608
846.75	23520
846.886	23627
847.022	23543
847.158	23596
847.294	23554
847.429	23745
847.565	23611
847.701	23790
847.837	23204
847.972	23216
848.108	23345
848.244	23376
848.379	23212
848.515	23151
848.65	23185
848.786	23121
848.921	23090
849.057	23334
849.192	23102
849.328	23052
849.463	23117
849.598	23067
849.734	23018
849.869	22972
850.004	22923
850.14	23071
850.275	23018
850.41	22850
850.545	22843
850.68	22976
850.815	22938
850.95	23014
851.085	22999
851.22	22987
851.355	22858
851.49	22843
851.625	22812
851.76	22854
851.895	22691
852.03	22946
852.165	22873
852.299	22965
852.434	22984
852.569	22862
852.703	22930
852.838	22908
852.973	22953
853.107	22984
853.242	22809
853.376	22618
853.511	22508
853.645	22630
853.78	22710
853.914	22641
854.048	22599
854.183	22523
854.317	22634
854.451	22740
854.585	22599
854.72	22683
854.854	22763
854.988	22550
855.122	22755
855.256	22645
855.39	22653
855.524	22672
855.658	22668
855.792	22611
855.926	22645
856.06	22740
856.194	22702
856.327	22637
856.461	22554
856.595	22512
856.729	22721
856.862	22717
856.996	22679
857.13	22710
857.263	22713
857.397	22687
857.53	22630
857.664	22672
857.797	22694
857.931	22611
858.064	22786
858.197	22786
858.331	22668
858.464	22687
858.597	22523
858.731	22634
858.864	22694
858.997	22710
859.13	22508
859.263	22687
859.396	22740
859.529	22584
859.662	22432
859.795	22611
859.928	22679
860.061	22786
860.194	22694
860.327	22577
860.46	22607
860.592	22820
860.725	22767
860.858	22740
860.99	22557
861.123	22561
861.256	22573
861.388	22710
861.521	23414
861.653	22504
861.786	22344
861.918	22481
862.05	22592
862.183	22512
862.315	22569
862.447	22660
862.58	22729
862.712	22474
862.844	22310
862.976	22523
863.108	22428
863.24	22843
863.372	22249
863.504	22318
863.636	22348
863.768	22310
863.9	22223
864.032	22185
864.164	22207
864.296	22299
864.428	22436
864.559	22257
864.691	22428
864.823	22303
864.954	22192
865.086	22284
865.217	22181
865.349	22150
865.48	22059
865.612	22215
865.743	22341
865.875	22249
866.006	22135
866.137	22337
866.269	22131
866.4	22090
866.531	22166
866.662	22158
866.793	22044
866.924	22147
867.055	22162
867.186	21994
867.317	22029
867.448	21979
867.579	22093
867.71	21972
867.841	21998
867.972	22128
868.103	22215
868.233	22101
868.364	22112
868.495	22128
868.625	22402
868.756	22440
868.886	22284
869.017	22333
869.147	22386
869.278	22474
869.408	22272
869.539	22409
869.669	22303
869.799	22367
869.929	22409
870.06	22375
870.19	22550
870.32	22557
870.45	22687
870.58	22691
870.71	22740
870.84	22835
870.97	22645
871.1	22763
871.23	22965
871.36	22831
871.489	22782
871.619	22839
871.749	22908
871.879	22892
872.008	23010
872.138	22957
872.267	23037
872.397	22767
872.526	22687
872.656	22736
872.785	22774
872.915	22976
873.044	23025
873.173	22938
873.303	23003
873.432	23018
873.561	22999
873.69	22889
873.819	22972
873.948	23003
874.077	22927
874.206	22953
874.335	22911
874.464	22934
874.593	23193
874.722	23143
874.851	23231
874.979	23124
875.108	23185
875.237	23064
875.365	22976
875.494	23056
875.623	23140
875.751	23079
875.88	23132
876.008	23292
876.136	23254
876.265	23463
876.393	23596
876.521	23733
876.65	23657
876.778	23547
876.906	23543
877.034	23425
877.162	23505
877.29	23448
877.418	23463
877.546	23436
877.674	23509
877.802	23421
877.93	23493
878.058	23436
878.185	23315
878.313	23368
878.441	23539
878.568	23326
878.696	23436
878.824	23368
878.951	23547
879.079	23710
879.206	23714
879.333	23634
879.461	23528
879.588	23627
879.715	23615
879.842	23760
879.97	23566
880.097	23330
880.224	23265
880.351	23337
880.478	23356
880.605	23349
880.732	23379
880.859	23566
880.986	23364
881.112	23288
881.239	23052
881.366	22953
881.493	23003
881.619	22850
881.746	22847
881.872	22790
881.999	22698
882.125	22801
882.252	22915
882.378	22839
882.505	23003
882.631	22721
882.757	22733
882.883	22706
883.01	22554
883.136	22417
883.262	22417
883.388	22432
883.514	22622
883.64	22531
883.766	22512
883.892	22325
884.018	22344
884.143	22447
884.269	22489
884.395	22192
884.52	22093
884.646	22207
884.772	22017
884.897	22188
885.023	22055
885.148	22200
885.274	22325
885.399	22417
885.524	22181
885.65	22200
885.775	22162
885.9	22200
886.025	22261
886.15	22192
886.275	22116
886.4	22143
886.525	22063
886.65	22059
886.775	22040
886.9	22200
887.025	22356
887.149	22070
887.274	21945
887.399	21949
887.523	21816
887.648	21861
887.773	21842
887.897	22013
888.021	21949
888.146	21842
888.27	21930
888.395	21987
888.519	21956
888.643	21812
888.767	21956
888.891	21926
889.015	21736
889.139	21724
889.263	21755
889.387	21762
889.511	21903
889.635	21739
889.759	21663
889.883	21633
890.006	21625
890.13	21675
890.254	21603
890.377	21625
890.501	21428
890.624	21408
890.748	21469
890.871	21344
890.995	21226
891.118	21104
891.241	21260
891.364	21275
891.488	21450
891.611	21222
891.734	21180
891.857	21260
891.98	21272
892.103	21336
892.226	21218
892.349	21192
892.471	20994
892.594	21119
892.717	21127
892.839	21036
892.962	21195
893.085	21154
893.207	21093
893.33	21123
893.452	20986
893.575	21237
893.697	21085
893.819	21336
893.941	21291
894.064	21310
894.186	21066
894.308	20944
894.43	21089
894.552	21256
894.674	21256
894.796	21077
894.918	21108
895.04	21077
895.161	21154
895.283	21089
895.405	21024
895.526	21089
895.648	21047
895.769	21199
895.891	21199
896.012	21192
896.134	21256
896.255	21237
896.376	21085
896.498	21066
896.619	21245
896.74	21226
896.861	21218
896.982	21454
897.103	21603
897.224	21443
897.345	21389
897.466	21245
897.587	21287
897.708	21523
897.828	21214
897.949	21310
898.07	21108
898.19	21233
898.311	21408
898.431	21272
898.552	21382
898.672	21287
898.792	21287
898.913	21321
899.033	21173
899.153	20990
899.273	20975
899.393	20929
899.513	21043
899.633	21013
899.753	20899
899.873	20937
899.993	20986
900.113	20933
900.232	20994
900.352	20834
900.472	20845
900.591	20796
900.711	20765
900.83	20743
900.95	20899
901.069	20971
901.189	20625
901.308	20446
901.427	20412
901.546	20404
901.665	20408
901.784	20396
901.904	20290
902.023	20005
902.141	19921
902.26	19921
902.379	19967
902.498	19795
902.617	19772
902.735	19970
902.854	19799
902.973	19826
903.091	19681
903.21	19510
903.328	19441
903.446	19460
903.565	19312
903.683	19400
903.801	19179
903.919	19175
904.038	19312
904.156	19050
904.274	19099
904.392	18966
904.51	18977
904.627	19091
904.745	19072
904.863	19050
904.981	18886
905.098	18760
905.216	18726
905.334	18795
905.451	18757
905.569	18642
905.686	18669
905.803	18650
905.921	18566
906.038	18604
906.155	18479
906.272	18350
906.389	18452
906.506	18224
906.623	18281
906.74	18353
906.857	17961
906.974	18159
907.091	18220
907.208	18232
907.324	18243
907.441	18174
907.557	17942
907.674	17897
907.79	17786
907.907	17855
908.023	17939
908.139	17866
908.256	17821
908.372	17809
908.488	17840
908.604	17596
908.72	17627
908.836	17695
908.952	17543
909.068	17680
909.184	17676
909.3	17566
909.415	17703
909.531	17581
909.647	17356
909.762	17379
909.878	17307
909.993	17239
910.108	17337
910.224	17242
910.339	17273
910.454	17204
910.57	17140
910.685	16995
910.8	17383
910.915	17250
911.03	17071
911.145	16923
911.259	16881
911.374	16877
911.489	16885
911.604	16691
911.718	16603
911.833	16565
911.947	16538
912.062	16432
912.176	16615
912.291	16656
912.405	16599
912.519	16786
912.633	16774
912.748	16672
912.862	16573
912.976	16436
913.09	16318
913.204	16382
913.318	16371
913.431	16428
913.545	16363
913.659	16466
913.772	16428
913.886	16257
914	16131
914.113	16249
914.226	16272
914.34	16268
914.453	15998
914.566	16204
914.68	16078
914.793	15987
914.906	15743
915.019	15797
915.132	15781
915.245	15835
915.358	15827
915.47	15724
915.583	15816
915.696	15774
915.809	15884
915.921	15895
916.034	15739
916.146	15656
916.259	15584
916.371	15686
916.483	15686
916.595	15698
916.708	15576
916.82	15599
916.932	15545
917.044	15515
917.156	15530
917.268	15428
917.38	15443
917.491	15336
917.603	15359
917.715	15511
917.826	15523
917.938	15291
918.049	15230
918.161	15416
918.272	15545
918.384	15492
918.495	15291
918.606	15127
918.717	15036
918.828	15116
918.939	15275
919.05	14937
919.161	14963
919.272	14914
919.383	15013
919.494	15154
919.604	15272
919.715	15157
919.826	14887
919.936	15028
920.047	15150
920.157	15020
920.267	15283
920.378	15165
920.488	15020
920.598	15325
920.708	15348
920.818	15211
920.928	15150
921.038	15310
921.148	15321
921.258	15032
921.368	14899
921.477	14811
921.587	14834
921.697	14621
921.806	14815
921.916	14678
922.025	14537
922.134	14415
922.244	14332
922.353	14446
922.462	14263
922.571	14294
922.68	14054
922.789	14039
922.898	13989
923.007	13928
923.116	14077
923.224	14035
923.333	13997
923.442	13970
923.55	13780
923.659	13928
923.767	13845
923.876	13708
923.984	13852
924.092	13731
924.201	13780
924.309	13723
924.417	13734
924.525	13719
924.633	13674
924.741	14590
924.849	13537
924.956	13647
925.064	13464
925.172	13468
925.279	13464
925.387	13350
925.494	13430
925.602	13670
925.709	13434
925.816	13335
925.924	13320
926.031	13537
926.138	13343
926.245	13476
926.352	13324
926.459	13384
926.566	13350
926.673	13255
926.779	13190
926.886	13095
926.993	13019
927.099	12973
927.206	12928
927.312	12996
927.419	12970
927.525	12973
927.631	13019
927.737	12837
927.843	12852
927.95	12741
928.056	12741
928.162	12795
928.267	12882
928.373	13422
928.479	12787
928.585	12612
928.69	12738
928.796	12791
928.901	12681
929.007	12490
929.112	12665
929.218	12635
929.323	12513
929.428	12582
929.533	12662
929.638	12380
929.743	12517
929.848	12506
929.953	12426
930.058	12311
930.163	12159
930.267	12178
930.372	12205
930.477	12140
930.581	12342
930.685	12205
930.79	12015
930.894	12057
930.998	12038
931.103	12155
931.207	11790
931.311	11668
931.415	11600
931.519	11402
931.623	11341
