Data from test_V78500241_2805.txt Node
Date: Fri Mar 25 16:01:13 CST 2022
User: usil
Spectrometer: V785-0024
Trigger mode: 0
Integration Time (sec): 4.000000E-1
Scans to average: 1
Nonlinearity correction enabled: false
Boxcar width: 0
Storing dark spectrum: false
XAxis mode: Wavelengths
Number of Pixels in Spectrum: 1024
>>>>>Begin Spectral Data<<<<<
801.071	29098
801.214	29075
801.356	28805
801.499	28778
801.641	28649
801.783	28713
801.926	28713
802.068	28740
802.211	28645
802.353	28573
802.496	28413
802.638	28375
802.78	28230
802.923	28314
803.065	28234
803.208	28356
803.35	28375
803.492	28443
803.635	28538
803.777	28542
803.919	28672
804.061	28896
804.204	28706
804.346	28607
804.488	28466
804.63	28660
804.773	28584
804.915	28611
805.057	28801
805.199	28645
805.341	28618
805.483	28721
805.626	28691
805.768	28687
805.91	28801
806.052	28824
806.194	28854
806.336	29086
806.478	28721
806.62	28809
806.762	29003
806.904	28984
807.046	29315
807.188	29303
807.33	29216
807.472	29364
807.614	29185
807.756	29197
807.898	29071
808.04	29022
808.182	29128
808.324	29109
808.465	29140
808.607	29402
808.749	29547
808.891	29493
809.033	29589
809.174	29505
809.316	29391
809.458	29501
809.6	29501
809.741	29577
809.883	29684
810.025	29965
810.166	29691
810.308	29821
810.45	29729
810.591	29737
810.733	29566
810.875	29490
811.016	29406
811.158	29410
811.299	29691
811.441	29668
811.582	29741
811.724	29528
811.865	29547
812.007	29566
812.148	29592
812.29	29665
812.431	29684
812.573	29946
812.714	29893
812.855	30030
812.997	30159
813.138	30361
813.279	30083
813.421	29950
813.562	30068
813.703	29996
813.845	29737
813.986	29524
814.127	29318
814.268	29330
814.41	29280
814.551	29288
814.692	29341
814.833	29261
814.974	29250
815.115	29273
815.256	29128
815.397	29094
815.539	29178
815.68	29159
815.821	29212
815.962	29071
816.103	29075
816.244	28854
816.385	28847
816.526	28790
816.666	28767
816.807	28470
816.948	28603
817.089	28706
817.23	28557
817.371	28459
817.512	28577
817.653	28512
817.793	28546
817.934	28596
818.075	28550
818.216	28462
818.356	28531
818.497	28360
818.638	28291
818.778	28341
818.919	28287
819.06	28440
819.2	28371
819.341	28573
819.481	28603
819.622	28835
819.762	29018
819.903	28755
820.043	28801
820.184	28725
820.324	28615
820.465	28782
820.605	28713
820.746	28618
820.886	28611
821.026	28725
821.167	28645
821.307	28653
821.447	28573
821.588	28424
821.728	28386
821.868	28200
822.008	27911
822.149	28139
822.289	27983
822.429	27755
822.569	27682
822.709	27736
822.849	27713
822.99	27580
823.13	27488
823.27	27507
823.41	27416
823.55	27199
823.69	27370
823.83	27408
823.97	27310
824.11	27249
824.25	27173
824.389	27211
824.529	27272
824.669	27157
824.809	27218
824.949	27249
825.089	27313
825.228	27325
825.368	27112
825.508	27062
825.648	27116
825.787	27074
825.927	27230
826.067	26910
826.206	27100
826.346	27173
826.485	27074
826.625	27176
826.765	27249
826.904	27252
827.044	26990
827.183	26792
827.323	26773
827.462	26925
827.601	26963
827.741	26731
827.88	26899
828.02	26712
828.159	26769
828.298	26834
828.437	26849
828.577	26727
828.716	26902
828.855	26788
828.994	26492
829.134	26617
829.273	26552
829.412	26446
829.551	26518
829.69	26514
829.829	26465
829.968	26651
830.107	26583
830.246	26480
830.385	26533
830.524	26355
830.663	26313
830.802	26202
830.941	26081
831.08	26126
831.219	26069
831.357	26168
831.496	26377
831.635	26134
831.774	25982
831.913	26024
832.051	25951
832.19	25909
832.329	25940
832.467	25788
832.606	25643
832.744	25666
832.883	25841
833.022	25757
833.16	25791
833.299	25818
833.437	25936
833.576	25769
833.714	25830
833.852	25868
833.991	25963
834.129	25986
834.267	26027
834.406	25898
834.544	25856
834.682	25738
834.821	25784
834.959	26088
835.097	25723
835.235	25932
835.373	25852
835.511	25849
835.65	25734
835.788	25757
835.926	25655
836.064	25476
836.202	25518
836.34	25677
836.478	25655
836.615	25639
836.753	25563
836.891	25666
837.029	25655
837.167	25544
837.305	25662
837.443	25518
837.58	25510
837.718	25670
837.856	25518
837.993	25502
838.131	25411
838.269	25346
838.406	25308
838.544	25415
838.681	25206
838.819	25103
838.956	24947
839.094	24970
839.231	25046
839.369	25285
839.506	25403
839.643	25110
839.781	24840
839.918	24970
840.055	25015
840.193	24886
840.33	24798
840.467	24886
840.604	24802
840.742	25187
840.879	24776
841.016	24844
841.153	24779
841.29	24913
841.427	24814
841.564	24920
841.701	24688
841.838	24795
841.975	24798
842.112	24878
842.249	24719
842.385	24631
842.522	24833
842.659	24734
842.796	24563
842.933	24570
843.069	24574
843.206	24460
843.343	24848
843.479	24665
843.616	24722
843.752	24338
843.889	24407
844.025	24521
844.162	24346
844.298	24448
844.435	24407
844.571	24460
844.708	24346
844.844	24490
844.98	24593
845.117	24384
845.253	24319
845.389	24159
845.525	24213
845.661	24216
845.798	24304
845.934	24174
846.07	24041
846.206	24190
846.342	24216
846.478	24087
846.614	23794
846.75	23760
846.886	23863
847.022	23851
847.158	23866
847.294	23802
847.429	23908
847.565	23939
847.701	24213
847.837	23687
847.972	23558
848.108	23714
848.244	23585
848.379	23406
848.515	23444
848.65	23250
848.786	23539
848.921	23364
849.057	23349
849.192	23535
849.328	23436
849.463	23421
849.598	23471
849.734	23258
849.869	23178
850.004	23277
850.14	23174
850.275	23246
850.41	23170
850.545	23147
850.68	23178
850.815	23193
850.95	23117
851.085	23410
851.22	23269
851.355	23181
851.49	23239
851.625	23113
851.76	23254
851.895	23185
852.03	23052
852.165	23162
852.299	23200
852.434	23265
852.569	23265
852.703	23200
852.838	23204
852.973	23299
853.107	23311
853.242	23159
853.376	23003
853.511	22968
853.645	22976
853.78	22980
853.914	22957
854.048	22885
854.183	22961
854.317	23041
854.451	23147
854.585	23075
854.72	22911
854.854	23113
854.988	22972
855.122	23010
855.256	22790
855.39	23041
855.524	22949
855.658	23079
855.792	22942
855.926	22995
856.06	23056
856.194	22987
856.327	22984
856.461	22881
856.595	22930
856.729	22980
856.862	23140
856.996	22987
857.13	22961
857.263	23155
857.397	23136
857.53	22965
857.664	22892
857.797	23155
857.931	23181
858.064	23006
858.197	23117
858.331	22987
858.464	22892
858.597	22923
858.731	22938
858.864	22896
858.997	22976
859.13	22972
859.263	22965
859.396	23128
859.529	22881
859.662	22904
859.795	22923
859.928	23018
860.061	23178
860.194	23189
860.327	23109
860.46	23064
860.592	23010
860.725	23181
860.858	23105
860.99	22915
861.123	22923
861.256	22930
861.388	22999
861.521	23771
861.653	22908
861.786	22687
861.918	22889
862.05	22923
862.183	22915
862.315	22972
862.447	22995
862.58	22866
862.712	22797
862.844	22653
862.976	22721
863.108	22691
863.24	23052
863.372	22622
863.504	22778
863.636	22691
863.768	22786
863.9	22721
864.032	22668
864.164	22702
864.296	22702
864.428	22668
864.559	22759
864.691	22755
864.823	22641
864.954	22782
865.086	22797
865.217	22717
865.349	22645
865.48	22523
865.612	22656
865.743	22721
865.875	22516
866.006	22523
866.137	22550
866.269	22508
866.4	22557
866.531	22516
866.662	22569
866.793	22626
866.924	22500
867.055	22550
867.186	22508
867.317	22474
867.448	22519
867.579	22417
867.71	22394
867.841	22390
867.972	22630
868.103	22455
868.233	22527
868.364	22432
868.495	22622
868.625	22691
868.756	22881
868.886	22740
869.017	22831
869.147	22839
869.278	22847
869.408	22797
869.539	22782
869.669	22820
869.799	22835
869.929	22915
870.06	22774
870.19	22942
870.32	23113
870.45	23155
870.58	23109
870.71	23277
870.84	23311
870.97	23098
871.1	23181
871.23	23387
871.36	23414
871.489	23372
871.619	23345
871.749	23288
871.879	23417
872.008	23520
872.138	23303
872.267	23425
872.397	23311
872.526	23227
872.656	23296
872.785	23166
872.915	23433
873.044	23535
873.173	23326
873.303	23421
873.432	23505
873.561	23482
873.69	23383
873.819	23417
873.948	23520
874.077	23341
874.206	23429
874.335	23528
874.464	23493
874.593	23668
874.722	23634
874.851	23695
874.979	23623
875.108	23653
875.237	23634
875.365	23539
875.494	23619
875.623	23562
875.751	23490
875.88	23630
876.008	23779
876.136	23798
876.265	24129
876.393	24083
876.521	23969
876.65	24076
876.778	24068
876.906	23897
877.034	23923
877.162	23885
877.29	23840
877.418	23927
877.546	23984
877.674	23733
877.802	24011
877.93	23946
878.058	23878
878.185	23710
878.313	23988
878.441	23923
878.568	23821
878.696	23859
878.824	23939
878.951	24098
879.079	23950
879.206	24083
879.333	24091
879.461	23996
879.588	23973
879.715	24083
879.842	24289
879.97	23999
880.097	23695
880.224	23767
880.351	23775
880.478	23722
880.605	23619
880.732	23657
880.859	24007
880.986	23764
881.112	23718
881.239	23611
881.366	23421
881.493	23406
881.619	23421
881.746	23250
881.872	23269
881.999	23429
882.125	23307
882.252	23326
882.378	23307
882.505	23303
882.631	23124
882.757	22908
882.883	23014
883.01	22953
883.136	22972
883.262	22953
883.388	22938
883.514	22877
883.64	22946
883.766	22908
883.892	22691
884.018	22790
884.143	22946
884.269	22934
884.395	22599
884.52	22592
884.646	22573
884.772	22542
884.897	22489
885.023	22573
885.148	22786
885.274	22797
885.399	22542
885.524	22573
885.65	22641
885.775	22748
885.9	22535
886.025	22900
886.15	22565
886.275	22538
886.4	22489
886.525	22592
886.65	22554
886.775	22588
886.9	22675
887.025	22733
887.149	22542
887.274	22421
887.399	22398
887.523	22329
887.648	22379
887.773	22249
887.897	22379
888.021	22261
888.146	22284
888.27	22481
888.395	22481
888.519	22272
888.643	22424
888.767	22405
888.891	22306
889.015	22204
889.139	22242
889.263	22188
889.387	22086
889.511	22276
889.635	22329
889.759	22048
889.883	22143
890.006	22169
890.13	22249
890.254	21953
890.377	22055
890.501	21762
890.624	21899
890.748	21941
890.871	21732
890.995	21637
891.118	21568
891.241	21606
891.364	21663
891.488	21793
891.611	21633
891.734	21671
891.857	21774
891.98	21705
892.103	21823
892.226	21526
892.349	21583
892.471	21485
892.594	21473
892.717	21549
892.839	21504
892.962	21561
893.085	21633
893.207	21504
893.33	21405
893.452	21447
893.575	21553
893.697	21542
893.819	21641
893.941	21694
894.064	21625
894.186	21538
894.308	21561
894.43	21595
894.552	21698
894.674	21610
894.796	21477
894.918	21576
895.04	21458
895.161	21587
895.283	21660
895.405	21370
895.526	21580
895.648	21466
895.769	21462
895.891	21622
896.012	21561
896.134	21557
896.255	21523
896.376	21515
896.498	21492
896.619	21568
896.74	21488
896.861	21519
896.982	21808
897.103	21915
897.224	21743
897.345	21743
897.466	21637
897.587	21660
897.708	21861
897.828	21812
897.949	21717
898.07	21492
898.19	21633
898.311	21774
898.431	21644
898.552	21637
898.672	21739
898.792	21755
898.913	21732
899.033	21580
899.153	21568
899.273	21325
899.393	21351
899.513	21637
899.633	21408
899.753	21416
899.873	21443
899.993	21439
900.113	21336
900.232	21439
900.352	21256
900.472	21241
900.591	21169
900.711	21184
900.83	21188
900.95	21294
901.069	21321
901.189	21077
901.308	20891
901.427	20682
901.546	20701
901.665	20762
901.784	20842
901.904	20648
902.023	20457
902.141	20339
902.26	20313
902.379	20309
902.498	20377
902.617	20252
902.735	20339
902.854	20103
902.973	20256
903.091	20054
903.21	19833
903.328	19879
903.446	19833
903.565	19750
903.683	19696
903.801	19575
903.919	19582
904.038	19643
904.156	19472
904.274	19510
904.392	19476
904.51	19365
904.627	19445
904.745	19495
904.863	19499
904.981	19346
905.098	19084
905.216	19110
905.334	19194
905.451	19183
905.569	19065
905.686	19076
905.803	19175
905.921	18958
906.038	19065
906.155	18947
906.272	18829
906.389	18795
906.506	18707
906.623	18677
906.74	18616
906.857	18677
906.974	18593
907.091	18745
907.208	18783
907.324	18623
907.441	18551
907.557	18448
907.674	18327
907.79	18194
907.907	18422
908.023	18448
908.139	18403
908.256	18224
908.372	18129
908.488	18266
908.604	18011
908.72	18060
908.836	18083
908.952	18129
909.068	18011
909.184	18083
909.3	17996
909.415	17984
909.531	18022
909.647	17920
909.762	17779
909.878	17703
909.993	17760
910.108	17627
910.224	17703
910.339	17775
910.454	17646
910.57	17509
910.685	17512
910.8	17752
910.915	17680
911.03	17630
911.145	17425
911.259	17273
911.374	17258
911.489	17239
911.604	17170
911.718	17075
911.833	17159
911.947	16980
912.062	16961
912.176	16946
912.291	16968
912.405	17060
912.519	17296
912.633	17239
912.748	17105
912.862	17102
912.976	16835
913.09	16702
913.204	16820
913.318	16812
913.431	17045
913.545	16949
913.659	16839
913.772	16683
913.886	16630
914	16599
914.113	16790
914.226	16862
914.34	16634
914.453	16592
914.566	16713
914.68	16493
914.793	16512
914.906	16325
915.019	16185
915.132	16219
915.245	16226
915.358	16238
915.47	16253
915.583	16230
915.696	16207
915.809	16356
915.921	16432
916.034	16143
916.146	16071
916.259	16112
916.371	16124
916.483	16067
916.595	15998
916.708	16002
916.82	16063
916.932	15953
917.044	15998
917.156	15888
917.268	15949
917.38	15846
917.491	15808
917.603	15766
917.715	15926
917.826	15953
917.938	15778
918.049	15633
918.161	15732
918.272	15797
918.384	15812
918.495	15717
918.606	15614
918.717	15538
918.828	15572
918.939	15542
919.05	15485
919.161	15511
919.272	15397
919.383	15408
919.494	15542
919.604	15797
919.715	15561
919.826	15416
919.936	15466
920.047	15614
920.157	15507
920.267	15728
920.378	15526
920.488	15481
920.598	15694
920.708	15823
920.818	15663
920.928	15599
921.038	15698
921.148	15713
921.258	15435
921.368	15412
921.477	15298
921.587	15180
921.697	15081
921.806	15211
921.916	15119
922.025	14906
922.134	14899
922.244	14823
922.353	14937
922.462	14731
922.571	14689
922.68	14602
922.789	14446
922.898	14476
923.007	14446
923.116	14495
923.224	14571
923.333	14377
923.442	14358
923.55	14233
923.659	14415
923.767	14412
923.876	14275
923.984	14278
924.092	14218
924.201	14199
924.309	14210
924.417	14164
924.525	14126
924.633	14180
924.741	15009
924.849	13951
924.956	14050
925.064	13947
925.172	13883
925.279	13856
925.387	13780
925.494	13928
925.602	13906
925.709	13906
925.816	13765
925.924	13811
926.031	13879
926.138	13746
926.245	13830
926.352	13727
926.459	13791
926.566	13902
926.673	13719
926.779	13495
926.886	13506
926.993	13365
927.099	13464
927.206	13266
927.312	13381
927.419	13441
927.525	13266
927.631	13350
927.737	13324
927.843	13171
927.95	13099
928.056	13206
928.162	13263
928.267	13228
928.373	13731
928.479	13232
928.585	12958
928.69	13099
928.796	13175
928.901	13069
929.007	12928
929.112	13095
929.218	12989
929.323	12897
929.428	12962
929.533	12993
929.638	12753
929.743	12890
929.848	12943
929.953	12764
930.058	12639
930.163	12578
930.267	12445
930.372	12768
930.477	12506
930.581	12783
930.685	12604
930.79	12475
930.894	12437
930.998	12388
931.103	12460
931.207	12239
931.311	12114
931.415	11992
931.519	11817
931.623	11786
