Data from test_V78500241_2603.txt Node
Date: Fri Mar 25 15:59:49 CST 2022
User: usil
Spectrometer: V785-0024
Trigger mode: 0
Integration Time (sec): 4.000000E-1
Scans to average: 1
Nonlinearity correction enabled: false
Boxcar width: 0
Storing dark spectrum: false
XAxis mode: Wavelengths
Number of Pixels in Spectrum: 1024
>>>>>Begin Spectral Data<<<<<
801.071	28816
801.214	28828
801.356	28546
801.499	28363
801.641	28409
801.783	28310
801.926	28462
802.068	28333
802.211	28276
802.353	28253
802.496	28128
802.638	27964
802.78	28036
802.923	27888
803.065	27857
803.208	28036
803.35	28025
803.492	28188
803.635	28257
803.777	28257
803.919	28238
804.061	28634
804.204	28363
804.346	28185
804.488	28116
804.63	28386
804.773	28333
804.915	28466
805.057	28474
805.199	28223
805.341	28455
805.483	28447
805.626	28394
805.768	28284
805.91	28451
806.052	28500
806.194	28276
806.336	28580
806.478	28379
806.62	28379
806.762	28569
806.904	28675
807.046	28850
807.188	28976
807.33	28984
807.472	28984
807.614	28843
807.756	28946
807.898	28862
808.04	28877
808.182	28721
808.324	28782
808.465	28866
808.607	28888
808.749	29178
808.891	29140
809.033	29303
809.174	29216
809.316	29189
809.458	29181
809.6	29071
809.741	29178
809.883	29277
810.025	29493
810.166	29402
810.308	29558
810.45	29383
810.591	29280
810.733	29284
810.875	29303
811.016	29006
811.158	29052
811.299	29254
811.441	29307
811.582	29364
811.724	29155
811.865	29208
812.007	29178
812.148	29159
812.29	29284
812.431	29280
812.573	29535
812.714	29623
812.855	29630
812.997	29741
813.138	29961
813.279	29764
813.421	29703
813.562	29748
813.703	29509
813.845	29433
813.986	29147
814.127	28968
814.268	28881
814.41	28942
814.551	28843
814.692	28828
814.833	28649
814.974	28911
815.115	29006
815.256	28866
815.397	28771
815.539	28683
815.68	28691
815.821	28618
815.962	28675
816.103	28805
816.244	28565
816.385	28523
816.526	28405
816.666	28489
816.807	28097
816.948	28291
817.089	28299
817.23	28299
817.371	28268
817.512	28051
817.653	28143
817.793	28112
817.934	28181
818.075	28207
818.216	28226
818.356	28074
818.497	27968
818.638	27983
818.778	27983
818.919	28116
819.06	28025
819.2	28131
819.341	28181
819.481	28234
819.622	28417
819.762	28493
819.903	28409
820.043	28424
820.184	28333
820.324	28329
820.465	28485
820.605	28401
820.746	28280
820.886	28181
821.026	28421
821.167	28272
821.307	28322
821.447	28310
821.588	28002
821.728	28051
821.868	27823
822.008	27709
822.149	27774
822.289	27667
822.429	27408
822.569	27340
822.709	27427
822.849	27154
822.99	27096
823.13	27154
823.27	27169
823.41	27100
823.55	27089
823.69	27017
823.83	27058
823.97	27062
824.11	26804
824.25	26853
824.389	26758
824.529	26952
824.669	26739
824.809	26910
824.949	26994
825.089	26990
825.228	26921
825.368	26804
825.508	26594
825.648	26777
825.787	26689
825.927	26815
826.067	26697
826.206	26663
826.346	26731
826.485	26640
826.625	26796
826.765	26785
826.904	26811
827.044	26590
827.183	26511
827.323	26488
827.462	26453
827.601	26590
827.741	26465
827.88	26393
828.02	26419
828.159	26469
828.298	26575
828.437	26590
828.577	26423
828.716	26385
828.855	26495
828.994	26164
829.134	26115
829.273	26100
829.412	26115
829.551	26176
829.69	26130
829.829	26275
829.968	26157
830.107	26275
830.246	26126
830.385	26081
830.524	26130
830.663	25887
830.802	25928
830.941	25807
831.08	25776
831.219	25712
831.357	25738
831.496	26058
831.635	25769
831.774	25632
831.913	25632
832.051	25761
832.19	25537
832.329	25544
832.467	25464
832.606	25457
832.744	25369
832.883	25525
833.022	25422
833.16	25388
833.299	25556
833.437	25384
833.576	25559
833.714	25479
833.852	25514
833.991	25525
834.129	25590
834.267	25479
834.406	25422
834.544	25525
834.682	25556
834.821	25677
834.959	25647
835.097	25514
835.235	25499
835.373	25415
835.511	25445
835.65	25247
835.788	25339
835.926	25194
836.064	25213
836.202	25274
836.34	25312
836.478	25419
836.615	25316
836.753	25400
836.891	25354
837.029	25400
837.167	25221
837.305	25183
837.443	25156
837.58	25194
837.718	25152
837.856	25107
837.993	25129
838.131	25042
838.269	24996
838.406	25156
838.544	25103
838.681	24776
838.819	24734
838.956	24608
839.094	24616
839.231	24616
839.369	24719
839.506	24981
839.643	24878
839.781	24696
839.918	24490
840.055	24642
840.193	24555
840.33	24585
840.467	24608
840.604	24475
840.742	24757
840.879	24376
841.016	24479
841.153	24243
841.29	24711
841.427	24532
841.564	24460
841.701	24479
841.838	24460
841.975	24414
842.112	24365
842.249	24391
842.385	24155
842.522	24483
842.659	24429
842.796	24121
842.933	24353
843.069	24079
843.206	23999
843.343	24174
843.479	24266
843.616	24220
843.752	24053
843.889	24068
844.025	24144
844.162	24106
844.298	24201
844.435	24079
844.571	23923
844.708	24072
844.844	24110
844.98	24136
845.117	24018
845.253	23893
845.389	23950
845.525	23897
845.661	23832
845.798	23821
845.934	23874
846.07	23566
846.206	23802
846.342	23878
846.478	23718
846.614	23516
846.75	23497
846.886	23429
847.022	23471
847.158	23474
847.294	23478
847.429	23520
847.565	23383
847.701	23817
847.837	23353
847.972	23360
848.108	23410
848.244	23334
848.379	23079
848.515	23128
848.65	23117
848.786	23109
848.921	23124
849.057	23151
849.192	23159
849.328	22980
849.463	23075
849.598	22953
849.734	22934
849.869	22942
850.004	22908
850.14	22778
850.275	22862
850.41	22656
850.545	22782
850.68	22755
850.815	22972
850.95	22816
851.085	22995
851.22	22911
851.355	22858
851.49	22790
851.625	22839
851.76	22717
851.895	22790
852.03	22721
852.165	22763
852.299	22839
852.434	22862
852.569	22843
852.703	22850
852.838	22934
852.973	22866
853.107	22892
853.242	22805
853.376	22603
853.511	22527
853.645	22645
853.78	22767
853.914	22672
854.048	22691
854.183	22729
854.317	22752
854.451	22968
854.585	22645
854.72	22615
854.854	22725
854.988	22508
855.122	22607
855.256	22466
855.39	22683
855.524	22763
855.658	22660
855.792	22736
855.926	22630
856.06	22713
856.194	22869
856.327	22694
856.461	22542
856.595	22607
856.729	22649
856.862	22713
856.996	22683
857.13	22687
857.263	22740
857.397	22706
857.53	22702
857.664	22615
857.797	22668
857.931	22599
858.064	22535
858.197	22771
858.331	22725
858.464	22607
858.597	22512
858.731	22527
858.864	22550
858.997	22538
859.13	22653
859.263	22793
859.396	22675
859.529	22706
859.662	22622
859.795	22538
859.928	22672
860.061	22687
860.194	22862
860.327	22767
860.46	22782
860.592	22744
860.725	22774
860.858	22828
860.99	22630
861.123	22512
861.256	22618
861.388	22653
861.521	23368
861.653	22580
861.786	22382
861.918	22504
862.05	22474
862.183	22455
862.315	22599
862.447	22664
862.58	22500
862.712	22360
862.844	22280
862.976	22409
863.108	22363
863.24	22816
863.372	22303
863.504	22291
863.636	22325
863.768	22466
863.9	22462
864.032	22363
864.164	22409
864.296	22322
864.428	22440
864.559	22478
864.691	22352
864.823	22443
864.954	22295
865.086	22341
865.217	22162
865.349	22204
865.48	22196
865.612	22192
865.743	22310
865.875	22333
866.006	22166
866.137	22226
866.269	22242
866.4	22257
866.531	22128
866.662	22124
866.793	22169
866.924	22135
867.055	22196
867.186	22154
867.317	22105
867.448	22139
867.579	22181
867.71	22082
867.841	22135
867.972	22139
868.103	22295
868.233	22162
868.364	22128
868.495	22284
868.625	22337
868.756	22459
868.886	22272
869.017	22329
869.147	22421
869.278	22474
869.408	22474
869.539	22367
869.669	22402
869.799	22424
869.929	22413
870.06	22565
870.19	22645
870.32	22717
870.45	22850
870.58	22778
870.71	22866
870.84	22889
870.97	22873
871.1	22771
871.23	22885
871.36	23022
871.489	22847
871.619	23041
871.749	23006
871.879	23041
872.008	22995
872.138	23060
872.267	22972
872.397	22835
872.526	22854
872.656	22908
872.785	22736
872.915	22885
873.044	23006
873.173	22980
873.303	23033
873.432	23147
873.561	23003
873.69	22995
873.819	22942
873.948	23258
874.077	23121
874.206	22881
874.335	22976
874.464	23132
874.593	23337
874.722	23143
874.851	23246
874.979	23231
875.108	23299
875.237	23334
875.365	23060
875.494	23151
875.623	23292
875.751	23216
875.88	23147
876.008	23356
876.136	23387
876.265	23604
876.393	23828
876.521	23608
876.65	23589
876.778	23634
876.906	23535
877.034	23493
877.162	23547
877.29	23547
877.418	23600
877.546	23646
877.674	23562
877.802	23551
877.93	23501
878.058	23490
878.185	23364
878.313	23573
878.441	23467
878.568	23372
878.696	23467
878.824	23474
878.951	23573
879.079	23741
879.206	23703
879.333	23843
879.461	23642
879.588	23680
879.715	23615
879.842	23809
879.97	23547
880.097	23455
880.224	23410
880.351	23471
880.478	23398
880.605	23353
880.732	23280
880.859	23699
880.986	23547
881.112	23402
881.239	23159
881.366	23193
881.493	22987
881.619	22889
881.746	23060
881.872	22976
881.999	22900
882.125	22805
882.252	22923
882.378	22972
882.505	22980
882.631	22782
882.757	22664
882.883	22759
883.01	22615
883.136	22630
883.262	22557
883.388	22451
883.514	22641
883.64	22698
883.766	22565
883.892	22394
884.018	22462
884.143	22523
884.269	22630
884.395	22299
884.52	22200
884.646	22173
884.772	22082
884.897	22150
885.023	22166
885.148	22337
885.274	22352
885.399	22371
885.524	22253
885.65	22234
885.775	22280
885.9	22215
886.025	22344
886.15	22242
886.275	22261
886.4	22101
886.525	22272
886.65	22090
886.775	22109
886.9	22341
887.025	22417
887.149	22196
887.274	22036
887.399	21930
887.523	21918
887.648	22036
887.773	21911
887.897	22017
888.021	22048
888.146	21998
888.27	22147
888.395	22124
888.519	22010
888.643	21991
888.767	22116
888.891	21892
889.015	21842
889.139	21835
889.263	21892
889.387	21903
889.511	21895
889.635	21903
889.759	21785
889.883	21823
890.006	21800
890.13	21899
890.254	21671
890.377	21686
890.501	21542
890.624	21572
890.748	21606
890.871	21450
890.995	21389
891.118	21317
891.241	21397
891.364	21386
891.488	21496
891.611	21298
891.734	21336
891.857	21424
891.98	21329
892.103	21374
892.226	21332
892.349	21294
892.471	21108
892.594	21268
892.717	21272
892.839	21165
892.962	21222
893.085	21336
893.207	21245
893.33	21070
893.452	21039
893.575	21279
893.697	21245
893.819	21355
893.941	21405
894.064	21424
894.186	21275
894.308	21161
894.43	21272
894.552	21237
894.674	21146
894.796	21039
894.918	21302
895.04	21192
895.161	21374
895.283	21325
895.405	21116
895.526	21233
895.648	21142
895.769	21157
895.891	21294
896.012	21321
896.134	21298
896.255	21161
896.376	21142
896.498	21203
896.619	21218
896.74	21283
896.861	21157
896.982	21530
897.103	21614
897.224	21393
897.345	21462
897.466	21306
897.587	21389
897.708	21515
897.828	21450
897.949	21477
898.07	21249
898.19	21424
898.311	21428
898.431	21313
898.552	21367
898.672	21332
898.792	21408
898.913	21378
899.033	21367
899.153	21260
899.273	21089
899.393	21032
899.513	21260
899.633	21154
899.753	21077
899.873	21039
899.993	21096
900.113	21039
900.232	21081
900.352	21112
900.472	20910
900.591	20929
900.711	20887
900.83	20861
900.95	20986
901.069	21074
901.189	20758
901.308	20579
901.427	20469
901.546	20396
901.665	20419
901.784	20446
901.904	20278
902.023	20271
902.141	20073
902.26	20020
902.379	19986
902.498	20001
902.617	19860
902.735	19947
902.854	19906
902.973	19841
903.091	19620
903.21	19620
903.328	19609
903.446	19552
903.565	19468
903.683	19419
903.801	19331
903.919	19335
904.038	19434
904.156	19171
904.274	19179
904.392	19156
904.51	19095
904.627	19076
904.745	19217
904.863	19304
904.981	19008
905.098	18856
905.216	18863
905.334	18882
905.451	18844
905.569	18810
905.686	18856
905.803	18753
905.921	18673
906.038	18768
906.155	18654
906.272	18502
906.389	18593
906.506	18429
906.623	18380
906.74	18296
906.857	18235
906.974	18197
907.091	18365
907.208	18365
907.324	18441
907.441	18258
907.557	18087
907.674	18068
907.79	17942
907.907	18003
908.023	18034
908.139	18034
908.256	17988
908.372	17923
908.488	17931
908.604	17832
908.72	17794
908.836	17923
908.952	17813
909.068	17760
909.184	17908
909.3	17874
909.415	17847
909.531	17783
909.647	17493
909.762	17573
909.878	17429
909.993	17440
910.108	17391
910.224	17474
910.339	17334
910.454	17429
910.57	17318
910.685	17227
910.8	17528
910.915	17425
911.03	17246
911.145	17124
911.259	17117
911.374	17067
911.489	17022
911.604	16968
911.718	16816
911.833	16691
911.947	16599
912.062	16683
912.176	16816
912.291	16797
912.405	16778
912.519	16968
912.633	17048
912.748	16835
912.862	16713
912.976	16630
913.09	16493
913.204	16645
913.318	16538
913.431	16771
913.545	16679
913.659	16672
913.772	16577
913.886	16440
914	16363
914.113	16432
914.226	16573
914.34	16523
914.453	16318
914.566	16428
914.68	16284
914.793	16215
914.906	15960
915.019	15979
915.132	15873
915.245	15979
915.358	15998
915.47	16040
915.583	15987
915.696	16002
915.809	16071
915.921	16071
916.034	15895
916.146	15915
916.259	15781
916.371	15975
916.483	15869
916.595	15739
916.708	15701
916.82	15762
916.932	15747
917.044	15720
917.156	15728
917.268	15603
917.38	15625
917.491	15587
917.603	15568
917.715	15595
917.826	15713
917.938	15488
918.049	15428
918.161	15469
918.272	15637
918.384	15644
918.495	15511
918.606	15389
918.717	15195
918.828	15310
918.939	15416
919.05	15291
919.161	15420
919.272	15150
919.383	15074
919.494	15351
919.604	15458
919.715	15230
919.826	15272
919.936	15214
920.047	15317
920.157	15207
920.267	15519
920.378	15340
920.488	15211
920.598	15511
920.708	15534
920.818	15389
920.928	15363
921.038	15542
921.148	15458
921.258	15233
921.368	15077
921.477	14975
921.587	15081
921.697	14887
921.806	14952
921.916	14807
922.025	14800
922.134	14686
922.244	14507
922.353	14670
922.462	14530
922.571	14465
922.68	14237
922.789	14233
922.898	14275
923.007	14161
923.116	14294
923.224	14237
923.333	14233
923.442	14119
923.55	14077
923.659	14138
923.767	14278
923.876	14046
923.984	14100
924.092	13864
924.201	14008
924.309	13967
924.417	13993
924.525	13906
924.633	13860
924.741	14845
924.849	13700
924.956	13868
925.064	13696
925.172	13540
925.279	13578
925.387	13700
925.494	13643
925.602	13772
925.709	13616
925.816	13647
925.924	13556
926.031	13666
926.138	13510
926.245	13670
926.352	13480
926.459	13636
926.566	13548
926.673	13525
926.779	13320
926.886	13426
926.993	13289
927.099	13198
927.206	13114
927.312	13202
927.419	13228
927.525	13080
927.631	13160
927.737	13027
927.843	13015
927.95	12859
928.056	12977
928.162	12890
928.267	13072
928.373	13601
928.479	13095
928.585	12814
928.69	12901
928.796	13076
928.901	12814
929.007	12650
929.112	12840
929.218	12795
929.323	12696
929.428	12650
929.533	12920
929.638	12631
929.743	12696
929.848	12677
929.953	12574
930.058	12540
930.163	12296
930.267	12308
930.372	12456
930.477	12323
930.581	12608
930.685	12376
930.79	12273
930.894	12224
930.998	12178
931.103	12254
931.207	11984
931.311	11939
931.415	11859
931.519	11608
931.623	11657
