Data from test_V78500241_986.txt Node
Date: Fri Mar 25 15:48:37 CST 2022
User: usil
Spectrometer: V785-0024
Trigger mode: 0
Integration Time (sec): 4.000000E-1
Scans to average: 1
Nonlinearity correction enabled: false
Boxcar width: 0
Storing dark spectrum: false
XAxis mode: Wavelengths
Number of Pixels in Spectrum: 1024
>>>>>Begin Spectral Data<<<<<
801.071	28382
801.214	28166
801.356	27918
801.499	27953
801.641	27888
801.783	27789
801.926	27831
802.068	27873
802.211	27774
802.353	27690
802.496	27694
802.638	27526
802.78	27454
802.923	27351
803.065	27450
803.208	27549
803.35	27466
803.492	27633
803.635	27660
803.777	27576
803.919	27869
804.061	28124
804.204	27656
804.346	27762
804.488	27591
804.63	27713
804.773	27633
804.915	27591
805.057	27854
805.199	27827
805.341	27827
805.483	27800
805.626	27873
805.768	27728
805.91	27880
806.052	27876
806.194	27732
806.336	28044
806.478	27922
806.62	27884
806.762	27979
806.904	28097
807.046	28447
807.188	28287
807.33	28249
807.472	28401
807.614	28253
807.756	28310
807.898	28261
808.04	28181
808.182	28173
808.324	28188
808.465	28139
808.607	28394
808.749	28577
808.891	28580
809.033	28641
809.174	28577
809.316	28421
809.458	28497
809.6	28607
809.741	28710
809.883	28618
810.025	28858
810.166	28733
810.308	28824
810.45	28755
810.591	28725
810.733	28759
810.875	28417
811.016	28607
811.158	28344
811.299	28713
811.441	28752
811.582	28759
811.724	28721
811.865	28603
812.007	28580
812.148	28573
812.29	28596
812.431	28710
812.573	28965
812.714	28961
812.855	29079
812.997	29143
813.138	29277
813.279	29181
813.421	29067
813.562	29090
813.703	28995
813.845	28717
813.986	28550
814.127	28371
814.268	28322
814.41	28268
814.551	28280
814.692	28215
814.833	28257
814.974	28276
815.115	28352
815.256	27998
815.397	28105
815.539	28131
815.68	27979
815.821	27930
815.962	27975
816.103	28063
816.244	27941
816.385	27865
816.526	27888
816.666	27557
816.807	27595
816.948	27625
817.089	27705
817.23	27618
817.371	27568
817.512	27690
817.653	27500
817.793	27454
817.934	27576
818.075	27610
818.216	27637
818.356	27538
818.497	27427
818.638	27230
818.778	27291
818.919	27321
819.06	27405
819.2	27317
819.341	27408
819.481	27564
819.622	27739
819.762	27774
819.903	27812
820.043	27914
820.184	27800
820.324	27739
820.465	27709
820.605	27709
820.746	27679
820.886	27530
821.026	27553
821.167	27591
821.307	27873
821.447	27557
821.588	27431
821.728	27386
821.868	27214
822.008	27096
822.149	27032
822.289	26960
822.429	26819
822.569	26720
822.709	26689
822.849	26503
822.99	26613
823.13	26492
823.27	26579
823.41	26408
823.55	26324
823.69	26511
823.83	26309
823.97	26187
824.11	26221
824.25	26073
824.389	26065
824.529	26278
824.669	26073
824.809	26317
824.949	26320
825.089	26180
825.228	26168
825.368	26168
825.508	26119
825.648	26065
825.787	26161
825.927	26225
826.067	25932
826.206	25978
826.346	26142
826.485	26145
826.625	25997
826.765	26153
826.904	26149
827.044	25875
827.183	25932
827.323	25655
827.462	25807
827.601	25822
827.741	25776
827.88	25864
828.02	25594
828.159	25757
828.298	25780
828.437	25871
828.577	25761
828.716	25849
828.855	25559
828.994	25396
829.134	25358
829.273	25578
829.412	25335
829.551	25438
829.69	25457
829.829	25476
829.968	25616
830.107	25487
830.246	25430
830.385	25460
830.524	25282
830.663	25187
830.802	25190
830.941	25202
831.08	24996
831.219	25133
831.357	25171
831.496	25221
831.635	25004
831.774	24954
831.913	25019
832.051	24795
832.19	24897
832.329	24947
832.467	24837
832.606	24658
832.744	24642
832.883	24764
833.022	24719
833.16	24817
833.299	24707
833.437	24867
833.576	24707
833.714	24901
833.852	24920
833.991	24886
834.129	24840
834.267	24928
834.406	24890
834.544	24859
834.682	24757
834.821	24802
834.959	24920
835.097	24856
835.235	24909
835.373	24688
835.511	24707
835.65	24715
835.788	24585
835.926	24498
836.064	24460
836.202	24460
836.34	24665
836.478	24525
836.615	24593
836.753	24719
836.891	24604
837.029	24627
837.167	24566
837.305	24441
837.443	24536
837.58	24410
837.718	24452
837.856	24429
837.993	24399
838.131	24429
838.269	24327
838.406	24319
838.544	24205
838.681	24133
838.819	24197
838.956	24038
839.094	23920
839.231	23980
839.369	24091
839.506	24407
839.643	24216
839.781	23965
839.918	23942
840.055	23885
840.193	23897
840.33	23767
840.467	23980
840.604	23885
840.742	24155
840.879	23752
841.016	23935
841.153	23783
841.29	23874
841.427	23805
841.564	23935
841.701	23786
841.838	23729
841.975	23752
842.112	23703
842.249	23657
842.385	23566
842.522	23859
842.659	23653
842.796	23608
842.933	23566
843.069	23630
843.206	23581
843.343	23707
843.479	23425
843.616	23478
843.752	23303
843.889	23330
844.025	23474
844.162	23395
844.298	23524
844.435	23311
844.571	23463
844.708	23463
844.844	23452
844.98	23459
845.117	23501
845.253	23227
845.389	23227
845.525	23178
845.661	23136
845.798	23056
845.934	23280
846.07	23010
846.206	23083
846.342	23216
846.478	23052
846.614	22987
846.75	22877
846.886	22793
847.022	22889
847.158	22904
847.294	22710
847.429	22820
847.565	22786
847.701	23132
847.837	22618
847.972	22550
848.108	22550
848.244	22577
848.379	22363
848.515	22291
848.65	22394
848.786	22466
848.921	22432
849.057	22493
849.192	22550
849.328	22413
849.463	22405
849.598	22379
849.734	22390
849.869	22246
850.004	22147
850.14	22223
850.275	22223
850.41	22082
850.545	22147
850.68	22067
850.815	22158
850.95	22032
851.085	22375
851.22	22196
851.355	22177
851.49	22040
851.625	22162
851.76	22154
851.895	22215
852.03	22055
852.165	22219
852.299	22230
852.434	22105
852.569	22261
852.703	22200
852.838	22242
852.973	22272
853.107	22284
853.242	22006
853.376	22074
853.511	21945
853.645	21918
853.78	22124
853.914	21987
854.048	21892
854.183	21816
854.317	21979
854.451	22249
854.585	22040
854.72	22010
854.854	22093
854.988	22010
855.122	21968
855.256	21854
855.39	21991
855.524	22002
855.658	22101
855.792	21972
855.926	21934
856.06	22010
856.194	22051
856.327	21960
856.461	21953
856.595	21880
856.729	21937
856.862	22173
856.996	22017
857.13	21987
857.263	22036
857.397	22048
857.53	22021
857.664	22013
857.797	22139
857.931	21987
858.064	22002
858.197	22188
858.331	21903
858.464	21846
858.597	21869
858.731	21873
858.864	21960
858.997	21991
859.13	21968
859.263	22086
859.396	22025
859.529	21930
859.662	21903
859.795	22032
859.928	22017
860.061	22048
860.194	22169
860.327	22006
860.46	22082
860.592	21968
860.725	22238
860.858	22265
860.99	22063
861.123	21918
861.256	21983
861.388	22059
861.521	22683
861.653	21884
861.786	21751
861.918	21804
862.05	21804
862.183	21850
862.315	21850
862.447	22002
862.58	21884
862.712	21606
862.844	21732
862.976	21709
863.108	21812
863.24	22082
863.372	21667
863.504	21614
863.636	21728
863.768	21789
863.9	21793
864.032	21576
864.164	21618
864.296	21720
864.428	21835
864.559	21899
864.691	21819
864.823	21629
864.954	21663
865.086	21660
865.217	21686
865.349	21538
865.48	21637
865.612	21542
865.743	21698
865.875	21675
866.006	21549
866.137	21663
866.269	21507
866.4	21534
866.531	21420
866.662	21488
866.793	21488
866.924	21542
867.055	21485
867.186	21523
867.317	21359
867.448	21412
867.579	21488
867.71	21336
867.841	21481
867.972	21530
868.103	21534
868.233	21481
868.364	21606
868.495	21583
868.625	21781
868.756	21865
868.886	21728
869.017	21808
869.147	21869
869.278	21937
869.408	21724
869.539	21656
869.669	21838
869.799	21846
869.929	21804
870.06	21895
870.19	22029
870.32	22025
870.45	22006
870.58	22139
870.71	22272
870.84	22230
870.97	22082
871.1	22139
871.23	22363
871.36	22344
871.489	22329
871.619	22367
871.749	22405
871.879	22375
872.008	22329
872.138	22390
872.267	22409
872.397	22280
872.526	22230
872.656	22090
872.785	22230
872.915	22344
873.044	22500
873.173	22417
873.303	22481
873.432	22360
873.561	22417
873.69	22462
873.819	22356
873.948	22398
874.077	22421
874.206	22344
874.335	22276
874.464	22398
874.593	22588
874.722	22478
874.851	22653
874.979	22599
875.108	22584
875.237	22535
875.365	22478
875.494	22664
875.623	22565
875.751	22645
875.88	22493
876.008	22637
876.136	22801
876.265	23022
876.393	23113
876.521	23102
876.65	22987
876.778	22873
876.906	22923
877.034	22938
877.162	22942
877.29	22866
877.418	22976
877.546	22946
877.674	22839
877.802	22934
877.93	22942
878.058	22847
878.185	22900
878.313	22862
878.441	22869
878.568	22618
878.696	22831
878.824	22889
878.951	23044
879.079	23018
879.206	23239
879.333	23064
879.461	22972
879.588	23117
879.715	23060
879.842	23227
879.97	23140
880.097	22733
880.224	22816
880.351	22630
880.478	22873
880.605	22626
880.732	22782
880.859	23071
880.986	22801
881.112	22717
881.239	22637
881.366	22470
881.493	22367
881.619	22287
881.746	22306
881.872	22230
881.999	22367
882.125	22204
882.252	22356
882.378	22284
882.505	22409
882.631	22322
882.757	21979
882.883	22109
883.01	22055
883.136	21907
883.262	21876
883.388	21789
883.514	21956
883.64	22067
883.766	21778
883.892	21652
884.018	21861
884.143	21945
884.269	22025
884.395	21648
884.52	21572
884.646	21583
884.772	21580
884.897	21595
885.023	21713
885.148	21736
885.274	21789
885.399	21618
885.524	21686
885.65	21667
885.775	21751
885.9	21564
886.025	21591
886.15	21774
886.275	21663
886.4	21599
886.525	21679
886.65	21564
886.775	21443
886.9	21686
887.025	21892
887.149	21614
887.274	21408
887.399	21367
887.523	21340
887.648	21226
887.773	21275
887.897	21348
888.021	21424
888.146	21321
888.27	21416
888.395	21507
888.519	21393
888.643	21443
888.767	21420
888.891	21397
889.015	21169
889.139	21237
889.263	21272
889.387	21230
889.511	21450
889.635	21275
889.759	21154
889.883	21009
890.006	21157
890.13	21249
890.254	21135
890.377	21150
890.501	20941
890.624	20887
890.748	20963
890.871	20819
890.995	20746
891.118	20754
891.241	20678
891.364	20758
891.488	20845
891.611	20914
891.734	20716
891.857	20807
891.98	20800
892.103	20773
892.226	20746
892.349	20686
892.471	20530
892.594	20716
892.717	20682
892.839	20625
892.962	20651
893.085	20613
893.207	20564
893.33	20545
893.452	20590
893.575	20667
893.697	20602
893.819	20788
893.941	20830
894.064	20739
894.186	20621
894.308	20507
894.43	20785
894.552	20743
894.674	20853
894.796	20514
894.918	20613
895.04	20545
895.161	20590
895.283	20701
895.405	20526
895.526	20552
895.648	20701
895.769	20644
895.891	20648
896.012	20823
896.134	20678
896.255	20594
896.376	20674
896.498	20602
896.619	20670
896.74	20564
896.861	20659
896.982	20941
897.103	21104
897.224	20864
897.345	20838
897.466	20648
897.587	20880
897.708	20956
897.828	20891
897.949	20868
898.07	20552
898.19	20746
898.311	20937
898.431	20823
898.552	20872
898.672	20937
898.792	20792
898.913	20902
899.033	20735
899.153	20758
899.273	20408
899.393	20625
899.513	20750
899.633	20689
899.753	20518
899.873	20419
899.993	20651
900.113	20507
900.232	20632
900.352	20511
900.472	20396
900.591	20275
900.711	20248
900.83	20229
900.95	20492
901.069	20324
901.189	20202
901.308	20012
901.427	19894
901.546	19902
901.665	19997
901.784	19830
901.904	19951
902.023	19731
902.141	19518
902.26	19453
902.379	19613
902.498	19373
902.617	19373
902.735	19495
902.854	19472
902.973	19327
903.091	19183
903.21	19099
903.328	19080
903.446	19023
903.565	18947
903.683	18916
903.801	18791
903.919	18840
904.038	18757
904.156	18741
904.274	18711
904.392	18627
904.51	18639
904.627	18681
904.745	18741
904.863	18753
904.981	18403
905.098	18292
905.216	18361
905.334	18391
905.451	18353
905.569	18304
905.686	18422
905.803	18289
905.921	18201
906.038	18300
906.155	18114
906.272	17992
906.389	18041
906.506	17927
906.623	17802
906.74	17885
906.857	17714
906.974	17809
907.091	17927
907.208	18076
907.324	17843
907.441	17733
907.557	17558
907.674	17551
907.79	17512
907.907	17562
908.023	17638
908.139	17528
908.256	17528
908.372	17448
908.488	17391
908.604	17280
908.72	17223
908.836	17356
908.952	17265
909.068	17303
909.184	17387
909.3	17239
909.415	17376
909.531	17239
909.647	16885
909.762	16961
909.878	16930
909.993	16949
910.108	16976
910.224	17045
910.339	17037
910.454	16793
910.57	16782
910.685	16713
910.8	16980
910.915	16930
911.03	16847
911.145	16691
911.259	16618
911.374	16611
911.489	16500
911.604	16459
911.718	16341
911.833	16272
911.947	16257
912.062	16192
912.176	16318
912.291	16417
912.405	16314
912.519	16569
912.633	16459
912.748	16352
912.862	16192
912.976	16021
913.09	16010
913.204	16097
913.318	16158
913.431	16131
913.545	16200
913.659	16109
913.772	16109
913.886	15964
914	15869
914.113	16074
914.226	16006
914.34	15945
914.453	15892
914.566	15945
914.68	15785
914.793	15747
914.906	15515
915.019	15504
915.132	15473
915.245	15424
915.358	15564
915.47	15485
915.583	15492
915.696	15557
915.809	15648
915.921	15652
916.034	15416
916.146	15424
916.259	15393
916.371	15496
916.483	15431
916.595	15393
916.708	15291
916.82	15367
916.932	15230
917.044	15233
917.156	15203
917.268	15142
917.38	15161
917.491	15074
917.603	15249
917.715	15264
917.826	15291
917.938	15020
918.049	14960
918.161	15104
918.272	15100
918.384	15146
918.495	15032
918.606	14929
918.717	14834
918.828	15017
918.939	14864
919.05	14796
919.161	14906
919.272	14705
919.383	14781
919.494	14861
919.604	15119
919.715	14804
919.826	14800
919.936	14872
920.047	14937
920.157	14876
920.267	14967
920.378	14921
920.488	14777
920.598	15066
920.708	15165
920.818	15005
920.928	14929
921.038	15165
921.148	15100
921.258	14857
921.368	14617
921.477	14526
921.587	14530
921.697	14450
921.806	14594
921.916	14461
922.025	14191
922.134	14225
922.244	14100
922.353	14210
922.462	14138
922.571	14077
922.68	13788
922.789	13856
922.898	13856
923.007	13811
923.116	13871
923.224	13803
923.333	13845
923.442	13761
923.55	13734
923.659	13693
923.767	13753
923.876	13597
923.984	13696
924.092	13647
924.201	13651
924.309	13609
924.417	13567
924.525	13540
924.633	13525
924.741	14385
924.849	13297
924.956	13441
925.064	13400
925.172	13217
925.279	13369
925.387	13240
925.494	13228
925.602	13396
925.709	13373
925.816	13175
925.924	13247
926.031	13179
926.138	13217
926.245	13244
926.352	13103
926.459	13133
926.566	13350
926.673	13072
926.779	12909
926.886	13072
926.993	12810
927.099	12757
927.206	12829
927.312	12764
927.419	12894
927.525	12768
927.631	12810
927.737	12703
927.843	12688
927.95	12574
928.056	12688
928.162	12703
928.267	12741
928.373	13217
928.479	12639
928.585	12391
928.69	12608
928.796	12688
928.901	12426
929.007	12353
929.112	12506
929.218	12350
929.323	12372
929.428	12441
929.533	12426
929.638	12350
929.743	12311
929.848	12346
929.953	12357
930.058	12167
930.163	11992
930.267	12072
930.372	12232
930.477	11984
930.581	12209
930.685	12003
930.79	11980
930.894	11992
930.998	11908
931.103	11958
931.207	11665
931.311	11562
931.415	11433
931.519	11322
931.623	11261
