Data from test_V78500241_59.txt Node
Date: Fri Mar 25 15:42:12 CST 2022
User: usil
Spectrometer: V785-0024
Trigger mode: 0
Integration Time (sec): 4.000000E-1
Scans to average: 1
Nonlinearity correction enabled: false
Boxcar width: 0
Storing dark spectrum: false
XAxis mode: Wavelengths
Number of Pixels in Spectrum: 1024
>>>>>Begin Spectral Data<<<<<
801.071	29733
801.214	29501
801.356	29360
801.499	29322
801.641	29277
801.783	29284
801.926	29197
802.068	29277
802.211	29029
802.353	28862
802.496	28843
802.638	28755
802.78	28797
802.923	28847
803.065	28497
803.208	28683
803.35	28900
803.492	28980
803.635	29117
803.777	28877
803.919	28965
804.061	29242
804.204	29083
804.346	29018
804.488	28843
804.63	28740
804.773	28850
804.915	28923
805.057	28991
805.199	28793
805.341	28934
805.483	29060
805.626	29044
805.768	28900
805.91	29033
806.052	29060
806.194	28923
806.336	29136
806.478	28984
806.62	28923
806.762	29147
806.904	29250
807.046	29402
807.188	29227
807.33	29364
807.472	29410
807.614	29303
807.756	29246
807.898	29136
808.04	29086
808.182	29147
808.324	29102
808.465	29159
808.607	29261
808.749	29410
808.891	29646
809.033	29585
809.174	29524
809.316	29497
809.458	29501
809.6	29417
809.741	29585
809.883	29520
810.025	29573
810.166	29691
810.308	29832
810.45	29691
810.591	29653
810.733	29554
810.875	29493
811.016	29505
811.158	29410
811.299	29452
811.441	29623
811.582	29535
811.724	29516
811.865	29315
812.007	29318
812.148	29372
812.29	29356
812.431	29539
812.573	29703
812.714	29722
812.855	29996
812.997	30038
813.138	30266
813.279	30057
813.421	29980
813.562	29897
813.703	29657
813.845	29509
813.986	29322
814.127	29178
814.268	29029
814.41	29124
814.551	28999
814.692	29109
814.833	29200
814.974	28877
815.115	29022
815.256	28850
815.397	28873
815.539	28892
815.68	28736
815.821	28752
815.962	28702
816.103	28809
816.244	28649
816.385	28424
816.526	28363
816.666	28249
816.807	28051
816.948	28223
817.089	28295
817.23	28090
817.371	27987
817.512	28032
817.653	28147
817.793	28143
817.934	28074
818.075	28105
818.216	28116
818.356	28055
818.497	27972
818.638	27652
818.778	27804
818.919	27724
819.06	27838
819.2	27854
819.341	28006
819.481	27968
819.622	28139
819.762	28337
819.903	28196
820.043	28143
820.184	28013
820.324	28017
820.465	28207
820.605	28055
820.746	28169
820.886	27922
821.026	28006
821.167	28082
821.307	28070
821.447	27983
821.588	27949
821.728	27720
821.868	27652
822.008	27420
822.149	27439
822.289	27397
822.429	27252
822.569	27165
822.709	27287
822.849	26979
822.99	26963
823.13	26960
823.27	26708
823.41	26617
823.55	26693
823.69	26644
823.83	26636
823.97	26712
824.11	26473
824.25	26332
824.389	26370
824.529	26507
824.669	26473
824.809	26522
824.949	26571
825.089	26499
825.228	26552
825.368	26267
825.508	26248
825.648	26168
825.787	26301
825.927	26210
826.067	26343
826.206	26225
826.346	26355
826.485	26328
826.625	26240
826.765	26317
826.904	26324
827.044	26077
827.183	26050
827.323	25795
827.462	25917
827.601	25871
827.741	25799
827.88	25807
828.02	25894
828.159	25841
828.298	25875
828.437	25841
828.577	25753
828.716	26031
828.855	25826
828.994	25563
829.134	25540
829.273	25651
829.412	25411
829.551	25487
829.69	25510
829.829	25552
829.968	25643
830.107	25567
830.246	25415
830.385	25441
830.524	25434
830.663	25304
830.802	25285
830.941	25034
831.08	25061
831.219	25156
831.357	25088
831.496	25244
831.635	24977
831.774	24905
831.913	24966
832.051	24905
832.19	24920
832.329	24958
832.467	24696
832.606	24703
832.744	24623
832.883	24646
833.022	24589
833.16	24593
833.299	24768
833.437	24753
833.576	24738
833.714	24654
833.852	24760
833.991	24757
834.129	24791
834.267	24738
834.406	24684
834.544	24741
834.682	24604
834.821	24490
834.959	24776
835.097	24547
835.235	24681
835.373	24642
835.511	24760
835.65	24498
835.788	24544
835.926	24281
836.064	24277
836.202	24235
836.34	24418
836.478	24578
836.615	24513
836.753	24422
836.891	24547
837.029	24547
837.167	24308
837.305	24262
837.443	24448
837.58	24285
837.718	24266
837.856	24365
837.993	24334
838.131	24353
838.269	24117
838.406	24262
838.544	24125
838.681	24011
838.819	23920
838.956	23691
839.094	23775
839.231	23805
839.369	23946
839.506	24125
839.643	24041
839.781	23783
839.918	23638
840.055	23596
840.193	23710
840.33	23547
840.467	23634
840.604	23649
840.742	23805
840.879	23600
841.016	23516
841.153	23516
841.29	23649
841.427	23528
841.564	23619
841.701	23619
841.838	23562
841.975	23444
842.112	23471
842.249	23318
842.385	23387
842.522	23581
842.659	23395
842.796	23364
842.933	23299
843.069	23216
843.206	23128
843.343	23429
843.479	23174
843.616	23284
843.752	22984
843.889	23067
844.025	23185
844.162	23003
844.298	23071
844.435	22911
844.571	22892
844.708	23075
844.844	23109
844.98	23143
845.117	23056
845.253	22805
845.389	22866
845.525	22866
845.661	22729
845.798	22580
845.934	22736
846.07	22611
846.206	22603
846.342	22694
846.478	22626
846.614	22451
846.75	22306
846.886	22421
847.022	22478
847.158	22485
847.294	22443
847.429	22447
847.565	22371
847.701	22618
847.837	22078
847.972	22158
848.108	22082
848.244	22181
848.379	22036
848.515	22044
848.65	21983
848.786	21861
848.921	21937
849.057	22044
849.192	21968
849.328	22010
849.463	21922
849.598	21926
849.734	21781
849.869	21838
850.004	21720
850.14	21808
850.275	21679
850.41	21682
850.545	21652
850.68	21583
850.815	21728
850.95	21591
851.085	21808
851.22	21766
851.355	21515
851.49	21625
851.625	21542
851.76	21564
851.895	21667
852.03	21496
852.165	21595
852.299	21736
852.434	21743
852.569	21686
852.703	21549
852.838	21667
852.973	21728
853.107	21751
853.242	21496
853.376	21408
853.511	21363
853.645	21329
853.78	21416
853.914	21492
854.048	21389
854.183	21382
854.317	21397
854.451	21743
854.585	21420
854.72	21340
854.854	21450
854.988	21416
855.122	21405
855.256	21291
855.39	21450
855.524	21370
855.658	21443
855.792	21466
855.926	21355
856.06	21492
856.194	21443
856.327	21389
856.461	21351
856.595	21336
856.729	21435
856.862	21526
856.996	21416
857.13	21557
857.263	21507
857.397	21466
857.53	21386
857.664	21435
857.797	21447
857.931	21504
858.064	21336
858.197	21500
858.331	21439
858.464	21351
858.597	21294
858.731	21317
858.864	21370
858.997	21237
859.13	21382
859.263	21443
859.396	21408
859.529	21272
859.662	21214
859.795	21367
859.928	21382
860.061	21500
860.194	21526
860.327	21370
860.46	21317
860.592	21420
860.725	21408
860.858	21431
860.99	21256
861.123	21184
861.256	21211
861.388	21313
861.521	21949
861.653	21116
861.786	21062
861.918	21275
862.05	21256
862.183	21363
862.315	21359
862.447	21401
862.58	21275
862.712	21100
862.844	21096
862.976	21226
863.108	21108
863.24	21447
863.372	20956
863.504	21074
863.636	21047
863.768	21058
863.9	21089
864.032	20838
864.164	20982
864.296	21036
864.428	21055
864.559	21157
864.691	21036
864.823	20948
864.954	21001
865.086	20963
865.217	20838
865.349	20727
865.48	20944
865.612	20864
865.743	21039
865.875	20933
866.006	20918
866.137	20845
866.269	21020
866.4	20921
866.531	20819
866.662	20724
866.793	20902
866.924	20804
867.055	20895
867.186	20887
867.317	20853
867.448	20689
867.579	20804
867.71	20727
867.841	20697
867.972	20785
868.103	20712
868.233	20777
868.364	20807
868.495	20944
868.625	21066
868.756	21180
868.886	20864
869.017	21009
869.147	21199
869.278	21058
869.408	21017
869.539	21001
869.669	21127
869.799	21047
869.929	21119
870.06	21157
870.19	21378
870.32	21294
870.45	21355
870.58	21538
870.71	21572
870.84	21515
870.97	21511
871.1	21511
871.23	21587
871.36	21793
871.489	21568
871.619	21572
871.749	21694
871.879	21682
872.008	21854
872.138	21606
872.267	21500
872.397	21534
872.526	21428
872.656	21488
872.785	21500
872.915	21682
873.044	21903
873.173	21591
873.303	21774
873.432	21625
873.561	21724
873.69	21641
873.819	21728
873.948	21751
874.077	21720
874.206	21606
874.335	21633
874.464	21797
874.593	21983
874.722	21732
874.851	22067
874.979	22082
875.108	21911
875.237	21846
875.365	21873
875.494	21838
875.623	22048
875.751	21838
875.88	21892
876.008	22139
876.136	22105
876.265	22310
876.393	22485
876.521	22363
876.65	22500
876.778	22337
876.906	22154
877.034	22253
877.162	22230
877.29	22162
877.418	22177
877.546	22287
877.674	22295
877.802	22234
877.93	22253
878.058	22112
878.185	22150
878.313	22230
878.441	22211
878.568	22021
878.696	22230
878.824	22188
878.951	22280
879.079	22402
879.206	22554
879.333	22352
879.461	22249
879.588	22352
879.715	22394
879.842	22622
879.97	22249
880.097	22101
880.224	22059
880.351	22166
880.478	21998
880.605	22032
880.732	22120
880.859	22337
880.986	22017
881.112	22078
881.239	21930
881.366	21888
881.493	21816
881.619	21690
881.746	21743
881.872	21618
881.999	21580
882.125	21481
882.252	21652
882.378	21629
882.505	21808
882.631	21405
882.757	21378
882.883	21458
883.01	21401
883.136	21416
883.262	21233
883.388	21340
883.514	21405
883.64	21405
883.766	21416
883.892	21173
884.018	21108
884.143	21252
884.269	21378
884.395	21058
884.52	21005
884.646	20948
884.772	20845
884.897	20857
885.023	21165
885.148	21058
885.274	21104
885.399	21093
885.524	20929
885.65	20952
885.775	21074
885.9	20929
886.025	21070
886.15	21173
886.275	21032
886.4	20731
886.525	20868
886.65	20948
886.775	20918
886.9	21089
887.025	21161
887.149	20914
887.274	20861
887.399	20807
887.523	20781
887.648	20750
887.773	20556
887.897	20788
888.021	20743
888.146	20731
888.27	20739
888.395	20815
888.519	20750
888.643	20697
888.767	20739
888.891	20724
889.015	20514
889.139	20503
889.263	20514
889.387	20625
889.511	20804
889.635	20648
889.759	20564
889.883	20450
890.006	20560
890.13	20598
890.254	20564
890.377	20499
890.501	20278
890.624	20233
890.748	20176
890.871	20233
890.995	20054
891.118	20001
891.241	20077
891.364	20142
891.488	20233
891.611	20088
891.734	20214
891.857	20145
891.98	19993
892.103	20088
892.226	20119
892.349	19989
892.471	19944
892.594	20100
892.717	19989
892.839	20054
892.962	20088
893.085	20191
893.207	20062
893.33	19791
893.452	19860
893.575	20199
893.697	19887
893.819	20252
893.941	20138
894.064	20069
894.186	19970
894.308	19879
894.43	20122
894.552	20077
894.674	20035
894.796	19951
894.918	19959
895.04	19864
895.161	20081
895.283	20119
895.405	19986
895.526	20050
895.648	20058
895.769	19982
895.891	20035
896.012	20161
896.134	20062
896.255	20092
896.376	19955
896.498	20115
896.619	20161
896.74	20157
896.861	20149
896.982	20347
897.103	20522
897.224	20408
897.345	20237
897.466	20305
897.587	20244
897.708	20457
897.828	20317
897.949	20183
898.07	20210
898.19	20176
898.311	20317
898.431	20142
898.552	20275
898.672	20263
898.792	20339
898.913	20305
899.033	20012
899.153	19959
899.273	19936
899.393	19845
899.513	19944
899.633	19970
899.753	19936
899.873	19875
899.993	19951
900.113	19791
900.232	19989
900.352	19833
900.472	19776
900.591	19689
900.711	19708
900.83	19700
900.95	19864
901.069	19734
901.189	19757
901.308	19331
901.427	19392
901.546	19362
901.665	19407
901.784	19426
901.904	19148
902.023	19129
902.141	18829
902.26	18848
902.379	18875
902.498	18837
902.617	18821
902.735	18760
902.854	18734
902.973	18802
903.091	18464
903.21	18471
903.328	18471
903.446	18311
903.565	18296
903.683	18311
903.801	18098
903.919	18239
904.038	18171
904.156	18083
904.274	18159
904.392	18064
904.51	18163
904.627	18019
904.745	18045
904.863	18057
904.981	17824
905.098	17592
905.216	17623
905.334	17695
905.451	17733
905.569	17748
905.686	17653
905.803	17680
905.921	17436
906.038	17596
906.155	17471
906.272	17322
906.389	17398
906.506	17231
906.623	17284
906.74	17159
906.857	17045
906.974	17197
907.091	17246
907.208	17303
907.324	17299
907.441	17204
907.557	17010
907.674	16896
907.79	16915
907.907	16896
908.023	16927
908.139	16949
908.256	16778
908.372	16786
908.488	16698
908.604	16603
908.72	16611
908.836	16527
908.952	16580
909.068	16675
909.184	16656
909.3	16554
909.415	16607
909.531	16531
909.647	16295
909.762	16295
909.878	16318
909.993	16318
910.108	16173
910.224	16196
910.339	16268
910.454	16166
910.57	16112
910.685	16017
910.8	16207
910.915	16329
911.03	15983
911.145	15895
911.259	15831
911.374	15907
911.489	15835
911.604	15663
911.718	15557
911.833	15561
911.947	15614
912.062	15431
912.176	15648
912.291	15641
912.405	15660
912.519	15785
912.633	15694
912.748	15698
912.862	15481
912.976	15431
913.09	15302
913.204	15348
913.318	15504
913.431	15439
913.545	15431
913.659	15458
913.772	15435
913.886	15192
914	15230
914.113	15374
914.226	15351
914.34	15256
914.453	15119
914.566	15195
914.68	15047
914.793	15001
914.906	14754
915.019	14781
915.132	14727
915.245	14861
915.358	14826
915.47	14937
915.583	14864
915.696	14800
915.809	14921
915.921	14994
916.034	14758
916.146	14716
916.259	14758
916.371	14773
916.483	14792
916.595	14636
916.708	14644
916.82	14788
916.932	14590
917.044	14568
917.156	14613
917.268	14408
917.38	14530
917.491	14450
917.603	14450
917.715	14659
917.826	14488
917.938	14495
918.049	14286
918.161	14412
918.272	14461
918.384	14518
918.495	14461
918.606	14256
918.717	14278
918.828	14218
918.939	14271
919.05	14149
919.161	14225
919.272	14016
919.383	14077
919.494	14157
919.604	14252
919.715	14164
919.826	14088
919.936	14107
920.047	14210
920.157	14176
920.267	14370
920.378	14176
920.488	14073
920.598	14343
920.708	14457
920.818	14324
920.928	14210
921.038	14465
921.148	14339
921.258	14134
921.368	13909
921.477	13864
921.587	13921
921.697	13784
921.806	13928
921.916	13807
922.025	13556
922.134	13605
922.244	13495
922.353	13571
922.462	13381
922.571	13285
922.68	13164
922.789	13179
922.898	13209
923.007	13091
923.116	13168
923.224	13126
923.333	13065
923.442	13027
923.55	12970
923.659	12954
923.767	13023
923.876	12954
923.984	13012
924.092	12859
924.201	12894
924.309	12935
924.417	12973
924.525	12825
924.633	12856
924.741	13852
924.849	12662
924.956	12787
925.064	12540
925.172	12551
925.279	12513
925.387	12620
925.494	12639
925.602	12684
925.709	12608
925.816	12445
925.924	12585
926.031	12646
926.138	12517
926.245	12540
926.352	12410
926.459	12627
926.566	12639
926.673	12429
926.779	12369
926.886	12315
926.993	12182
927.099	12194
927.206	12091
927.312	12087
927.419	12163
927.525	12159
927.631	12155
927.737	12034
927.843	12015
927.95	11920
928.056	11999
928.162	11988
928.267	11965
928.373	12669
928.479	12060
928.585	11904
928.69	11954
928.796	12053
928.901	11908
929.007	11710
929.112	11897
929.218	11779
929.323	11813
929.428	11722
929.533	11813
929.638	11714
929.743	11745
929.848	11684
929.953	11623
930.058	11539
930.163	11436
930.267	11402
930.372	11608
930.477	11414
930.581	11684
930.685	11345
930.79	11311
930.894	11258
930.998	11227
931.103	11490
931.207	11029
931.311	11022
931.415	10881
931.519	10660
931.623	10649
