Data from test_V78500241_2520.txt Node
Date: Fri Mar 25 15:59:15 CST 2022
User: usil
Spectrometer: V785-0024
Trigger mode: 0
Integration Time (sec): 4.000000E-1
Scans to average: 1
Nonlinearity correction enabled: false
Boxcar width: 0
Storing dark spectrum: false
XAxis mode: Wavelengths
Number of Pixels in Spectrum: 1024
>>>>>Begin Spectral Data<<<<<
801.071	28630
801.214	28694
801.356	28557
801.499	28497
801.641	28367
801.783	28367
801.926	28325
802.068	28356
802.211	28352
802.353	28105
802.496	28181
802.638	28074
802.78	28029
802.923	27922
803.065	27907
803.208	27892
803.35	27998
803.492	28211
803.635	28348
803.777	28055
803.919	28249
804.061	28512
804.204	28341
804.346	28249
804.488	28310
804.63	28200
804.773	28253
804.915	28299
805.057	28474
805.199	28166
805.341	28459
805.483	28489
805.626	28417
805.768	28421
805.91	28447
806.052	28542
806.194	28371
806.336	28649
806.478	28516
806.62	28466
806.762	28580
806.904	28831
807.046	29029
807.188	28942
807.33	28866
807.472	29022
807.614	28900
807.756	28930
807.898	28816
808.04	28569
808.182	28782
808.324	28847
808.465	28809
808.607	28976
808.749	29200
808.891	29246
809.033	29235
809.174	29212
809.316	29208
809.458	29086
809.6	29079
809.741	29170
809.883	29360
810.025	29501
810.166	29436
810.308	29463
810.45	29391
810.591	29250
810.733	29189
810.875	29140
811.016	29109
811.158	29193
811.299	29235
811.441	29360
811.582	29242
811.724	29204
811.865	29090
812.007	29189
812.148	29307
812.29	29200
812.431	29299
812.573	29379
812.714	29649
812.855	29623
812.997	29672
813.138	29984
813.279	29920
813.421	29714
813.562	29592
813.703	29535
813.845	29296
813.986	29079
814.127	29010
814.268	28885
814.41	28915
814.551	28835
814.692	29003
814.833	28908
814.974	28835
815.115	28847
815.256	28694
815.397	28843
815.539	28839
815.68	28812
815.821	28717
815.962	28752
816.103	28557
816.244	28615
816.385	28447
816.526	28527
816.666	28276
816.807	28074
816.948	28162
817.089	28223
817.23	28257
817.371	28299
817.512	28093
817.653	28226
817.793	28055
817.934	28257
818.075	28230
818.216	28192
818.356	28139
818.497	27968
818.638	27926
818.778	27941
818.919	28048
819.06	28063
819.2	28097
819.341	28268
819.481	28200
819.622	28363
819.762	28512
819.903	28497
820.043	28367
820.184	28268
820.324	28348
820.465	28398
820.605	28234
820.746	28310
820.886	28162
821.026	28284
821.167	28344
821.307	28466
821.447	28204
821.588	28249
821.728	28029
821.868	27842
822.008	27675
822.149	27629
822.289	27595
822.429	27374
822.569	27329
822.709	27275
822.849	27245
822.99	27214
823.13	27043
823.27	27112
823.41	26880
823.55	26845
823.69	26960
823.83	26929
823.97	26948
824.11	26796
824.25	26758
824.389	26887
824.529	27028
824.669	26830
824.809	26895
824.949	26918
825.089	26876
825.228	26842
825.368	26667
825.508	26689
825.648	26674
825.787	26849
825.927	26826
826.067	26720
826.206	26731
826.346	26880
826.485	26826
826.625	26735
826.765	26739
826.904	26743
827.044	26415
827.183	26533
827.323	26415
827.462	26404
827.601	26514
827.741	26427
827.88	26495
828.02	26183
828.159	26396
828.298	26526
828.437	26484
828.577	26347
828.716	26537
828.855	26404
828.994	26183
829.134	26130
829.273	26130
829.412	26111
829.551	26100
829.69	26111
829.829	26119
829.968	26210
830.107	26195
830.246	26027
830.385	26065
830.524	25925
830.663	25921
830.802	25769
830.941	25708
831.08	25666
831.219	25784
831.357	25677
831.496	25974
831.635	25780
831.774	25708
831.913	25518
832.051	25639
832.19	25430
832.329	25559
832.467	25419
832.606	25358
832.744	25228
832.883	25438
833.022	25491
833.16	25388
833.299	25586
833.437	25476
833.576	25396
833.714	25460
833.852	25445
833.991	25525
834.129	25537
834.267	25419
834.406	25518
834.544	25571
834.682	25384
834.821	25388
834.959	25540
835.097	25457
835.235	25487
835.373	25441
835.511	25400
835.65	25251
835.788	25346
835.926	25263
836.064	24992
836.202	25107
836.34	25198
836.478	25388
836.615	25308
836.753	25206
836.891	25350
837.029	25312
837.167	25217
837.305	25118
837.443	25046
837.58	25042
837.718	25255
837.856	25194
837.993	24935
838.131	25107
838.269	24890
838.406	25042
838.544	24882
838.681	24707
838.819	24627
838.956	24608
839.094	24673
839.231	24711
839.369	24719
839.506	24871
839.643	24844
839.781	24574
839.918	24509
840.055	24536
840.193	24467
840.33	24574
840.467	24403
840.604	24582
840.742	24730
840.879	24251
841.016	24426
841.153	24418
841.29	24521
841.427	24525
841.564	24502
841.701	24437
841.838	24357
841.975	24315
842.112	24353
842.249	24369
842.385	24273
842.522	24391
842.659	24216
842.796	24327
842.933	24270
843.069	24216
843.206	24224
843.343	24247
843.479	24235
843.616	24292
843.752	24114
843.889	23950
844.025	24057
844.162	23965
844.298	24148
844.435	24087
844.571	23878
844.708	24091
844.844	24224
844.98	24102
845.117	24083
845.253	23885
845.389	23836
845.525	23828
845.661	23805
845.798	23657
845.934	23802
846.07	23756
846.206	23779
846.342	23805
846.478	23764
846.614	23436
846.75	23341
846.886	23524
847.022	23600
847.158	23524
847.294	23524
847.429	23474
847.565	23391
847.701	23668
847.837	23170
847.972	23147
848.108	23280
848.244	23151
848.379	23014
848.515	23022
848.65	23071
848.786	23033
848.921	23136
849.057	23166
849.192	23094
849.328	23048
849.463	23048
849.598	22885
849.734	22953
849.869	22949
850.004	22733
850.14	22790
850.275	22847
850.41	22752
850.545	22786
850.68	22713
850.815	22885
850.95	22889
851.085	22938
851.22	22820
851.355	22854
851.49	22805
851.625	22759
851.76	22729
851.895	22717
852.03	22793
852.165	22805
852.299	22873
852.434	22911
852.569	22755
852.703	22790
852.838	22858
852.973	22850
853.107	22900
853.242	22774
853.376	22653
853.511	22478
853.645	22474
853.78	22653
853.914	22527
854.048	22626
854.183	22565
854.317	22531
854.451	22873
854.585	22649
854.72	22637
854.854	22580
854.988	22504
855.122	22557
855.256	22402
855.39	22592
855.524	22668
855.658	22710
855.792	22561
855.926	22554
856.06	22649
856.194	22538
856.327	22512
856.461	22550
856.595	22622
856.729	22580
856.862	22778
856.996	22611
857.13	22615
857.263	22641
857.397	22672
857.53	22538
857.664	22607
857.797	22706
857.931	22748
858.064	22618
858.197	22748
858.331	22538
858.464	22618
858.597	22542
858.731	22497
858.864	22550
858.997	22569
859.13	22615
859.263	22599
859.396	22771
859.529	22611
859.662	22618
859.795	22577
859.928	22577
860.061	22801
860.194	22843
860.327	22668
860.46	22771
860.592	22702
860.725	22748
860.858	22831
860.99	22573
861.123	22485
861.256	22554
861.388	22660
861.521	23341
861.653	22466
861.786	22447
861.918	22382
862.05	22440
862.183	22516
862.315	22550
862.447	22710
862.58	22516
862.712	22314
862.844	22249
862.976	22409
863.108	22333
863.24	22767
863.372	22363
863.504	22303
863.636	22230
863.768	22322
863.9	22348
864.032	22196
864.164	22379
864.296	22360
864.428	22356
864.559	22333
864.691	22303
864.823	22246
864.954	22295
865.086	22329
865.217	22223
865.349	22120
865.48	22128
865.612	22177
865.743	22379
865.875	22196
866.006	22109
866.137	22276
866.269	22207
866.4	22154
866.531	22128
866.662	22055
866.793	22109
866.924	22055
867.055	22109
867.186	22086
867.317	22200
867.448	22093
867.579	22143
867.71	22124
867.841	22025
867.972	22074
868.103	22044
868.233	22044
868.364	22124
868.495	22265
868.625	22337
868.756	22519
868.886	22325
869.017	22428
869.147	22508
869.278	22432
869.408	22310
869.539	22371
869.669	22405
869.799	22382
869.929	22512
870.06	22481
870.19	22607
870.32	22717
870.45	22713
870.58	22748
870.71	22915
870.84	22919
870.97	22736
871.1	22900
871.23	22915
871.36	22965
871.489	22881
871.619	22900
871.749	23006
871.879	23010
872.008	23052
872.138	23109
872.267	23022
872.397	22858
872.526	22843
872.656	22778
872.785	22721
872.915	23056
873.044	23022
873.173	23098
873.303	23014
873.432	23124
873.561	23136
873.69	22854
873.819	22866
873.948	23109
874.077	22934
874.206	22919
874.335	22972
874.464	23136
874.593	23242
874.722	23151
874.851	23140
874.979	23208
875.108	23265
875.237	23071
875.365	23071
875.494	23060
875.623	23269
875.751	23132
875.88	23193
876.008	23322
876.136	23421
876.265	23551
876.393	23707
876.521	23680
876.65	23524
876.778	23531
876.906	23573
877.034	23547
877.162	23421
877.29	23463
877.418	23482
877.546	23444
877.674	23406
877.802	23490
877.93	23417
878.058	23486
878.185	23315
878.313	23520
878.441	23543
878.568	23216
878.696	23539
878.824	23459
878.951	23528
879.079	23634
879.206	23703
879.333	23600
879.461	23398
879.588	23661
879.715	23687
879.842	23760
879.97	23589
880.097	23444
880.224	23376
880.351	23493
880.478	23322
880.605	23220
880.732	23387
880.859	23627
880.986	23345
881.112	23326
881.239	23136
881.366	23136
881.493	22980
881.619	23010
881.746	22976
881.872	22889
881.999	22805
882.125	22812
882.252	22858
882.378	22816
882.505	22984
882.631	22759
882.757	22573
882.883	22698
883.01	22603
883.136	22451
883.262	22379
883.388	22371
883.514	22710
883.64	22634
883.766	22398
883.892	22329
884.018	22325
884.143	22386
884.269	22519
884.395	22204
884.52	22150
884.646	22257
884.772	22158
884.897	22135
885.023	22284
885.148	22196
885.274	22462
885.399	22287
885.524	22109
885.65	22287
885.775	22166
885.9	22029
886.025	22261
886.15	22188
886.275	22158
886.4	22093
886.525	22234
886.65	22135
886.775	22090
886.9	22196
887.025	22394
887.149	22223
887.274	22067
887.399	21937
887.523	21998
887.648	21869
887.773	21831
887.897	22032
888.021	21994
888.146	21804
888.27	21979
888.395	22090
888.519	21812
888.643	22013
888.767	21972
888.891	21873
889.015	21759
889.139	21812
889.263	21759
889.387	21876
889.511	21926
889.635	21857
889.759	21709
889.883	21629
890.006	21747
890.13	21850
890.254	21720
890.377	21720
890.501	21515
890.624	21599
890.748	21545
890.871	21389
890.995	21321
891.118	21226
891.241	21272
891.364	21332
891.488	21401
891.611	21317
891.734	21355
891.857	21344
891.98	21302
892.103	21252
892.226	21317
892.349	21226
892.471	21055
892.594	21367
892.717	21165
892.839	21275
892.962	21146
893.085	21252
893.207	21211
893.33	21081
893.452	21047
893.575	21233
893.697	21157
893.819	21355
893.941	21363
894.064	21447
894.186	21127
894.308	21055
894.43	21195
894.552	21443
894.674	21325
894.796	21127
894.918	21199
895.04	21157
895.161	21363
895.283	21089
895.405	21055
895.526	21218
895.648	21142
895.769	21176
895.891	21237
896.012	21245
896.134	21214
896.255	21058
896.376	21119
896.498	21058
896.619	21085
896.74	21192
896.861	21222
896.982	21462
897.103	21545
897.224	21435
897.345	21435
897.466	21351
897.587	21264
897.708	21500
897.828	21370
897.949	21252
898.07	21207
898.19	21203
898.311	21469
898.431	21287
898.552	21302
898.672	21443
898.792	21408
898.913	21275
899.033	21184
899.153	21272
899.273	21051
899.393	21066
899.513	21081
899.633	21154
899.753	21043
899.873	20998
899.993	21096
900.113	21032
900.232	20963
900.352	21020
900.472	20887
900.591	20785
900.711	20838
900.83	20785
900.95	20971
901.069	20906
901.189	20724
901.308	20476
901.427	20396
901.546	20408
901.665	20552
901.784	20495
901.904	20237
902.023	20130
902.141	20001
902.26	19944
902.379	19917
902.498	19982
902.617	19936
902.735	19890
902.854	19917
902.973	19746
903.091	19662
903.21	19677
903.328	19662
903.446	19506
903.565	19441
903.683	19468
903.801	19304
903.919	19308
904.038	19282
904.156	19126
904.274	19206
904.392	19122
904.51	19103
904.627	19076
904.745	19118
904.863	19099
904.981	18958
905.098	18700
905.216	18821
905.334	18913
905.451	18829
905.569	18665
905.686	18894
905.803	18692
905.921	18604
906.038	18639
906.155	18623
906.272	18547
906.389	18547
906.506	18327
906.623	18270
906.74	18376
906.857	18186
906.974	18232
907.091	18407
907.208	18323
907.324	18361
907.441	18292
907.557	18083
907.674	18003
907.79	17958
907.907	17973
908.023	17984
908.139	18038
908.256	18015
908.372	17939
908.488	17836
908.604	17737
908.72	17752
908.836	17771
908.952	17703
909.068	17729
909.184	17805
909.3	17657
909.415	17726
909.531	17760
909.647	17452
909.762	17493
909.878	17551
909.993	17493
910.108	17356
910.224	17322
910.339	17417
910.454	17349
910.57	17258
910.685	17220
910.8	17455
910.915	17360
911.03	17265
911.145	17117
911.259	16923
911.374	16991
911.489	17010
911.604	16946
911.718	16729
911.833	16790
911.947	16824
912.062	16611
912.176	16717
912.291	16801
912.405	16771
912.519	16908
912.633	16927
912.748	16763
912.862	16740
912.976	16573
913.09	16493
913.204	16550
913.318	16588
913.431	16649
913.545	16618
913.659	16516
913.772	16497
913.886	16508
914	16424
914.113	16451
914.226	16512
914.34	16436
914.453	16276
914.566	16428
914.68	16211
914.793	16223
914.906	16032
915.019	15930
915.132	15850
915.245	15953
915.358	15873
915.47	15994
915.583	15972
915.696	15972
915.809	15945
915.921	15915
916.034	15816
916.146	15838
916.259	15732
916.371	15937
916.483	15918
916.595	15690
916.708	15698
916.82	15781
916.932	15774
917.044	15641
917.156	15778
917.268	15663
917.38	15561
917.491	15584
917.603	15561
917.715	15698
917.826	15614
917.938	15519
918.049	15351
918.161	15420
918.272	15618
918.384	15584
918.495	15393
918.606	15424
918.717	15241
918.828	15249
918.939	15313
919.05	15241
919.161	15291
919.272	15123
919.383	15192
919.494	15325
919.604	15564
919.715	15329
919.826	15207
919.936	15222
920.047	15348
920.157	15256
920.267	15500
920.378	15268
920.488	15264
920.598	15420
920.708	15545
920.818	15325
920.928	15462
921.038	15431
921.148	15496
921.258	15119
921.368	15119
921.477	14998
921.587	14990
921.697	14765
921.806	14895
921.916	14769
922.025	14762
922.134	14560
922.244	14552
922.353	14575
922.462	14473
922.571	14389
922.68	14324
922.789	14256
922.898	14313
923.007	14191
923.116	14381
923.224	14271
923.333	14206
923.442	14065
923.55	14107
923.659	14050
923.767	14103
923.876	13955
923.984	14092
924.092	13978
924.201	14035
924.309	13925
924.417	13986
924.525	13928
924.633	13909
924.741	14518
924.849	13662
924.956	13795
925.064	13628
925.172	13651
925.279	13651
925.387	13746
925.494	13556
925.602	13727
925.709	13655
925.816	13480
925.924	13510
926.031	13662
926.138	13597
926.245	13636
926.352	13449
926.459	13586
926.566	13582
926.673	13525
926.779	13411
926.886	13369
926.993	13175
927.099	13171
927.206	13069
927.312	13095
927.419	13202
927.525	13149
927.631	13240
927.737	13031
927.843	12928
927.95	12787
928.056	12901
928.162	13000
928.267	13088
928.373	13628
928.479	13072
928.585	12738
928.69	12916
928.796	12913
928.901	12783
929.007	12722
929.112	12878
929.218	12787
929.323	12787
929.428	12688
929.533	12795
929.638	12642
929.743	12604
929.848	12627
929.953	12620
930.058	12528
930.163	12353
930.267	12388
930.372	12502
930.477	12410
930.581	12536
930.685	12422
930.79	12270
930.894	12190
930.998	12235
931.103	12289
931.207	11931
931.311	11874
931.415	11908
931.519	11589
931.623	11558
