Data from test_V78500241_3213.txt Node
Date: Fri Mar 25 16:04:03 CST 2022
User: usil
Spectrometer: V785-0024
Trigger mode: 0
Integration Time (sec): 4.000000E-1
Scans to average: 1
Nonlinearity correction enabled: false
Boxcar width: 0
Storing dark spectrum: false
XAxis mode: Wavelengths
Number of Pixels in Spectrum: 1024
>>>>>Begin Spectral Data<<<<<
801.071	28801
801.214	28828
801.356	28573
801.499	28523
801.641	28322
801.783	28401
801.926	28504
802.068	28405
802.211	28382
802.353	28363
802.496	28036
802.638	28082
802.78	28029
802.923	27956
803.065	27987
803.208	28116
803.35	28109
803.492	28215
803.635	28352
803.777	28257
803.919	28401
804.061	28641
804.204	28443
804.346	28295
804.488	28360
804.63	28306
804.773	28295
804.915	28360
805.057	28546
805.199	28424
805.341	28360
805.483	28428
805.626	28447
805.768	28360
805.91	28584
806.052	28618
806.194	28413
806.336	28672
806.478	28474
806.62	28618
806.762	28748
806.904	28835
807.046	29109
807.188	29064
807.33	28995
807.472	29037
807.614	28888
807.756	29018
807.898	28976
808.04	28873
808.182	28687
808.324	28896
808.465	28995
808.607	29086
808.749	29010
808.891	29235
809.033	29322
809.174	29273
809.316	29239
809.458	29231
809.6	29258
809.741	29395
809.883	29433
810.025	29478
810.166	29493
810.308	29509
810.45	29516
810.591	29326
810.733	29124
810.875	29261
811.016	29174
811.158	29261
811.299	29395
811.441	29448
811.582	29349
811.724	29296
811.865	29185
812.007	29174
812.148	29330
812.29	29261
812.431	29490
812.573	29471
812.714	29779
812.855	29817
812.997	29862
813.138	29912
813.279	30007
813.421	29733
813.562	29745
813.703	29619
813.845	29520
813.986	29223
814.127	29132
814.268	28972
814.41	28987
814.551	28946
814.692	29010
814.833	28923
814.974	28801
815.115	28824
815.256	28934
815.397	28942
815.539	28843
815.68	28828
815.821	28835
815.962	28626
816.103	28649
816.244	28660
816.385	28588
816.526	28535
816.666	28363
816.807	28310
816.948	28272
817.089	28379
817.23	28360
817.371	28249
817.512	28280
817.653	28181
817.793	28226
817.934	28257
818.075	28272
818.216	28318
818.356	28154
818.497	28093
818.638	28093
818.778	28173
818.919	28086
819.06	28181
819.2	28093
819.341	28360
819.481	28204
819.622	28314
819.762	28592
819.903	28500
820.043	28550
820.184	28386
820.324	28421
820.465	28371
820.605	28367
820.746	28322
820.886	28356
821.026	28500
821.167	28310
821.307	28451
821.447	28299
821.588	28253
821.728	27972
821.868	27857
822.008	27854
822.149	27854
822.289	27717
822.429	27591
822.569	27507
822.709	27378
822.849	27150
822.99	27424
823.13	27222
823.27	27180
823.41	27089
823.55	26925
823.69	27192
823.83	27066
823.97	26960
824.11	26876
824.25	26769
824.389	26902
824.529	27001
824.669	26883
824.809	26933
824.949	27039
825.089	27009
825.228	26990
825.368	26796
825.508	26686
825.648	26788
825.787	26872
825.927	26781
826.067	26811
826.206	26868
826.346	26902
826.485	26845
826.625	26796
826.765	26933
826.904	26906
827.044	26545
827.183	26674
827.323	26499
827.462	26465
827.601	26640
827.741	26522
827.88	26541
828.02	26419
828.159	26480
828.298	26617
828.437	26594
828.577	26594
828.716	26648
828.855	26377
828.994	26237
829.134	26088
829.273	26290
829.412	26024
829.551	26351
829.69	26271
829.829	26195
829.968	26278
830.107	26278
830.246	26233
830.385	26263
830.524	26096
830.663	26050
830.802	25936
830.941	25791
831.08	25837
831.219	25906
831.357	25963
831.496	26111
831.635	25898
831.774	25765
831.913	25715
832.051	25479
832.19	25567
832.329	25635
832.467	25590
832.606	25434
832.744	25392
832.883	25521
833.022	25449
833.16	25434
833.299	25586
833.437	25502
833.576	25544
833.714	25552
833.852	25597
833.991	25548
834.129	25537
834.267	25609
834.406	25529
834.544	25521
834.682	25674
834.821	25510
834.959	25803
835.097	25320
835.235	25632
835.373	25479
835.511	25407
835.65	25384
835.788	25388
835.926	25282
836.064	25110
836.202	25274
836.34	25324
836.478	25441
836.615	25301
836.753	25358
836.891	25354
837.029	25331
837.167	25293
837.305	25327
837.443	25206
837.58	25228
837.718	25255
837.856	25327
837.993	25122
838.131	25122
838.269	25103
838.406	25103
838.544	25034
838.681	24840
838.819	24833
838.956	24696
839.094	24700
839.231	24734
839.369	24939
839.506	25069
839.643	24856
839.781	24677
839.918	24528
840.055	24684
840.193	24658
840.33	24635
840.467	24627
840.604	24650
840.742	24890
840.879	24479
841.016	24525
841.153	24361
841.29	24658
841.427	24601
841.564	24635
841.701	24677
841.838	24547
841.975	24467
842.112	24372
842.249	24441
842.385	24418
842.522	24479
842.659	24456
842.796	24285
842.933	24334
843.069	24258
843.206	24292
843.343	24456
843.479	24327
843.616	24323
843.752	24174
843.889	24182
844.025	24315
844.162	24140
844.298	24102
844.435	24060
844.571	24155
844.708	24201
844.844	24178
844.98	24213
845.117	24174
845.253	23996
845.389	23882
845.525	24007
845.661	23935
845.798	23855
845.934	23897
846.07	23790
846.206	23878
846.342	23882
846.478	23718
846.614	23707
846.75	23406
846.886	23486
847.022	23490
847.158	23615
847.294	23478
847.429	23623
847.565	23444
847.701	23745
847.837	23231
847.972	23227
848.108	23452
848.244	23341
848.379	23239
848.515	23151
848.65	23136
848.786	23269
848.921	23246
849.057	23242
849.192	23315
849.328	23277
849.463	23003
849.598	23178
849.734	23044
849.869	22904
850.004	22889
850.14	22793
850.275	22965
850.41	22972
850.545	22885
850.68	22927
850.815	22896
850.95	22976
851.085	22991
851.22	23052
851.355	23033
851.49	22927
851.625	22862
851.76	22835
851.895	22862
852.03	22809
852.165	22828
852.299	22889
852.434	23033
852.569	22843
852.703	22961
852.838	22843
852.973	23025
853.107	23056
853.242	22961
853.376	22706
853.511	22698
853.645	22744
853.78	22839
853.914	22755
854.048	22573
854.183	22744
854.317	22759
854.451	22885
854.585	22793
854.72	22843
854.854	22835
854.988	22622
855.122	22774
855.256	22683
855.39	22729
855.524	22744
855.658	22812
855.792	22672
855.926	22771
856.06	22733
856.194	22740
856.327	22691
856.461	22736
856.595	22565
856.729	22721
856.862	22778
856.996	22774
857.13	22767
857.263	22812
857.397	22877
857.53	22744
857.664	22752
857.797	22843
857.931	22767
858.064	22645
858.197	22759
858.331	22767
858.464	22641
858.597	22641
858.731	22713
858.864	22637
858.997	22702
859.13	22801
859.263	22706
859.396	22687
859.529	22721
859.662	22428
859.795	22691
859.928	22713
860.061	22763
860.194	23003
860.327	22854
860.46	22733
860.592	22858
860.725	22839
860.858	22824
860.99	22649
861.123	22599
861.256	22664
861.388	22698
861.521	23364
861.653	22683
861.786	22577
861.918	22584
862.05	22557
862.183	22706
862.315	22702
862.447	22630
862.58	22717
862.712	22462
862.844	22428
862.976	22512
863.108	22470
863.24	22778
863.372	22280
863.504	22443
863.636	22417
863.768	22295
863.9	22459
864.032	22280
864.164	22223
864.296	22508
864.428	22542
864.559	22409
864.691	22440
864.823	22367
864.954	22344
865.086	22303
865.217	22295
865.349	22226
865.48	22204
865.612	22265
865.743	22333
865.875	22287
866.006	22249
866.137	22360
866.269	22310
866.4	22329
866.531	22192
866.662	22234
866.793	22246
866.924	22287
867.055	22348
867.186	22341
867.317	22230
867.448	22128
867.579	22196
867.71	22249
867.841	22196
867.972	22154
868.103	22162
868.233	22147
868.364	22185
868.495	22341
868.625	22421
868.756	22493
868.886	22382
869.017	22470
869.147	22561
869.278	22645
869.408	22371
869.539	22531
869.669	22428
869.799	22557
869.929	22489
870.06	22664
870.19	22858
870.32	22763
870.45	22896
870.58	22778
870.71	23083
870.84	22934
870.97	22965
871.1	22976
871.23	23064
871.36	23029
871.489	22850
871.619	23048
871.749	23006
871.879	23083
872.008	23143
872.138	22987
872.267	23060
872.397	22877
872.526	22771
872.656	22885
872.785	22892
872.915	23029
873.044	23185
873.173	23079
873.303	23212
873.432	23208
873.561	23227
873.69	22995
873.819	23064
873.948	23178
874.077	23124
874.206	23121
874.335	23151
874.464	23200
874.593	23360
874.722	23162
874.851	23277
874.979	23372
875.108	23330
875.237	23337
875.365	23208
875.494	23315
875.623	23391
875.751	23250
875.88	23178
876.008	23505
876.136	23429
876.265	23714
876.393	23870
876.521	23745
876.65	23771
876.778	23726
876.906	23687
877.034	23554
877.162	23703
877.29	23570
877.418	23649
877.546	23627
877.674	23589
877.802	23539
877.93	23638
878.058	23619
878.185	23440
878.313	23512
878.441	23558
878.568	23524
878.696	23661
878.824	23657
878.951	23729
879.079	23672
879.206	24022
879.333	23874
879.461	23634
879.588	23775
879.715	23859
879.842	23984
879.97	23726
880.097	23455
880.224	23299
880.351	23376
880.478	23421
880.605	23349
880.732	23421
880.859	23611
880.986	23490
881.112	23512
881.239	23337
881.366	23189
881.493	23235
881.619	23010
881.746	22980
881.872	23003
881.999	23022
882.125	22934
882.252	23105
882.378	22987
882.505	23022
882.631	22740
882.757	22733
882.883	22786
883.01	22725
883.136	22637
883.262	22535
883.388	22554
883.514	22577
883.64	22702
883.766	22557
883.892	22466
884.018	22470
884.143	22546
884.269	22675
884.395	22428
884.52	22295
884.646	22325
884.772	22185
884.897	22265
885.023	22314
885.148	22352
885.274	22348
885.399	22421
885.524	22295
885.65	22249
885.775	22291
885.9	22246
886.025	22436
886.15	22356
886.275	22360
886.4	22215
886.525	22242
886.65	22238
886.775	22230
886.9	22398
887.025	22542
887.149	22284
887.274	22101
887.399	22013
887.523	22082
887.648	22044
887.773	21945
887.897	22048
888.021	22131
888.146	21960
888.27	22181
888.395	22162
888.519	22139
888.643	22029
888.767	22059
888.891	21888
889.015	21892
889.139	21854
889.263	21865
889.387	21968
889.511	22116
889.635	21907
889.759	21804
889.883	21789
890.006	21838
890.13	21915
890.254	21850
890.377	21751
890.501	21549
890.624	21488
890.748	21720
890.871	21424
890.995	21557
891.118	21306
891.241	21344
891.364	21351
891.488	21603
891.611	21424
891.734	21511
891.857	21416
891.98	21336
892.103	21500
892.226	21306
892.349	21416
892.471	21108
892.594	21302
892.717	21367
892.839	21195
892.962	21420
893.085	21321
893.207	21252
893.33	21207
893.452	21135
893.575	21439
893.697	21340
893.819	21462
893.941	21538
894.064	21325
894.186	21378
894.308	21180
894.43	21363
894.552	21515
894.674	21416
894.796	21154
894.918	21169
895.04	21195
895.161	21287
895.283	21207
895.405	21192
895.526	21252
895.648	21192
895.769	21241
895.891	21344
896.012	21329
896.134	21329
896.255	21165
896.376	21279
896.498	21146
896.619	21184
896.74	21245
896.861	21359
896.982	21526
897.103	21660
897.224	21462
897.345	21412
897.466	21431
897.587	21504
897.708	21500
897.828	21500
897.949	21412
898.07	21401
898.19	21340
898.311	21500
898.431	21424
898.552	21454
898.672	21504
898.792	21564
898.913	21561
899.033	21214
899.153	21298
899.273	21131
899.393	21233
899.513	21188
899.633	21252
899.753	21150
899.873	21055
899.993	21237
900.113	21131
900.232	21108
900.352	21017
900.472	21005
900.591	20788
900.711	20921
900.83	21074
900.95	21036
901.069	21062
901.189	20948
901.308	20655
901.427	20507
901.546	20575
901.665	20568
901.784	20518
901.904	20355
902.023	20305
902.141	20081
902.26	20077
902.379	20195
902.498	20039
902.617	19928
902.735	20043
902.854	19951
902.973	19978
903.091	19677
903.21	19689
903.328	19696
903.446	19601
903.565	19487
903.683	19468
903.801	19430
903.919	19499
904.038	19320
904.156	19225
904.274	19304
904.392	19114
904.51	19141
904.627	19244
904.745	19289
904.863	19225
904.981	19091
905.098	18871
905.216	18901
905.334	18970
905.451	18840
905.569	18901
905.686	18901
905.803	18798
905.921	18646
906.038	18681
906.155	18719
906.272	18601
906.389	18521
906.506	18448
906.623	18323
906.74	18422
906.857	18319
906.974	18304
907.091	18441
907.208	18551
907.324	18479
907.441	18239
907.557	18228
907.674	18171
907.79	18060
907.907	18007
908.023	18155
908.139	18155
908.256	18182
908.372	18125
908.488	18057
908.604	17935
908.72	17840
908.836	17878
908.952	17954
909.068	17893
909.184	17912
909.3	17840
909.415	17817
909.531	17920
909.647	17623
909.762	17501
909.878	17425
909.993	17520
910.108	17417
910.224	17402
910.339	17376
910.454	17299
910.57	17311
910.685	17204
910.8	17535
910.915	17395
911.03	17345
911.145	17212
911.259	17212
911.374	16999
911.489	17018
911.604	16995
911.718	16968
911.833	16858
911.947	16721
912.062	16733
912.176	16850
912.291	16896
912.405	16896
912.519	17121
912.633	16987
912.748	16873
912.862	16778
912.976	16664
913.09	16577
913.204	16615
913.318	16675
913.431	16782
913.545	16698
913.659	16816
913.772	16611
913.886	16493
914	16459
914.113	16599
914.226	16527
914.34	16440
914.453	16363
914.566	16466
914.68	16341
914.793	16211
914.906	16181
915.019	16002
915.132	16032
915.245	15994
915.358	16059
915.47	15983
915.583	16048
915.696	16078
915.809	16135
915.921	16017
916.034	15972
916.146	15888
916.259	15964
916.371	16025
916.483	15934
916.595	15892
916.708	15918
916.82	15827
916.932	15854
917.044	15747
917.156	15736
917.268	15679
917.38	15736
917.491	15709
917.603	15698
917.715	15804
917.826	15797
917.938	15587
918.049	15488
918.161	15603
918.272	15762
918.384	15720
918.495	15675
918.606	15466
918.717	15325
918.828	15458
918.939	15458
919.05	15298
919.161	15443
919.272	15157
919.383	15302
919.494	15496
919.604	15496
919.715	15416
919.826	15287
919.936	15397
920.047	15416
920.157	15378
920.267	15397
920.378	15439
920.488	15348
920.598	15454
920.708	15652
920.818	15458
920.928	15504
921.038	15682
921.148	15629
921.258	15313
921.368	15218
921.477	15146
921.587	15112
921.697	14921
921.806	15112
921.916	14906
922.025	14819
922.134	14724
922.244	14689
922.353	14819
922.462	14674
922.571	14549
922.68	14404
922.789	14381
922.898	14457
923.007	14278
923.116	14298
923.224	14427
923.333	14332
923.442	14191
923.55	14145
923.659	14164
923.767	14214
923.876	14134
923.984	14172
924.092	14073
924.201	14077
924.309	14084
924.417	14027
924.525	13883
924.633	13936
924.741	14811
924.849	13750
924.956	14020
925.064	13780
925.172	13723
925.279	13742
925.387	13765
925.494	13689
925.602	13814
925.709	13677
925.816	13658
925.924	13613
926.031	13780
926.138	13647
926.245	13685
926.352	13647
926.459	13708
926.566	13731
926.673	13552
926.779	13445
926.886	13453
926.993	13400
927.099	13331
927.206	13228
927.312	13244
927.419	13293
927.525	13316
927.631	13278
927.737	13175
927.843	13149
927.95	13004
928.056	13099
928.162	13126
928.267	13042
928.373	13700
928.479	13251
928.585	12897
928.69	13019
928.796	13152
928.901	12909
929.007	12840
929.112	12859
929.218	12863
929.323	12810
929.428	12741
929.533	12882
929.638	12848
929.743	12745
929.848	12798
929.953	12696
930.058	12570
930.163	12475
930.267	12456
930.372	12601
930.477	12460
930.581	12623
930.685	12521
930.79	12342
930.894	12338
930.998	12315
931.103	12456
931.207	12152
931.311	11893
931.415	11885
931.519	11722
931.623	11684
