Data from test_V78500241_3094.txt Node
Date: Fri Mar 25 16:03:14 CST 2022
User: usil
Spectrometer: V785-0024
Trigger mode: 0
Integration Time (sec): 4.000000E-1
Scans to average: 1
Nonlinearity correction enabled: false
Boxcar width: 0
Storing dark spectrum: false
XAxis mode: Wavelengths
Number of Pixels in Spectrum: 1024
>>>>>Begin Spectral Data<<<<<
801.071	28398
801.214	28417
801.356	28238
801.499	28082
801.641	28093
801.783	28044
801.926	28139
802.068	28082
802.211	27991
802.353	28029
802.496	27759
802.638	27789
802.78	27835
802.923	27755
803.065	27667
803.208	27808
803.35	27743
803.492	27861
803.635	27964
803.777	27804
803.919	27998
804.061	28280
804.204	28078
804.346	27873
804.488	27972
804.63	28029
804.773	27994
804.915	28067
805.057	28261
805.199	28017
805.341	28021
805.483	28097
805.626	28230
805.768	27873
805.91	28242
806.052	28128
806.194	28181
806.336	28325
806.478	28090
806.62	28090
806.762	28265
806.904	28519
807.046	28736
807.188	28634
807.33	28599
807.472	28740
807.614	28535
807.756	28386
807.898	28466
808.04	28333
808.182	28485
808.324	28459
808.465	28489
808.607	28607
808.749	28980
808.891	28809
809.033	28949
809.174	28809
809.316	28767
809.458	28824
809.6	28782
809.741	28938
809.883	28927
810.025	29193
810.166	29109
810.308	29113
810.45	29060
810.591	28961
810.733	28824
810.875	28835
811.016	28900
811.158	28824
811.299	28930
811.441	28881
811.582	28965
811.724	28888
811.865	28847
812.007	28797
812.148	28850
812.29	28801
812.431	28938
812.573	29269
812.714	29345
812.855	29292
812.997	29398
813.138	29596
813.279	29512
813.421	29341
813.562	29315
813.703	29128
813.845	29143
813.986	28786
814.127	28645
814.268	28512
814.41	28622
814.551	28489
814.692	28577
814.833	28577
814.974	28607
815.115	28523
815.256	28542
815.397	28390
815.539	28386
815.68	28398
815.821	28280
815.962	28272
816.103	28272
816.244	28177
816.385	28067
816.526	28090
816.666	28025
816.807	27774
816.948	27941
817.089	27842
817.23	27838
817.371	27838
817.512	27793
817.653	27804
817.793	27709
817.934	27797
818.075	27975
818.216	27781
818.356	27797
818.497	27831
818.638	27599
818.778	27641
818.919	27591
819.06	27557
819.2	27747
819.341	27926
819.481	27903
819.622	27953
819.762	28139
819.903	28055
820.043	27991
820.184	27979
820.324	27842
820.465	27994
820.605	28109
820.746	27876
820.886	27785
821.026	27956
821.167	27972
821.307	27964
821.447	27899
821.588	27644
821.728	27545
821.868	27431
822.008	27534
822.149	27439
822.289	27431
822.429	26971
822.569	26998
822.709	27047
822.849	26853
822.99	26880
823.13	26705
823.27	26838
823.41	26663
823.55	26575
823.69	26708
823.83	26571
823.97	26609
824.11	26480
824.25	26366
824.389	26537
824.529	26648
824.669	26427
824.809	26659
824.949	26644
825.089	26533
825.228	26552
825.368	26377
825.508	26415
825.648	26381
825.787	26423
825.927	26469
826.067	26259
826.206	26358
826.346	26400
826.485	26332
826.625	26320
826.765	26469
826.904	26366
827.044	26180
827.183	26142
827.323	26145
827.462	26172
827.601	26039
827.741	26138
827.88	26062
828.02	26073
828.159	25982
828.298	26206
828.437	26244
828.577	25887
828.716	26221
828.855	25963
828.994	25803
829.134	25795
829.273	25852
829.412	25791
829.551	25818
829.69	25875
829.829	25913
829.968	25772
830.107	25852
830.246	25868
830.385	25917
830.524	25708
830.663	25563
830.802	25556
830.941	25502
831.08	25479
831.219	25514
831.357	25373
831.496	25601
831.635	25320
831.774	25251
831.913	25278
832.051	25103
832.19	25263
832.329	25217
832.467	25080
832.606	25069
832.744	24977
832.883	25072
833.022	24920
833.16	25137
833.299	25118
833.437	25076
833.576	25099
833.714	25091
833.852	25190
833.991	25202
834.129	25175
834.267	25190
834.406	25110
834.544	25320
834.682	24996
834.821	24973
834.959	25240
835.097	25114
835.235	25114
835.373	25118
835.511	24985
835.65	24985
835.788	24970
835.926	24848
836.064	24749
836.202	24787
836.34	24928
836.478	25008
836.615	24798
836.753	25015
836.891	25019
837.029	24973
837.167	24867
837.305	24764
837.443	24795
837.58	24890
837.718	24810
837.856	24848
837.993	24791
838.131	24734
838.269	24760
838.406	24806
838.544	24627
838.681	24547
838.819	24551
838.956	24281
839.094	24311
839.231	24243
839.369	24593
839.506	24597
839.643	24544
839.781	24296
839.918	24159
840.055	24285
840.193	24270
840.33	24155
840.467	24197
840.604	24224
840.742	24521
840.879	24015
841.016	24171
841.153	24011
841.29	24311
841.427	24121
841.564	24155
841.701	24152
841.838	24125
841.975	24003
842.112	24083
842.249	24038
842.385	23942
842.522	24129
842.659	23977
842.796	23824
842.933	23893
843.069	23779
843.206	23935
843.343	23958
843.479	23870
843.616	23901
843.752	23790
843.889	23726
844.025	23722
844.162	23695
844.298	23794
844.435	23665
844.571	23714
844.708	23691
844.844	23897
844.98	23855
845.117	23783
845.253	23684
845.389	23490
845.525	23562
845.661	23501
845.798	23429
845.934	23512
846.07	23334
846.206	23459
846.342	23528
846.478	23417
846.614	23200
846.75	23239
846.886	23189
847.022	23151
847.158	23071
847.294	23242
847.429	23170
847.565	23124
847.701	23444
847.837	22953
847.972	22892
848.108	22946
848.244	22869
848.379	22828
848.515	22736
848.65	22740
848.786	22592
848.921	22577
849.057	22881
849.192	22866
849.328	22828
849.463	22759
849.598	22702
849.734	22672
849.869	22607
850.004	22523
850.14	22573
850.275	22569
850.41	22405
850.545	22527
850.68	22519
850.815	22474
850.95	22504
851.085	22793
851.22	22641
851.355	22546
851.49	22618
851.625	22447
851.76	22542
851.895	22474
852.03	22405
852.165	22440
852.299	22542
852.434	22664
852.569	22599
852.703	22436
852.838	22485
852.973	22580
853.107	22550
853.242	22386
853.376	22424
853.511	22284
853.645	22215
853.78	22455
853.914	22352
854.048	22242
854.183	22280
854.317	22386
854.451	22554
854.585	22382
854.72	22325
854.854	22542
854.988	22253
855.122	22371
855.256	22200
855.39	22249
855.524	22443
855.658	22341
855.792	22310
855.926	22318
856.06	22409
856.194	22398
856.327	22386
856.461	22249
856.595	22223
856.729	22310
856.862	22379
856.996	22493
857.13	22504
857.263	22352
857.397	22436
857.53	22329
857.664	22356
857.797	22455
857.931	22360
858.064	22382
858.197	22436
858.331	22386
858.464	22291
858.597	22272
858.731	22238
858.864	22424
858.997	22352
859.13	22329
859.263	22276
859.396	22538
859.529	22295
859.662	22265
859.795	22200
859.928	22295
860.061	22451
860.194	22542
860.327	22382
860.46	22367
860.592	22577
860.725	22443
860.858	22493
860.99	22265
861.123	22230
861.256	22306
861.388	22375
861.521	22991
861.653	22329
861.786	22147
861.918	22188
862.05	22303
862.183	22341
862.315	22268
862.447	22318
862.58	22238
862.712	22078
862.844	21956
862.976	22257
863.108	22044
863.24	22470
863.372	22044
863.504	22067
863.636	22082
863.768	22025
863.9	22021
864.032	21964
864.164	21968
864.296	22029
864.428	22105
864.559	22074
864.691	22200
864.823	22105
864.954	21953
865.086	21987
865.217	21873
865.349	21781
865.48	21888
865.612	21884
865.743	22074
865.875	21918
866.006	21903
866.137	21941
866.269	21941
866.4	21819
866.531	21964
866.662	21766
866.793	21816
866.924	21876
867.055	21911
867.186	21979
867.317	21861
867.448	21770
867.579	21812
867.71	21770
867.841	21869
867.972	21713
868.103	21755
868.233	21861
868.364	21823
868.495	21953
868.625	22097
868.756	22147
868.886	22044
869.017	22055
869.147	22249
869.278	22192
869.408	22169
869.539	21972
869.669	22120
869.799	22166
869.929	22226
870.06	22204
870.19	22303
870.32	22386
870.45	22394
870.58	22470
870.71	22580
870.84	22618
870.97	22367
871.1	22584
871.23	22713
871.36	22710
871.489	22592
871.619	22736
871.749	22615
871.879	22733
872.008	22713
872.138	22717
872.267	22687
872.397	22535
872.526	22565
872.656	22584
872.785	22577
872.915	22752
873.044	22900
873.173	22767
873.303	22729
873.432	22744
873.561	22866
873.69	22717
873.819	22660
873.948	22683
874.077	22698
874.206	22778
874.335	22675
874.464	22755
874.593	23037
874.722	22900
874.851	22953
874.979	23041
875.108	22892
875.237	22946
875.365	22790
875.494	22812
875.623	23003
875.751	22767
875.88	23003
876.008	23079
876.136	23136
876.265	23360
876.393	23520
876.521	23421
876.65	23341
876.778	23391
876.906	23250
877.034	23254
877.162	23292
877.29	23185
877.418	23315
877.546	23254
877.674	23337
877.802	23269
877.93	23288
878.058	23189
878.185	23220
878.313	23105
878.441	23315
878.568	23094
878.696	23128
878.824	23379
878.951	23368
879.079	23524
879.206	23486
879.333	23398
879.461	23292
879.588	23356
879.715	23474
879.842	23585
879.97	23227
880.097	23204
880.224	23113
880.351	23178
880.478	23220
880.605	23075
880.732	23094
880.859	23315
880.986	23250
881.112	23140
881.239	23029
881.366	22915
881.493	22725
881.619	22824
881.746	22820
881.872	22744
881.999	22603
882.125	22634
882.252	22637
882.378	22656
882.505	22797
882.631	22550
882.757	22417
882.883	22405
883.01	22291
883.136	22314
883.262	22143
883.388	22185
883.514	22382
883.64	22325
883.766	22226
883.892	22124
884.018	22002
884.143	22303
884.269	22329
884.395	22090
884.52	22021
884.646	21915
884.772	21953
884.897	21911
885.023	21949
885.148	22036
885.274	22078
885.399	22051
885.524	21884
885.65	22013
885.775	21975
885.9	21960
886.025	22090
886.15	22070
886.275	21956
886.4	21922
886.525	21983
886.65	21869
886.775	21903
886.9	22101
887.025	22158
887.149	21934
887.274	21789
887.399	21717
887.523	21755
887.648	21663
887.773	21523
887.897	21857
888.021	21778
888.146	21622
888.27	21903
888.395	21778
888.519	21622
888.643	21629
888.767	21671
888.891	21515
889.015	21648
889.139	21629
889.263	21431
889.387	21660
889.511	21835
889.635	21542
889.759	21511
889.883	21583
890.006	21545
890.13	21534
890.254	21367
890.377	21485
890.501	21233
890.624	21233
890.748	21195
890.871	21222
890.995	21123
891.118	21146
891.241	21093
891.364	21017
891.488	21252
891.611	21032
891.734	21005
891.857	21165
891.98	21138
892.103	21062
892.226	21074
892.349	20982
892.471	20902
892.594	20967
892.717	20975
892.839	20963
892.962	20975
893.085	21066
893.207	20971
893.33	20906
893.452	20906
893.575	21074
893.697	20883
893.819	21146
893.941	21089
894.064	21001
894.186	20921
894.308	20815
894.43	21058
894.552	20963
894.674	20902
894.796	20883
894.918	20891
895.04	20963
895.161	21043
895.283	20891
895.405	20994
895.526	20861
895.648	20872
895.769	21020
895.891	20998
896.012	21001
896.134	21058
896.255	20967
896.376	20811
896.498	20941
896.619	20929
896.74	20880
896.861	20948
896.982	21275
897.103	21367
897.224	21203
897.345	21100
897.466	21089
897.587	21176
897.708	21230
897.828	21203
897.949	21195
898.07	20960
898.19	21256
898.311	21230
898.431	21150
898.552	21039
898.672	21093
898.792	21051
898.913	21226
899.033	21093
899.153	20998
899.273	20788
899.393	20872
899.513	20990
899.633	20880
899.753	20906
899.873	20857
899.993	20929
900.113	20815
900.232	20705
900.352	20655
900.472	20743
900.591	20625
900.711	20602
900.83	20606
900.95	20701
901.069	20845
901.189	20423
901.308	20278
901.427	20206
901.546	20237
901.665	20248
901.784	20199
901.904	20043
902.023	20031
902.141	19833
902.26	19830
902.379	19613
902.498	19833
902.617	19681
902.735	19696
902.854	19681
902.973	19719
903.091	19335
903.21	19384
903.328	19400
903.446	19312
903.565	19187
903.683	19209
903.801	19023
903.919	19232
904.038	19095
904.156	18993
904.274	18973
904.392	18909
904.51	18882
904.627	18901
904.745	18882
904.863	18939
904.981	18730
905.098	18597
905.216	18612
905.334	18669
905.451	18582
905.569	18555
905.686	18589
905.803	18441
905.921	18353
906.038	18517
906.155	18395
906.272	18292
906.389	18357
906.506	18106
906.623	18053
906.74	18155
906.857	18076
906.974	18098
907.091	18117
907.208	18254
907.324	18178
907.441	18034
907.557	17851
907.674	17847
907.79	17855
907.907	17809
908.023	17783
908.139	17870
908.256	17737
908.372	17737
908.488	17783
908.604	17672
908.72	17512
908.836	17570
908.952	17589
909.068	17600
909.184	17573
909.3	17611
909.415	17589
909.531	17600
909.647	17402
909.762	17178
909.878	17216
909.993	17273
910.108	17341
910.224	17189
910.339	17254
910.454	17033
910.57	17010
910.685	16984
910.8	17273
910.915	17200
911.03	17067
911.145	16877
911.259	16809
911.374	16854
911.489	16752
911.604	16774
911.718	16683
911.833	16748
911.947	16424
912.062	16459
912.176	16618
912.291	16626
912.405	16554
912.519	16847
912.633	16790
912.748	16641
912.862	16432
912.976	16424
913.09	16219
913.204	16382
913.318	16493
913.431	16447
913.545	16447
913.659	16508
913.772	16379
913.886	16207
914	16097
914.113	16280
914.226	16360
914.34	16226
914.453	16093
914.566	16173
914.68	16147
914.793	15979
914.906	15884
915.019	15846
915.132	15652
915.245	15751
915.358	15831
915.47	15854
915.583	15835
915.696	15812
915.809	15911
915.921	15930
916.034	15698
916.146	15747
916.259	15599
916.371	15720
916.483	15606
916.595	15568
916.708	15557
916.82	15595
916.932	15454
917.044	15511
917.156	15458
917.268	15420
917.38	15401
917.491	15344
917.603	15397
917.715	15462
917.826	15656
917.938	15233
918.049	15218
918.161	15332
918.272	15504
918.384	15382
918.495	15344
918.606	15169
918.717	15138
918.828	15180
918.939	15138
919.05	15020
919.161	15142
919.272	14944
919.383	14982
919.494	15245
919.604	15386
919.715	15058
919.826	15036
919.936	15036
920.047	15093
920.157	15081
920.267	15264
920.378	15032
920.488	15024
920.598	15272
920.708	15325
920.818	15184
920.928	15176
921.038	15348
921.148	15264
921.258	15032
921.368	14880
921.477	14857
921.587	14785
921.697	14724
921.806	14823
921.916	14610
922.025	14522
922.134	14450
922.244	14355
922.353	14480
922.462	14355
922.571	14286
922.68	14180
922.789	14046
922.898	14180
923.007	14096
923.116	14084
923.224	14012
923.333	14043
923.442	13982
923.55	13993
923.659	13947
923.767	13978
923.876	13837
923.984	13883
924.092	13769
924.201	13951
924.309	13803
924.417	13890
924.525	13818
924.633	13776
924.741	14556
924.849	13514
924.956	13681
925.064	13521
925.172	13441
925.279	13445
925.387	13480
925.494	13411
925.602	13495
925.709	13472
925.816	13381
925.924	13441
926.031	13480
926.138	13422
926.245	13506
926.352	13308
926.459	13525
926.566	13491
926.673	13403
926.779	13228
926.886	13251
926.993	13050
927.099	13019
927.206	12924
927.312	13008
927.419	12993
927.525	12897
927.631	13015
927.737	12939
927.843	12863
927.95	12741
928.056	12787
928.162	12924
928.267	12863
928.373	13460
928.479	12863
928.585	12688
928.69	12772
928.796	12852
928.901	12692
929.007	12521
929.112	12597
929.218	12696
929.323	12551
929.428	12506
929.533	12730
929.638	12486
929.743	12483
929.848	12536
929.953	12437
930.058	12433
930.163	12251
930.267	12338
930.372	12399
930.477	12167
930.581	12380
930.685	12239
930.79	12091
930.894	12129
930.998	11954
931.103	12239
931.207	11920
931.311	11786
931.415	11745
931.519	11391
931.623	11421
