Data from test_V78500241_3135.txt Node
Date: Fri Mar 25 16:03:31 CST 2022
User: usil
Spectrometer: V785-0024
Trigger mode: 0
Integration Time (sec): 4.000000E-1
Scans to average: 1
Nonlinearity correction enabled: false
Boxcar width: 0
Storing dark spectrum: false
XAxis mode: Wavelengths
Number of Pixels in Spectrum: 1024
>>>>>Begin Spectral Data<<<<<
801.071	28877
801.214	28812
801.356	28683
801.499	28622
801.641	28485
801.783	28565
801.926	28546
802.068	28531
802.211	28451
802.353	28310
802.496	28280
802.638	28211
802.78	28017
802.923	28059
803.065	28105
803.208	28036
803.35	28177
803.492	28367
803.635	28371
803.777	28337
803.919	28565
804.061	28691
804.204	28550
804.346	28470
804.488	28436
804.63	28557
804.773	28424
804.915	28561
805.057	28596
805.199	28436
805.341	28512
805.483	28569
805.626	28698
805.768	28485
805.91	28713
806.052	28599
806.194	28626
806.336	28759
806.478	28653
806.62	28641
806.762	28831
806.904	28854
807.046	29140
807.188	29041
807.33	28965
807.472	29094
807.614	29044
807.756	29132
807.898	29022
808.04	28706
808.182	28896
808.324	28946
808.465	29048
808.607	29258
808.749	29364
808.891	29235
809.033	29455
809.174	29284
809.316	29231
809.458	29311
809.6	29162
809.741	29406
809.883	29512
810.025	29581
810.166	29592
810.308	29687
810.45	29467
810.591	29653
810.733	29429
810.875	29375
811.016	29250
811.158	29280
811.299	29436
811.441	29471
811.582	29585
811.724	29334
811.865	29086
812.007	29326
812.148	29212
812.29	29566
812.431	29509
812.573	29665
812.714	29710
812.855	29722
812.997	30011
813.138	30072
813.279	30095
813.421	29862
813.562	29665
813.703	29752
813.845	29570
813.986	29254
814.127	29109
814.268	29189
814.41	29037
814.551	29014
814.692	29193
814.833	28930
814.974	28999
815.115	29033
815.256	28911
815.397	28900
815.539	28881
815.68	28862
815.821	28645
815.962	28816
816.103	28797
816.244	28702
816.385	28626
816.526	28634
816.666	28413
816.807	28337
816.948	28394
817.089	28459
817.23	28352
817.371	28424
817.512	28352
817.653	28382
817.793	28280
817.934	28367
818.075	28512
818.216	28413
818.356	28344
818.497	28249
818.638	28090
818.778	28173
818.919	28044
819.06	28192
819.2	28272
819.341	28299
819.481	28436
819.622	28531
819.762	28793
819.903	28637
820.043	28569
820.184	28508
820.324	28344
820.465	28565
820.605	28565
820.746	28440
820.886	28306
821.026	28573
821.167	28440
821.307	28561
821.447	28561
821.588	28200
821.728	28371
821.868	28067
822.008	27865
822.149	27941
822.289	27785
822.429	27603
822.569	27576
822.709	27462
822.849	27458
822.99	27370
823.13	27332
823.27	27317
823.41	27222
823.55	27104
823.69	27199
823.83	27241
823.97	27226
824.11	26975
824.25	26975
824.389	26921
824.529	27180
824.669	27081
824.809	27131
824.949	27138
825.089	26914
825.228	27085
825.368	26849
825.508	26861
825.648	26929
825.787	26918
825.927	26921
826.067	26872
826.206	26952
826.346	27017
826.485	26990
826.625	26880
826.765	27005
826.904	27077
827.044	26667
827.183	26682
827.323	26613
827.462	26769
827.601	26609
827.741	26720
827.88	26568
828.02	26488
828.159	26625
828.298	26598
828.437	26701
828.577	26564
828.716	26625
828.855	26632
828.994	26442
829.134	26317
829.273	26317
829.412	26347
829.551	26157
829.69	26157
829.829	26347
829.968	26404
830.107	26442
830.246	26214
830.385	26313
830.524	26100
830.663	26218
830.802	25974
830.941	25902
831.08	26119
831.219	25974
831.357	25860
831.496	26199
831.635	25978
831.774	25811
831.913	25849
832.051	25727
832.19	25620
832.329	25696
832.467	25616
832.606	25674
832.744	25628
832.883	25597
833.022	25616
833.16	25597
833.299	25590
833.437	25670
833.576	25765
833.714	25746
833.852	25803
833.991	25731
834.129	25738
834.267	25776
834.406	25712
834.544	25658
834.682	25795
834.821	25651
834.959	25875
835.097	25567
835.235	25651
835.373	25571
835.511	25635
835.65	25518
835.788	25407
835.926	25419
836.064	25263
836.202	25392
836.34	25521
836.478	25487
836.615	25407
836.753	25491
836.891	25556
837.029	25419
837.167	25453
837.305	25392
837.443	25297
837.58	25236
837.718	25259
837.856	25430
837.993	25156
838.131	25263
838.269	25232
838.406	25160
838.544	25175
838.681	24947
838.819	25069
838.956	24772
839.094	24726
839.231	24844
839.369	24962
839.506	25171
839.643	25080
839.781	24871
839.918	24806
840.055	24787
840.193	24639
840.33	24753
840.467	24810
840.604	24692
840.742	24890
840.879	24593
841.016	24639
841.153	24471
841.29	24764
841.427	24597
841.564	24814
841.701	24791
841.838	24570
841.975	24467
842.112	24604
842.249	24395
842.385	24475
842.522	24513
842.659	24547
842.796	24479
842.933	24410
843.069	24460
843.206	24445
843.343	24563
843.479	24502
843.616	24551
843.752	24235
843.889	24277
844.025	24391
844.162	24209
844.298	24171
844.435	24117
844.571	24197
844.708	24273
844.844	24289
844.98	24323
845.117	24224
845.253	24133
845.389	23992
845.525	24125
845.661	24015
845.798	23840
845.934	24011
846.07	23931
846.206	23980
846.342	24129
846.478	24011
846.614	23733
846.75	23608
846.886	23729
847.022	23729
847.158	23665
847.294	23718
847.429	23589
847.565	23695
847.701	23923
847.837	23376
847.972	23345
848.108	23471
848.244	23474
848.379	23223
848.515	23311
848.65	23372
848.786	23216
848.921	23258
849.057	23406
849.192	23345
849.328	23140
849.463	23292
849.598	23178
849.734	23048
849.869	23246
850.004	23090
850.14	23090
850.275	22976
850.41	22915
850.545	22942
850.68	22873
850.815	22965
850.95	22934
851.085	23178
851.22	23162
851.355	23121
851.49	23090
851.625	23086
851.76	22927
851.895	22915
852.03	23025
852.165	23044
852.299	23041
852.434	22953
852.569	22984
852.703	23037
852.838	23018
852.973	23159
853.107	23102
853.242	22816
853.376	22854
853.511	22790
853.645	22744
853.78	22919
853.914	22854
854.048	22877
854.183	22774
854.317	22854
854.451	23094
854.585	22790
854.72	22816
854.854	22946
854.988	22713
855.122	22797
855.256	22805
855.39	22843
855.524	22847
855.658	22927
855.792	22984
855.926	22854
856.06	22771
856.194	22953
856.327	22885
856.461	22843
856.595	22904
856.729	22721
856.862	23025
856.996	22946
857.13	22873
857.263	23014
857.397	22965
857.53	22675
857.664	22885
857.797	22839
857.931	22984
858.064	22904
858.197	22946
858.331	22869
858.464	22721
858.597	22687
858.731	22771
858.864	22771
858.997	22713
859.13	22843
859.263	22896
859.396	23025
859.529	22915
859.662	22805
859.795	22885
859.928	22934
860.061	22873
860.194	23094
860.327	22889
860.46	22763
860.592	22961
860.725	22953
860.858	22919
860.99	22763
861.123	22873
861.256	22805
861.388	22835
861.521	23395
861.653	22763
861.786	22622
861.918	22736
862.05	22675
862.183	22801
862.315	22805
862.447	22805
862.58	22683
862.712	22569
862.844	22531
862.976	22675
863.108	22588
863.24	22869
863.372	22462
863.504	22535
863.636	22611
863.768	22607
863.9	22607
864.032	22394
864.164	22493
864.296	22577
864.428	22721
864.559	22569
864.691	22580
864.823	22596
864.954	22341
865.086	22538
865.217	22478
865.349	22322
865.48	22462
865.612	22436
865.743	22531
865.875	22447
866.006	22390
866.137	22348
866.269	22329
866.4	22390
866.531	22375
866.662	22386
866.793	22409
866.924	22363
867.055	22466
867.186	22485
867.317	22303
867.448	22314
867.579	22295
867.71	22242
867.841	22295
867.972	22337
868.103	22344
868.233	22318
868.364	22303
868.495	22382
868.625	22580
868.756	22710
868.886	22531
869.017	22561
869.147	22733
869.278	22702
869.408	22687
869.539	22618
869.669	22592
869.799	22675
869.929	22805
870.06	22702
870.19	22949
870.32	22885
870.45	22976
870.58	22976
870.71	23113
870.84	23102
870.97	23086
871.1	22957
871.23	23124
871.36	23132
871.489	23029
871.619	23010
871.749	23113
871.879	23216
872.008	23341
872.138	23155
872.267	23178
872.397	23083
872.526	23151
872.656	22930
872.785	23025
872.915	23261
873.044	23307
873.173	23235
873.303	23227
873.432	23261
873.561	23326
873.69	23261
873.819	23227
873.948	23334
874.077	23220
874.206	23151
874.335	23159
874.464	23292
874.593	23531
874.722	23322
874.851	23353
874.979	23596
875.108	23516
875.237	23265
875.365	23246
875.494	23421
875.623	23528
875.751	23402
875.88	23379
876.008	23585
876.136	23676
876.265	23897
876.393	23840
876.521	23916
876.65	23855
876.778	23836
876.906	23642
877.034	23680
877.162	23668
877.29	23619
877.418	23733
877.546	23668
877.674	23695
877.802	23866
877.93	23737
878.058	23733
878.185	23653
878.313	23707
878.441	23699
878.568	23653
878.696	23653
878.824	23817
878.951	23802
879.079	23996
879.206	24102
879.333	23946
879.461	23710
879.588	23737
879.715	23885
879.842	24064
879.97	23870
880.097	23646
880.224	23455
880.351	23653
880.478	23516
880.605	23531
880.732	23505
880.859	23863
880.986	23566
881.112	23615
881.239	23543
881.366	23231
881.493	23193
881.619	23231
881.746	23105
881.872	23140
881.999	23121
882.125	23124
882.252	23094
882.378	23136
882.505	23208
882.631	22957
882.757	22923
882.883	22797
883.01	22995
883.136	22698
883.262	22801
883.388	22698
883.514	22759
883.64	22763
883.766	22725
883.892	22459
884.018	22573
884.143	22694
884.269	22771
884.395	22607
884.52	22325
884.646	22440
884.772	22398
884.897	22329
885.023	22493
885.148	22402
885.274	22565
885.399	22375
885.524	22367
885.65	22440
885.775	22478
885.9	22440
886.025	22554
886.15	22432
886.275	22356
886.4	22211
886.525	22459
886.65	22360
886.775	22333
886.9	22573
887.025	22584
887.149	22382
887.274	22192
887.399	22173
887.523	22082
887.648	22204
887.773	22215
887.897	22265
888.021	22219
888.146	22230
888.27	22253
888.395	22249
888.519	22162
888.643	22268
888.767	22067
888.891	22051
889.015	21987
889.139	22017
889.263	21911
889.387	22078
889.511	22154
889.635	21972
889.759	21915
889.883	21972
890.006	22021
890.13	22051
890.254	21838
890.377	22006
890.501	21682
890.624	21838
890.748	21743
890.871	21682
890.995	21485
891.118	21492
891.241	21538
891.364	21511
891.488	21637
891.611	21447
891.734	21507
891.857	21572
891.98	21420
892.103	21610
892.226	21549
892.349	21519
892.471	21389
892.594	21397
892.717	21431
892.839	21492
892.962	21344
893.085	21519
893.207	21367
893.33	21416
893.452	21431
893.575	21408
893.697	21207
893.819	21534
893.941	21641
894.064	21485
894.186	21298
894.308	21431
894.43	21462
894.552	21492
894.674	21424
894.796	21192
894.918	21397
895.04	21325
895.161	21374
895.283	21386
895.405	21317
895.526	21397
895.648	21302
895.769	21298
895.891	21378
896.012	21355
896.134	21435
896.255	21226
896.376	21291
896.498	21412
896.619	21408
896.74	21389
896.861	21397
896.982	21675
897.103	21819
897.224	21606
897.345	21633
897.466	21526
897.587	21397
897.708	21603
897.828	21694
897.949	21462
898.07	21477
898.19	21428
898.311	21511
898.431	21534
898.552	21496
898.672	21557
898.792	21603
898.913	21576
899.033	21492
899.153	21382
899.273	21329
899.393	21329
899.513	21218
899.633	21351
899.753	21291
899.873	21211
899.993	21264
900.113	21184
900.232	21123
900.352	21226
900.472	21077
900.591	21039
900.711	20986
900.83	20933
900.95	21127
901.069	21066
901.189	20838
901.308	20590
901.427	20526
901.546	20689
901.665	20606
901.784	20617
901.904	20404
902.023	20488
902.141	20164
902.26	20176
902.379	20122
902.498	20115
902.617	20092
902.735	20058
902.854	20058
902.973	19974
903.091	19765
903.21	19795
903.328	19620
903.446	19712
903.565	19537
903.683	19544
903.801	19441
903.919	19537
904.038	19559
904.156	19373
904.274	19320
904.392	19327
904.51	19244
904.627	19282
904.745	19225
904.863	19403
904.981	19198
905.098	19126
905.216	18928
905.334	19027
905.451	18943
905.569	18856
905.686	19004
905.803	19000
905.921	18821
906.038	18924
906.155	18753
906.272	18760
906.389	18734
906.506	18566
906.623	18494
906.74	18498
906.857	18346
906.974	18338
907.091	18604
907.208	18578
907.324	18521
907.441	18429
907.557	18254
907.674	18213
907.79	18155
907.907	18155
908.023	18270
908.139	18209
908.256	18140
908.372	18098
908.488	18114
908.604	18076
908.72	17950
908.836	17927
908.952	17958
909.068	17889
909.184	17999
909.3	18053
909.415	17973
909.531	17908
909.647	17619
909.762	17672
909.878	17570
909.993	17619
910.108	17577
910.224	17554
910.339	17619
910.454	17570
910.57	17395
910.685	17318
910.8	17493
910.915	17516
911.03	17398
911.145	17326
911.259	17265
911.374	17227
911.489	17105
911.604	17079
911.718	17006
911.833	16835
911.947	16869
912.062	16679
912.176	16911
912.291	16889
912.405	16961
912.519	17170
912.633	17041
912.748	16999
912.862	16835
912.976	16744
913.09	16577
913.204	16793
913.318	16721
913.431	16797
913.545	16729
913.659	16877
913.772	16778
913.886	16584
914	16519
914.113	16580
914.226	16569
914.34	16694
914.453	16565
914.566	16569
914.68	16333
914.793	16348
914.906	16204
915.019	16097
915.132	16074
915.245	16154
915.358	16074
915.47	16185
915.583	16032
915.696	16150
915.809	16230
915.921	16234
916.034	15972
916.146	16002
916.259	16044
916.371	16067
916.483	16059
916.595	15907
916.708	15949
916.82	15903
916.932	15846
917.044	15930
917.156	15778
917.268	15743
917.38	15682
917.491	15728
917.603	15717
917.715	15804
917.826	15800
917.938	15663
918.049	15477
918.161	15644
918.272	15816
918.384	15808
918.495	15732
918.606	15389
918.717	15469
918.828	15469
918.939	15538
919.05	15332
919.161	15481
919.272	15283
919.383	15252
919.494	15545
919.604	15633
919.715	15515
919.826	15317
919.936	15294
920.047	15481
920.157	15462
920.267	15618
920.378	15435
920.488	15340
920.598	15507
920.708	15808
920.818	15469
920.928	15584
921.038	15656
921.148	15736
921.258	15332
921.368	15249
921.477	15138
921.587	15127
921.697	15032
921.806	15123
921.916	15028
922.025	14933
922.134	14750
922.244	14655
922.353	14750
922.462	14594
922.571	14526
922.68	14298
922.789	14396
922.898	14396
923.007	14298
923.116	14465
923.224	14408
923.333	14396
923.442	14256
923.55	14206
923.659	14256
923.767	14256
923.876	14119
923.984	14218
924.092	14115
924.201	14123
924.309	14103
924.417	14043
924.525	14020
924.633	14058
924.741	14800
924.849	13818
924.956	13898
925.064	13875
925.172	13753
925.279	13712
925.387	13700
925.494	13822
925.602	13860
925.709	13723
925.816	13620
925.924	13719
926.031	13696
926.138	13753
926.245	13708
926.352	13552
926.459	13620
926.566	13807
926.673	13632
926.779	13529
926.886	13449
926.993	13301
927.099	13343
927.206	13259
927.312	13282
927.419	13289
927.525	13350
927.631	13308
927.737	13274
927.843	13046
927.95	13034
928.056	13088
928.162	13107
928.267	13065
928.373	13738
928.479	13137
928.585	12939
928.69	13023
928.796	13095
928.901	12913
929.007	12779
929.112	12954
929.218	12882
929.323	12833
929.428	12791
929.533	12943
929.638	12711
929.743	12688
929.848	12749
929.953	12738
930.058	12639
930.163	12429
930.267	12536
930.372	12555
930.477	12475
930.581	12502
930.685	12528
930.79	12361
930.894	12384
930.998	12372
931.103	12433
931.207	12213
931.311	12049
931.415	11912
931.519	11733
931.623	11653
