Data from test_V78500241_1081.txt Node
Date: Fri Mar 25 15:49:17 CST 2022
User: usil
Spectrometer: V785-0024
Trigger mode: 0
Integration Time (sec): 4.000000E-1
Scans to average: 1
Nonlinearity correction enabled: false
Boxcar width: 0
Storing dark spectrum: false
XAxis mode: Wavelengths
Number of Pixels in Spectrum: 1024
>>>>>Begin Spectral Data<<<<<
801.071	28268
801.214	28287
801.356	28055
801.499	28017
801.641	27717
801.783	27869
801.926	27911
802.068	27850
802.211	27705
802.353	27675
802.496	27576
802.638	27504
802.78	27530
802.923	27477
803.065	27359
803.208	27515
803.35	27462
803.492	27583
803.635	27694
803.777	27580
803.919	27770
804.061	28219
804.204	27728
804.346	27633
804.488	27614
804.63	27629
804.773	27568
804.915	27534
805.057	27831
805.199	27656
805.341	27907
805.483	27888
805.626	27953
805.768	27816
805.91	27907
806.052	27797
806.194	27770
806.336	28158
806.478	27869
806.62	27869
806.762	28048
806.904	28124
807.046	28413
807.188	28299
807.33	28078
807.472	28337
807.614	28166
807.756	28379
807.898	28215
808.04	28166
808.182	28082
808.324	28325
808.465	28169
808.607	28478
808.749	28603
808.891	28645
809.033	28687
809.174	28573
809.316	28535
809.458	28538
809.6	28535
809.741	28554
809.883	28668
810.025	28809
810.166	28873
810.308	28801
810.45	28824
810.591	28736
810.733	28615
810.875	28470
811.016	28470
811.158	28428
811.299	28626
811.441	28664
811.582	28744
811.724	28634
811.865	28588
812.007	28459
812.148	28466
812.29	28599
812.431	28755
812.573	28831
812.714	28938
812.855	28961
812.997	29124
813.138	29364
813.279	28927
813.421	29064
813.562	29067
813.703	28843
813.845	28656
813.986	28618
814.127	28462
814.268	28257
814.41	28329
814.551	28207
814.692	28303
814.833	28196
814.974	28371
815.115	28169
815.256	28109
815.397	28093
815.539	28265
815.68	28082
815.821	27873
815.962	28124
816.103	28059
816.244	27956
816.385	27713
816.526	27941
816.666	27667
816.807	27553
816.948	27629
817.089	27728
817.23	27515
817.371	27587
817.512	27454
817.653	27542
817.793	27629
817.934	27500
818.075	27591
818.216	27595
818.356	27481
818.497	27538
818.638	27401
818.778	27378
818.919	27302
819.06	27450
819.2	27447
819.341	27618
819.481	27488
819.622	27720
819.762	27930
819.903	27675
820.043	27698
820.184	27686
820.324	27739
820.465	27679
820.605	27804
820.746	27747
820.886	27500
821.026	27595
821.167	27667
821.307	27804
821.447	27580
821.588	27507
821.728	27454
821.868	27100
822.008	27089
822.149	27104
822.289	27070
822.429	26697
822.569	26731
822.709	26625
822.849	26518
822.99	26511
823.13	26400
823.27	26598
823.41	26381
823.55	26324
823.69	26469
823.83	26351
823.97	26385
824.11	26096
824.25	26145
824.389	26172
824.529	26290
824.669	26336
824.809	26240
824.949	26191
825.089	26347
825.228	26275
825.368	26111
825.508	26126
825.648	26027
825.787	26012
825.927	26164
826.067	26001
826.206	26122
826.346	26092
826.485	26145
826.625	26107
826.765	26062
826.904	26130
827.044	25940
827.183	25830
827.323	25658
827.462	25822
827.601	25803
827.741	25807
827.88	25746
828.02	25533
828.159	25814
828.298	25772
828.437	25849
828.577	25620
828.716	25833
828.855	25613
828.994	25460
829.134	25502
829.273	25552
829.412	25434
829.551	25403
829.69	25483
829.829	25362
829.968	25616
830.107	25632
830.246	25415
830.385	25476
830.524	25373
830.663	25327
830.802	25206
830.941	25038
831.08	24992
831.219	25247
831.357	25266
831.496	25274
831.635	25099
831.774	24951
831.913	25034
832.051	24852
832.19	24829
832.329	24943
832.467	24757
832.606	24719
832.744	24654
832.883	24882
833.022	24658
833.16	24684
833.299	24802
833.437	24871
833.576	24932
833.714	24802
833.852	24916
833.991	24894
834.129	24840
834.267	24928
834.406	24833
834.544	24760
834.682	24863
834.821	24753
834.959	24935
835.097	24833
835.235	24783
835.373	24802
835.511	24779
835.65	24642
835.788	24791
835.926	24544
836.064	24380
836.202	24369
836.34	24540
836.478	24612
836.615	24623
836.753	24608
836.891	24738
837.029	24608
837.167	24464
837.305	24585
837.443	24475
837.58	24433
837.718	24582
837.856	24486
837.993	24426
838.131	24338
838.269	24376
838.406	24403
838.544	24365
838.681	24060
838.819	24125
838.956	23859
839.094	24003
839.231	23973
839.369	24171
839.506	24342
839.643	24220
839.781	23893
839.918	23824
840.055	24045
840.193	23950
840.33	23790
840.467	23790
840.604	23942
840.742	24194
840.879	23783
841.016	23752
841.153	23741
841.29	23821
841.427	23623
841.564	23954
841.701	23882
841.838	23771
841.975	23748
842.112	23821
842.249	23668
842.385	23497
842.522	23783
842.659	23619
842.796	23653
842.933	23562
843.069	23524
843.206	23448
843.343	23741
843.479	23619
843.616	23608
843.752	23296
843.889	23486
844.025	23482
844.162	23398
844.298	23383
844.435	23368
844.571	23368
844.708	23478
844.844	23573
844.98	23543
845.117	23372
845.253	23395
845.389	23189
845.525	23258
845.661	23166
845.798	23113
845.934	23109
846.07	23041
846.206	23136
846.342	23132
846.478	23086
846.614	22904
846.75	22774
846.886	22721
847.022	22957
847.158	22824
847.294	22725
847.429	22831
847.565	22778
847.701	22984
847.837	22516
847.972	22508
848.108	22687
848.244	22637
848.379	22382
848.515	22413
848.65	22447
848.786	22394
848.921	22531
849.057	22573
849.192	22596
849.328	22580
849.463	22424
849.598	22413
849.734	22363
849.869	22268
850.004	22207
850.14	22105
850.275	22181
850.41	22116
850.545	22158
850.68	22097
850.815	22181
850.95	22143
851.085	22402
851.22	22352
851.355	22238
851.49	22257
851.625	22070
851.76	22196
851.895	22101
852.03	22158
852.165	22188
852.299	22257
852.434	22268
852.569	22200
852.703	22116
852.838	22375
852.973	22246
853.107	22329
853.242	22276
853.376	22139
853.511	22002
853.645	21964
853.78	22192
853.914	21972
854.048	22082
854.183	22169
854.317	22013
854.451	22200
854.585	22074
854.72	21991
854.854	22131
854.988	21956
855.122	22044
855.256	21930
855.39	21930
855.524	22055
855.658	22055
855.792	21934
855.926	21979
856.06	22086
856.194	22150
856.327	22013
856.461	22025
856.595	21899
856.729	22002
856.862	22230
856.996	22093
857.13	22025
857.263	22135
857.397	22074
857.53	22067
857.664	22109
857.797	22093
857.931	22135
858.064	22017
858.197	22147
858.331	21972
858.464	21945
858.597	21831
858.731	22002
858.864	22055
858.997	21983
859.13	22029
859.263	21926
859.396	22070
859.529	21979
859.662	22078
859.795	21991
859.928	21937
860.061	22143
860.194	22303
860.327	22086
860.46	22044
860.592	22097
860.725	22196
860.858	22029
860.99	22010
861.123	21934
861.256	22059
861.388	22032
861.521	22713
861.653	21831
861.786	21743
861.918	21762
862.05	21918
862.183	21857
862.315	22040
862.447	21941
862.58	21968
862.712	21728
862.844	21732
862.976	21888
863.108	21816
863.24	22257
863.372	21614
863.504	21713
863.636	21793
863.768	21846
863.9	21660
864.032	21781
864.164	21694
864.296	21637
864.428	21770
864.559	21713
864.691	21907
864.823	21652
864.954	21751
865.086	21682
865.217	21679
865.349	21526
865.48	21682
865.612	21591
865.743	21648
865.875	21690
866.006	21580
866.137	21610
866.269	21606
866.4	21526
866.531	21511
866.662	21523
866.793	21538
866.924	21614
867.055	21614
867.186	21462
867.317	21614
867.448	21412
867.579	21572
867.71	21458
867.841	21564
867.972	21488
868.103	21500
868.233	21523
868.364	21667
868.495	21485
868.625	21876
868.756	21880
868.886	21603
869.017	21690
869.147	21861
869.278	21873
869.408	21785
869.539	21816
869.669	21857
869.799	21842
869.929	21964
870.06	21892
870.19	21972
870.32	22021
870.45	22139
870.58	22280
870.71	22226
870.84	22341
870.97	22150
871.1	22234
871.23	22325
871.36	22432
871.489	22246
871.619	22329
871.749	22394
871.879	22413
872.008	22451
872.138	22348
872.267	22382
872.397	22284
872.526	22211
872.656	22185
872.785	22173
872.915	22341
873.044	22455
873.173	22443
873.303	22535
873.432	22557
873.561	22569
873.69	22421
873.819	22436
873.948	22424
874.077	22497
874.206	22348
874.335	22421
874.464	22588
874.593	22683
874.722	22577
874.851	22664
874.979	22668
875.108	22641
875.237	22550
875.365	22538
875.494	22668
875.623	22656
875.751	22508
875.88	22645
876.008	22752
876.136	22736
876.265	23113
876.393	23220
876.521	23044
876.65	23060
876.778	23067
876.906	22885
877.034	22946
877.162	22949
877.29	22873
877.418	22866
877.546	22949
877.674	22919
877.802	22953
877.93	22919
878.058	22938
878.185	22869
878.313	22801
878.441	22972
878.568	22816
878.696	22873
878.824	22953
878.951	23083
879.079	23200
879.206	23147
879.333	23052
879.461	22987
879.588	23079
879.715	23003
879.842	23231
879.97	22908
880.097	22801
880.224	22869
880.351	22866
880.478	22835
880.605	22752
880.732	22694
880.859	22915
880.986	22736
881.112	22698
881.239	22694
881.366	22538
881.493	22447
881.619	22352
881.746	22303
881.872	22341
881.999	22318
882.125	22181
882.252	22284
882.378	22405
882.505	22417
882.631	22242
882.757	22070
882.883	22093
883.01	22109
883.136	21873
883.262	21876
883.388	21808
883.514	22021
883.64	22215
883.766	21857
883.892	21739
884.018	21915
884.143	22032
884.269	22109
884.395	21797
884.52	21701
884.646	21690
884.772	21610
884.897	21473
885.023	21610
885.148	21831
885.274	21854
885.399	21637
885.524	21660
885.65	21732
885.775	21606
885.9	21698
886.025	21686
886.15	21709
886.275	21652
886.4	21618
886.525	21568
886.65	21572
886.775	21526
886.9	21717
887.025	21819
887.149	21667
887.274	21492
887.399	21344
887.523	21477
887.648	21325
887.773	21279
887.897	21504
888.021	21481
888.146	21393
888.27	21538
888.395	21412
888.519	21405
888.643	21447
888.767	21424
888.891	21294
889.015	21173
889.139	21176
889.263	21408
889.387	21401
889.511	21393
889.635	21363
889.759	21146
889.883	21211
890.006	21157
890.13	21195
890.254	21195
890.377	21093
890.501	21001
890.624	20944
890.748	21089
890.871	20815
890.995	20587
891.118	20754
891.241	20769
891.364	20800
891.488	20861
891.611	20804
891.734	20819
891.857	20845
891.98	20758
892.103	20743
892.226	20769
892.349	20754
892.471	20644
892.594	20689
892.717	20651
892.839	20651
892.962	20636
893.085	20830
893.207	20640
893.33	20644
893.452	20617
893.575	20716
893.697	20651
893.819	20762
893.941	20804
894.064	20864
894.186	20590
894.308	20648
894.43	20868
894.552	20842
894.674	20667
894.796	20533
894.918	20625
895.04	20663
895.161	20663
895.283	20705
895.405	20621
895.526	20598
895.648	20667
895.769	20659
895.891	20754
896.012	20625
896.134	20648
896.255	20705
896.376	20659
896.498	20708
896.619	20632
896.74	20686
896.861	20625
896.982	20960
897.103	20994
897.224	20994
897.345	20849
897.466	20834
897.587	20876
897.708	21009
897.828	20769
897.949	20838
898.07	20708
898.19	20754
898.311	20887
898.431	20754
898.552	20777
898.672	20956
898.792	20986
898.913	20872
899.033	20792
899.153	20629
899.273	20541
899.393	20632
899.513	20621
899.633	20640
899.753	20689
899.873	20590
899.993	20617
900.113	20450
900.232	20568
900.352	20332
900.472	20480
900.591	20438
900.711	20374
900.83	20358
900.95	20503
901.069	20537
901.189	20366
901.308	20077
901.427	19902
901.546	19928
901.665	19986
901.784	19955
901.904	19894
902.023	19677
902.141	19533
902.26	19453
902.379	19575
902.498	19510
902.617	19346
902.735	19487
902.854	19510
902.973	19358
903.091	19072
903.21	19038
903.328	19015
903.446	18993
903.565	18989
903.683	18973
903.801	18783
903.919	18837
904.038	18970
904.156	18840
904.274	18779
904.392	18604
904.51	18719
904.627	18631
904.745	18738
904.863	18730
904.981	18418
905.098	18300
905.216	18357
905.334	18422
905.451	18380
905.569	18414
905.686	18323
905.803	18289
905.921	18159
906.038	18205
906.155	18152
906.272	18072
906.389	18026
906.506	17916
906.623	17969
906.74	17859
906.857	17771
906.974	17703
907.091	17843
907.208	17988
907.324	17927
907.441	17718
907.557	17611
907.674	17657
907.79	17615
907.907	17535
908.023	17562
908.139	17600
908.256	17482
908.372	17478
908.488	17535
908.604	17395
908.72	17277
908.836	17398
908.952	17261
909.068	17364
909.184	17436
909.3	17353
909.415	17318
909.531	17334
909.647	17121
909.762	16976
909.878	17064
909.993	17006
910.108	16866
910.224	16946
910.339	16987
910.454	16999
910.57	16790
910.685	16797
910.8	16984
910.915	16980
911.03	16748
911.145	16580
911.259	16649
911.374	16645
911.489	16436
911.604	16493
911.718	16348
911.833	16303
911.947	16181
912.062	16226
912.176	16341
912.291	16348
912.405	16371
912.519	16596
912.633	16519
912.748	16325
912.862	16379
912.976	16230
913.09	16097
913.204	16169
913.318	16196
913.431	16147
913.545	16226
913.659	16287
913.772	16040
913.886	16059
914	15983
914.113	16059
914.226	16116
914.34	16048
914.453	15884
914.566	15934
914.68	15827
914.793	15888
914.906	15618
915.019	15584
915.132	15447
915.245	15473
915.358	15587
915.47	15515
915.583	15603
915.696	15553
915.809	15652
915.921	15701
916.034	15405
916.146	15386
916.259	15462
916.371	15466
916.483	15485
916.595	15439
916.708	15389
916.82	15359
916.932	15283
917.044	15325
917.156	15344
917.268	15199
917.38	15222
917.491	15093
917.603	15203
917.715	15188
917.826	15268
917.938	15154
918.049	15032
918.161	15077
918.272	15275
918.384	15260
918.495	15070
918.606	15036
918.717	14857
918.828	14941
918.939	14868
919.05	14895
919.161	14918
919.272	14682
919.383	14765
919.494	14914
919.604	15161
919.715	14952
919.826	14800
919.936	14895
920.047	14906
920.157	14826
920.267	15100
920.378	14921
920.488	14861
920.598	14982
920.708	15127
920.818	14990
920.928	14982
921.038	15214
921.148	15085
921.258	14777
921.368	14807
921.477	14655
921.587	14648
921.697	14457
921.806	14636
921.916	14473
922.025	14294
922.134	14199
922.244	14202
922.353	14290
922.462	14187
922.571	14073
922.68	13883
922.789	13856
922.898	13959
923.007	13837
923.116	13841
923.224	13814
923.333	13894
923.442	13761
923.55	13704
923.659	13708
923.767	13811
923.876	13651
923.984	13693
924.092	13616
924.201	13662
924.309	13571
924.417	13647
924.525	13571
924.633	13578
924.741	14233
924.849	13327
924.956	13567
925.064	13365
925.172	13316
925.279	13339
925.387	13297
925.494	13324
925.602	13426
925.709	13339
925.816	13168
925.924	13164
926.031	13270
926.138	13213
926.245	13255
926.352	13160
926.459	13251
926.566	13244
926.673	13122
926.779	13057
926.886	12993
926.993	12825
927.099	12840
927.206	12760
927.312	12703
927.419	12867
927.525	12779
927.631	12897
927.737	12814
927.843	12662
927.95	12494
928.056	12612
928.162	12703
928.267	12677
928.373	13187
928.479	12726
928.585	12490
928.69	12566
928.796	12677
928.901	12532
929.007	12300
929.112	12494
929.218	12441
929.323	12445
929.428	12330
929.533	12467
929.638	12201
929.743	12353
929.848	12365
929.953	12319
930.058	12243
930.163	11965
930.267	12007
930.372	12102
930.477	11996
930.581	12262
930.685	12041
930.79	11923
930.894	12064
930.998	11847
931.103	12038
931.207	11783
931.311	11623
931.415	11539
931.519	11372
931.623	11311
