Data from test_V78500241_505.txt Node
Date: Fri Mar 25 15:45:17 CST 2022
User: usil
Spectrometer: V785-0024
Trigger mode: 0
Integration Time (sec): 4.000000E-1
Scans to average: 1
Nonlinearity correction enabled: false
Boxcar width: 0
Storing dark spectrum: false
XAxis mode: Wavelengths
Number of Pixels in Spectrum: 1024
>>>>>Begin Spectral Data<<<<<
801.071	27443
801.214	27378
801.356	27138
801.499	27005
801.641	26792
801.783	26921
801.926	27077
802.068	26838
802.211	26834
802.353	26651
802.496	26606
802.638	26560
802.78	26545
802.923	26549
803.065	26503
803.208	26400
803.35	26503
803.492	26693
803.635	26720
803.777	26583
803.919	26773
804.061	27093
804.204	26739
804.346	26727
804.488	26830
804.63	26617
804.773	26731
804.915	26571
805.057	26838
805.199	26575
805.341	26716
805.483	26746
805.626	26800
805.768	26731
805.91	26830
806.052	26712
806.194	26788
806.336	27047
806.478	26731
806.62	26880
806.762	26807
806.904	26994
807.046	27329
807.188	27332
807.33	27230
807.472	27302
807.614	27116
807.756	27226
807.898	27020
808.04	27176
808.182	27096
808.324	27024
808.465	27005
808.607	27367
808.749	27412
808.891	27504
809.033	27587
809.174	27500
809.316	27397
809.458	27412
809.6	27397
809.741	27519
809.883	27675
810.025	27713
810.166	27724
810.308	27766
810.45	27648
810.591	27800
810.733	27511
810.875	27348
811.016	27332
811.158	27393
811.299	27625
811.441	27572
811.582	27622
811.724	27545
811.865	27344
812.007	27317
812.148	27336
812.29	27587
812.431	27606
812.573	27812
812.714	27918
812.855	27895
812.997	28158
813.138	28143
813.279	28230
813.421	28063
813.562	27937
813.703	27778
813.845	27660
813.986	27439
814.127	27249
814.268	27108
814.41	27123
814.551	27028
814.692	27055
814.833	27017
814.974	27051
815.115	27093
815.256	27062
815.397	26887
815.539	26914
815.68	26765
815.821	26868
815.962	26944
816.103	27047
816.244	26693
816.385	26625
816.526	26705
816.666	26522
816.807	26366
816.948	26453
817.089	26396
817.23	26484
817.371	26275
817.512	26301
817.653	26336
817.793	26355
817.934	26244
818.075	26278
818.216	26290
818.356	26324
818.497	26317
818.638	26096
818.778	26084
818.919	26107
819.06	26122
819.2	26202
819.341	26415
819.481	26225
819.622	26511
819.762	26632
819.903	26511
820.043	26530
820.184	26469
820.324	26457
820.465	26457
820.605	26404
820.746	26343
820.886	26370
821.026	26336
821.167	26320
821.307	26511
821.447	26374
821.588	26294
821.728	26214
821.868	25909
822.008	25864
822.149	25791
822.289	25761
822.429	25605
822.569	25510
822.709	25422
822.849	25449
822.99	25343
823.13	25327
823.27	25255
823.41	25084
823.55	24916
823.69	25259
823.83	25297
823.97	25091
824.11	24981
824.25	24867
824.389	25015
824.529	25072
824.669	24894
824.809	25038
824.949	25008
825.089	25050
825.228	25012
825.368	24848
825.508	24734
825.648	24943
825.787	24909
825.927	24802
826.067	24871
826.206	24821
826.346	24913
826.485	24951
826.625	24772
826.765	25046
826.904	24730
827.044	24555
827.183	24547
827.323	24498
827.462	24490
827.601	24559
827.741	24365
827.88	24509
828.02	24414
828.159	24608
828.298	24551
828.437	24635
828.577	24353
828.716	24551
828.855	24357
828.994	24254
829.134	24308
829.273	24220
829.412	24251
829.551	24106
829.69	24353
829.829	24159
829.968	24369
830.107	24304
830.246	24205
830.385	24182
830.524	24163
830.663	24026
830.802	23855
830.941	23642
831.08	23771
831.219	23954
831.357	23870
831.496	24030
831.635	23809
831.774	23794
831.913	23805
832.051	23657
832.19	23672
832.329	23615
832.467	23592
832.606	23402
832.744	23429
832.883	23486
833.022	23467
833.16	23509
833.299	23566
833.437	23490
833.576	23554
833.714	23501
833.852	23619
833.991	23585
834.129	23676
834.267	23665
834.406	23551
834.544	23562
834.682	23554
834.821	23604
834.959	23676
835.097	23627
835.235	23539
835.373	23535
835.511	23455
835.65	23425
835.788	23387
835.926	23250
836.064	23204
836.202	23277
836.34	23387
836.478	23353
836.615	23421
836.753	23349
836.891	23452
837.029	23463
837.167	23349
837.305	23288
837.443	23296
837.58	23200
837.718	23280
837.856	23193
837.993	23246
838.131	23258
838.269	23121
838.406	23090
838.544	23185
838.681	22812
838.819	22858
838.956	22664
839.094	22725
839.231	22774
839.369	22824
839.506	23064
839.643	22957
839.781	22637
839.918	22615
840.055	22843
840.193	22634
840.33	22649
840.467	22656
840.604	22774
840.742	22946
840.879	22504
841.016	22519
841.153	22550
841.29	22801
841.427	22668
841.564	22710
841.701	22512
841.838	22508
841.975	22459
842.112	22542
842.249	22607
842.385	22459
842.522	22664
842.659	22436
842.796	22348
842.933	22341
843.069	22322
843.206	22348
843.343	22398
843.479	22424
843.616	22367
843.752	22147
843.889	22261
844.025	22276
844.162	22158
844.298	22196
844.435	22207
844.571	21998
844.708	22131
844.844	22234
844.98	22325
845.117	22158
845.253	22135
845.389	21983
845.525	22059
845.661	22040
845.798	21797
845.934	21926
846.07	21854
846.206	22044
846.342	21994
846.478	21759
846.614	21705
846.75	21599
846.886	21542
847.022	21709
847.158	21671
847.294	21572
847.429	21732
847.565	21603
847.701	21846
847.837	21351
847.972	21306
848.108	21515
848.244	21462
848.379	21264
848.515	21188
848.65	21203
848.786	21169
848.921	21226
849.057	21283
849.192	21317
849.328	21222
849.463	21108
849.598	21077
849.734	21146
849.869	21100
850.004	20986
850.14	20998
850.275	21001
850.41	20880
850.545	20956
850.68	20902
850.815	21024
850.95	20971
851.085	21135
851.22	21077
851.355	20937
851.49	20975
851.625	20967
851.76	20994
851.895	20933
852.03	20891
852.165	20982
852.299	20929
852.434	21173
852.569	21017
852.703	20880
852.838	21066
852.973	21127
853.107	21104
853.242	20868
853.376	20883
853.511	20743
853.645	20815
853.78	20918
853.914	20838
854.048	20693
854.183	20716
854.317	20853
854.451	21005
854.585	20845
854.72	20823
854.854	20857
854.988	20720
855.122	20781
855.256	20617
855.39	20731
855.524	20883
855.658	20918
855.792	20785
855.926	20834
856.06	20861
856.194	20872
856.327	20834
856.461	20716
856.595	20640
856.729	20792
856.862	20990
856.996	20788
857.13	20788
857.263	20872
857.397	20883
857.53	20746
857.664	20811
857.797	20895
857.931	20872
858.064	20807
858.197	20921
858.331	20765
858.464	20712
858.597	20587
858.731	20807
858.864	20804
858.997	20777
859.13	20785
859.263	20781
859.396	20872
859.529	20682
859.662	20758
859.795	20834
859.928	20815
860.061	20891
860.194	21009
860.327	20925
860.46	20910
860.592	20842
860.725	20872
860.858	20880
860.99	20883
861.123	20720
861.256	20670
861.388	20781
861.521	21580
861.653	20648
861.786	20583
861.918	20739
862.05	20606
862.183	20750
862.315	20792
862.447	20720
862.58	20750
862.712	20625
862.844	20526
862.976	20476
863.108	20545
863.24	21024
863.372	20358
863.504	20606
863.636	20499
863.768	20381
863.9	20492
864.032	20469
864.164	20530
864.296	20571
864.428	20427
864.559	20514
864.691	20579
864.823	20556
864.954	20423
865.086	20381
865.217	20537
865.349	20320
865.48	20488
865.612	20423
865.743	20564
865.875	20438
866.006	20423
866.137	20457
866.269	20396
866.4	20393
866.531	20278
866.662	20282
866.793	20336
866.924	20415
867.055	20473
867.186	20442
867.317	20336
867.448	20256
867.579	20355
867.71	20336
867.841	20275
867.972	20389
868.103	20343
868.233	20423
868.364	20404
868.495	20351
868.625	20454
868.756	20617
868.886	20396
869.017	20579
869.147	20762
869.278	20686
869.408	20579
869.539	20606
869.669	20686
869.799	20689
869.929	20632
870.06	20682
870.19	21020
870.32	20914
870.45	20941
870.58	21036
870.71	21028
870.84	21131
870.97	20941
871.1	20986
871.23	21157
871.36	21226
871.489	20994
871.619	21066
871.749	21218
871.879	21279
872.008	21302
872.138	21321
872.267	21211
872.397	21096
872.526	21123
872.656	20941
872.785	20986
872.915	21157
873.044	21146
873.173	21180
873.303	21294
873.432	21287
873.561	21294
873.69	21207
873.819	21237
873.948	21245
874.077	21184
874.206	21249
874.335	21226
874.464	21359
874.593	21515
874.722	21473
874.851	21481
874.979	21351
875.108	21443
875.237	21477
875.365	21363
875.494	21462
875.623	21469
875.751	21340
875.88	21439
876.008	21656
876.136	21652
876.265	21762
876.393	21945
876.521	21979
876.65	21751
876.778	21835
876.906	21717
877.034	21774
877.162	21781
877.29	21812
877.418	21728
877.546	21823
877.674	21797
877.802	21846
877.93	21785
878.058	21781
878.185	21694
878.313	21869
878.441	21739
878.568	21694
878.696	21614
878.824	21827
878.951	21991
879.079	21869
879.206	22070
879.333	21926
879.461	21823
879.588	21964
879.715	21983
879.842	22116
879.97	21880
880.097	21614
880.224	21580
880.351	21728
880.478	21720
880.605	21644
880.732	21652
880.859	21808
880.986	21660
881.112	21644
881.239	21435
881.366	21443
881.493	21348
881.619	21203
881.746	21367
881.872	21135
881.999	21173
882.125	21154
882.252	21226
882.378	21241
882.505	21344
882.631	21089
882.757	20982
882.883	21100
883.01	20979
883.136	20834
883.262	20906
883.388	20746
883.514	20998
883.64	20960
883.766	20785
883.892	20693
884.018	20781
884.143	20910
884.269	20967
884.395	20693
884.52	20526
884.646	20609
884.772	20461
884.897	20400
885.023	20492
885.148	20655
885.274	20857
885.399	20655
885.524	20537
885.65	20617
885.775	20727
885.9	20670
886.025	20739
886.15	20651
886.275	20396
886.4	20469
886.525	20556
886.65	20396
886.775	20575
886.9	20651
887.025	20773
887.149	20621
887.274	20434
887.399	20309
887.523	20358
887.648	20355
887.773	20240
887.897	20309
888.021	20469
888.146	20275
888.27	20377
888.395	20495
888.519	20309
888.643	20461
888.767	20404
888.891	20221
889.015	20096
889.139	20267
889.263	20103
889.387	20210
889.511	20336
889.635	20187
889.759	20062
889.883	20157
890.006	20267
890.13	20263
890.254	20107
890.377	20176
890.501	19894
890.624	19822
890.748	19986
890.871	19841
890.995	19613
891.118	19715
891.241	19693
891.364	19685
891.488	19940
891.611	19803
891.734	19731
891.857	19849
891.98	19715
892.103	19780
892.226	19666
892.349	19658
892.471	19537
892.594	19677
892.717	19708
892.839	19613
892.962	19738
893.085	19769
893.207	19624
893.33	19559
893.452	19499
893.575	19723
893.697	19578
893.819	19837
893.941	19795
894.064	19780
894.186	19651
894.308	19540
894.43	19742
894.552	19780
894.674	19677
894.796	19540
894.918	19658
895.04	19601
895.161	19761
895.283	19655
895.405	19651
895.526	19563
895.648	19639
895.769	19651
895.891	19708
896.012	19738
896.134	19708
896.255	19704
896.376	19643
896.498	19681
896.619	19712
896.74	19708
896.861	19643
896.982	20016
897.103	20149
897.224	19963
897.345	19913
897.466	19723
897.587	19868
897.708	20039
897.828	19974
897.949	19818
898.07	19677
898.19	19753
898.311	19993
898.431	19814
898.552	19830
898.672	19997
898.792	19917
898.913	19925
899.033	19833
899.153	19742
899.273	19605
899.393	19609
899.513	19761
899.633	19601
899.753	19704
899.873	19552
899.993	19677
900.113	19563
900.232	19609
900.352	19586
900.472	19529
900.591	19411
900.711	19476
900.83	19434
900.95	19480
901.069	19567
901.189	19358
901.308	19114
901.427	19008
901.546	19031
901.665	19084
901.784	19114
901.904	18924
902.023	18894
902.141	18623
902.26	18475
902.379	18620
902.498	18593
902.617	18703
902.735	18551
902.854	18502
902.973	18407
903.091	18266
903.21	18167
903.328	18186
903.446	18174
903.565	18038
903.683	18098
903.801	17821
903.919	17916
904.038	17999
904.156	17817
904.274	17847
904.392	17752
904.51	17783
904.627	17627
904.745	17828
904.863	17836
904.981	17558
905.098	17459
905.216	17436
905.334	17532
905.451	17516
905.569	17452
905.686	17501
905.803	17486
905.921	17227
906.038	17364
906.155	17200
906.272	17204
906.389	17185
906.506	17041
906.623	17003
906.74	16949
906.857	16778
906.974	16946
907.091	16942
907.208	17170
907.324	17094
907.441	16854
907.557	16759
907.674	16805
907.79	16672
907.907	16664
908.023	16687
908.139	16687
908.256	16752
908.372	16645
908.488	16618
908.604	16462
908.72	16405
908.836	16451
908.952	16432
909.068	16481
909.184	16603
909.3	16470
909.415	16497
909.531	16436
909.647	16211
909.762	16093
909.878	16173
909.993	16188
910.108	16177
910.224	16013
910.339	16101
910.454	16090
910.57	15983
910.685	15831
910.8	16188
910.915	16135
911.03	16032
911.145	15770
911.259	15800
911.374	15789
911.489	15686
911.604	15644
911.718	15553
911.833	15462
911.947	15397
912.062	15412
912.176	15496
912.291	15408
912.405	15473
912.519	15720
912.633	15724
912.748	15557
912.862	15595
912.976	15378
913.09	15138
913.204	15321
913.318	15302
913.431	15374
913.545	15454
913.659	15374
913.772	15230
913.886	15119
914	15112
914.113	15157
914.226	15226
914.34	15127
914.453	14933
914.566	15165
914.68	14986
914.793	14956
914.906	14823
915.019	14750
915.132	14617
915.245	14705
915.358	14762
915.47	14769
915.583	14785
915.696	14743
915.809	14853
915.921	14914
916.034	14575
916.146	14636
916.259	14537
916.371	14731
916.483	14655
916.595	14530
916.708	14648
916.82	14598
916.932	14518
917.044	14537
917.156	14541
917.268	14438
917.38	14465
917.491	14393
917.603	14404
917.715	14507
917.826	14495
917.938	14351
918.049	14286
918.161	14412
918.272	14503
918.384	14442
918.495	14404
918.606	14161
918.717	14096
918.828	14149
918.939	14153
919.05	14046
919.161	14153
919.272	14027
919.383	14005
919.494	14206
919.604	14336
919.715	14240
919.826	14084
919.936	14142
920.047	14221
920.157	14199
920.267	14339
920.378	14180
920.488	14138
920.598	14256
920.708	14511
920.818	14343
920.928	14225
921.038	14423
921.148	14423
921.258	14054
921.368	13997
921.477	13913
921.587	13852
921.697	13655
921.806	13970
921.916	13799
922.025	13582
922.134	13601
922.244	13468
922.353	13643
922.462	13407
922.571	13453
922.68	13247
922.789	13133
922.898	13194
923.007	13091
923.116	13232
923.224	13141
923.333	13270
923.442	13061
923.55	13076
923.659	13091
923.767	13141
923.876	13000
923.984	13004
924.092	12913
924.201	12951
924.309	12962
924.417	12981
924.525	12916
924.633	12814
924.741	13582
924.849	12631
924.956	12852
925.064	12623
925.172	12635
925.279	12532
925.387	12654
925.494	12566
925.602	12734
925.709	12703
925.816	12445
925.924	12540
926.031	12662
926.138	12620
926.245	12734
926.352	12593
926.459	12616
926.566	12589
926.673	12494
926.779	12372
926.886	12429
926.993	12224
927.099	12235
927.206	12209
927.312	12155
927.419	12216
927.525	12201
927.631	12239
927.737	12041
927.843	12011
927.95	11889
928.056	11980
928.162	12064
928.267	12136
928.373	12681
928.479	12133
928.585	11874
928.69	12034
928.796	12030
928.901	11874
929.007	11809
929.112	11954
929.218	11954
929.323	11874
929.428	11649
929.533	11863
929.638	11699
929.743	11688
929.848	11790
929.953	11726
930.058	11600
930.163	11516
930.267	11448
930.372	11668
930.477	11368
930.581	11653
930.685	11547
930.79	11288
930.894	11292
930.998	11273
931.103	11440
931.207	11083
931.311	11086
931.415	10965
931.519	10755
931.623	10740
