Data from test_V78500241_1669.txt Node
Date: Fri Mar 25 15:53:21 CST 2022
User: usil
Spectrometer: V785-0024
Trigger mode: 0
Integration Time (sec): 4.000000E-1
Scans to average: 1
Nonlinearity correction enabled: false
Boxcar width: 0
Storing dark spectrum: false
XAxis mode: Wavelengths
Number of Pixels in Spectrum: 1024
>>>>>Begin Spectral Data<<<<<
801.071	28051
801.214	28116
801.356	27823
801.499	27911
801.641	27686
801.783	27622
801.926	27747
802.068	27694
802.211	27561
802.353	27580
802.496	27382
802.638	27416
802.78	27504
802.923	27233
803.065	27116
803.208	27245
803.35	27272
803.492	27519
803.635	27458
803.777	27397
803.919	27481
804.061	27873
804.204	27568
804.346	27622
804.488	27439
804.63	27477
804.773	27568
804.915	27671
805.057	27778
805.199	27614
805.341	27739
805.483	27762
805.626	27625
805.768	27553
805.91	27591
806.052	27675
806.194	27652
806.336	27960
806.478	27709
806.62	27713
806.762	27949
806.904	27914
807.046	28173
807.188	28169
807.33	28162
807.472	28192
807.614	28086
807.756	27972
807.898	27876
808.04	27838
808.182	28040
808.324	28090
808.465	28010
808.607	28192
808.749	28481
808.891	28432
809.033	28546
809.174	28428
809.316	28360
809.458	28329
809.6	28333
809.741	28519
809.883	28363
810.025	28592
810.166	28649
810.308	28603
810.45	28565
810.591	28481
810.733	28440
810.875	28291
811.016	28325
811.158	28261
811.299	28504
811.441	28546
811.582	28554
811.724	28322
811.865	28284
812.007	28268
812.148	28272
812.29	28443
812.431	28653
812.573	28729
812.714	28759
812.855	28888
812.997	28930
813.138	29162
813.279	28965
813.421	28816
813.562	28835
813.703	28698
813.845	28546
813.986	28299
814.127	28207
814.268	28021
814.41	28059
814.551	28013
814.692	28219
814.833	28036
814.974	28025
815.115	28116
815.256	27865
815.397	27846
815.539	27979
815.68	27808
815.821	27698
815.962	27823
816.103	27774
816.244	27720
816.385	27534
816.526	27564
816.666	27313
816.807	27268
816.948	27530
817.089	27416
817.23	27283
817.371	27256
817.512	27393
817.653	27340
817.793	27279
817.934	27332
818.075	27313
818.216	27157
818.356	27424
818.497	27256
818.638	27112
818.778	27089
818.919	27074
819.06	27222
819.2	27302
819.341	27268
819.481	27370
819.622	27469
819.762	27648
819.903	27675
820.043	27310
820.184	27389
820.324	27302
820.465	27549
820.605	27622
820.746	27344
820.886	27325
821.026	27469
821.167	27370
821.307	27306
821.447	27427
821.588	27306
821.728	27135
821.868	27055
822.008	26739
822.149	26887
822.289	26785
822.429	26564
822.569	26434
822.709	26484
822.849	26286
822.99	26218
823.13	26237
823.27	26286
823.41	26107
823.55	26008
823.69	25989
823.83	26172
823.97	26088
824.11	26062
824.25	25856
824.389	25963
824.529	25814
824.669	26092
824.809	26035
824.949	25887
825.089	26024
825.228	25993
825.368	25799
825.508	25765
825.648	25852
825.787	25799
825.927	25932
826.067	25955
826.206	25738
826.346	25989
826.485	25852
826.625	25795
826.765	25864
826.904	25913
827.044	25483
827.183	25540
827.323	25518
827.462	25601
827.601	25438
827.741	25479
827.88	25529
828.02	25457
828.159	25468
828.298	25567
828.437	25472
828.577	25521
828.716	25655
828.855	25445
828.994	25278
829.134	25145
829.273	25301
829.412	25278
829.551	25179
829.69	25266
829.829	25225
829.968	25297
830.107	25232
830.246	25225
830.385	25164
830.524	25019
830.663	25042
830.802	24909
830.941	24726
831.08	24837
831.219	24795
831.357	24958
831.496	25099
831.635	24768
831.774	24700
831.913	24677
832.051	24681
832.19	24631
832.329	24616
832.467	24547
832.606	24479
832.744	24540
832.883	24509
833.022	24555
833.16	24494
833.299	24471
833.437	24448
833.576	24589
833.714	24566
833.852	24502
833.991	24502
834.129	24620
834.267	24475
834.406	24479
834.544	24540
834.682	24502
834.821	24547
834.959	24783
835.097	24426
835.235	24433
835.373	24646
835.511	24467
835.65	24346
835.788	24407
835.926	24289
836.064	24194
836.202	24190
836.34	24391
836.478	24479
836.615	24289
836.753	24407
836.891	24433
837.029	24418
837.167	24327
837.305	24311
837.443	24251
837.58	24277
837.718	24235
837.856	24277
837.993	24262
838.131	24178
838.269	24140
838.406	24018
838.544	23847
838.681	23813
838.819	23901
838.956	23741
839.094	23634
839.231	23668
839.369	23901
839.506	24045
839.643	23908
839.781	23653
839.918	23573
840.055	23710
840.193	23638
840.33	23596
840.467	23642
840.604	23573
840.742	23840
840.879	23493
841.016	23448
841.153	23531
841.29	23703
841.427	23516
841.564	23718
841.701	23615
841.838	23471
841.975	23551
842.112	23520
842.249	23448
842.385	23334
842.522	23600
842.659	23379
842.796	23296
842.933	23227
843.069	23246
843.206	23254
843.343	23429
843.479	23364
843.616	23280
843.752	23086
843.889	23166
844.025	23193
844.162	23018
844.298	23181
844.435	23124
844.571	22949
844.708	23147
844.844	23280
844.98	23231
845.117	23083
845.253	23140
845.389	22900
845.525	23018
845.661	23018
845.798	22896
845.934	22847
846.07	22816
846.206	22820
846.342	23018
846.478	22900
846.614	22573
846.75	22519
846.886	22542
847.022	22611
847.158	22615
847.294	22592
847.429	22660
847.565	22588
847.701	22942
847.837	22348
847.972	22314
848.108	22424
848.244	22382
848.379	22253
848.515	22185
848.65	22139
848.786	22223
848.921	22211
849.057	22268
849.192	22363
849.328	22139
849.463	22230
849.598	22032
849.734	22093
849.869	21930
850.004	21850
850.14	21918
850.275	21739
850.41	21857
850.545	21816
850.68	21823
850.815	21915
850.95	21934
851.085	22093
851.22	22051
851.355	21869
851.49	21998
851.625	21899
851.76	21888
851.895	21819
852.03	21770
852.165	21850
852.299	22059
852.434	21956
852.569	21934
852.703	21903
852.838	21987
852.973	22070
853.107	21964
853.242	21838
853.376	21842
853.511	21652
853.645	21724
853.78	21838
853.914	21774
854.048	21690
854.183	21778
854.317	21751
854.451	21873
854.585	21808
854.72	21652
854.854	21819
854.988	21644
855.122	21622
855.256	21690
855.39	21694
855.524	21800
855.658	21663
855.792	22029
855.926	21850
856.06	21759
856.194	21857
856.327	21728
856.461	21793
856.595	21644
856.729	21785
856.862	21907
856.996	21743
857.13	21800
857.263	21930
857.397	21854
857.53	21766
857.664	21743
857.797	21793
857.931	21945
858.064	21774
858.197	21907
858.331	21717
858.464	21660
858.597	21542
858.731	21732
858.864	21641
858.997	21637
859.13	21747
859.263	21759
859.396	21679
859.529	21728
859.662	21641
859.795	21705
859.928	21736
860.061	21838
860.194	22067
860.327	21724
860.46	21739
860.592	21926
860.725	21945
860.858	21915
860.99	21857
861.123	21629
861.256	21686
861.388	21690
861.521	22424
861.653	21637
861.786	21538
861.918	21549
862.05	21595
862.183	21690
862.315	21614
862.447	21838
862.58	21713
862.712	21473
862.844	21389
862.976	21614
863.108	21507
863.24	21895
863.372	21450
863.504	21549
863.636	21458
863.768	21416
863.9	21351
864.032	21447
864.164	21488
864.296	21606
864.428	21534
864.559	21587
864.691	21477
864.823	21428
864.954	21420
865.086	21428
865.217	21351
865.349	21302
865.48	21359
865.612	21462
865.743	21538
865.875	21291
866.006	21359
866.137	21500
866.269	21245
866.4	21279
866.531	21348
866.662	21302
866.793	21302
866.924	21302
867.055	21336
867.186	21355
867.317	21298
867.448	21184
867.579	21165
867.71	21214
867.841	21226
867.972	21260
868.103	21241
868.233	21386
868.364	21393
868.495	21306
868.625	21416
868.756	21587
868.886	21393
869.017	21599
869.147	21656
869.278	21614
869.408	21526
869.539	21393
869.669	21564
869.799	21637
869.929	21827
870.06	21603
870.19	21960
870.32	21857
870.45	21800
870.58	21816
870.71	22013
870.84	22078
870.97	21983
871.1	21945
871.23	22093
871.36	22013
871.489	22036
871.619	22109
871.749	22112
871.879	22219
872.008	22295
872.138	22101
872.267	22173
872.397	21865
872.526	21979
872.656	22021
872.785	22032
872.915	22067
873.044	22124
873.173	22154
873.303	22162
873.432	22211
873.561	22363
873.69	22078
873.819	22234
873.948	22276
874.077	22207
874.206	22082
874.335	22131
874.464	22246
874.593	22276
874.722	22405
874.851	22455
874.979	22291
875.108	22341
875.237	22310
875.365	22371
875.494	22314
875.623	22485
875.751	22333
875.88	22284
876.008	22386
876.136	22561
876.265	22816
876.393	22771
876.521	22748
876.65	22782
876.778	22843
876.906	22675
877.034	22607
877.162	22706
877.29	22653
877.418	22599
877.546	22630
877.674	22683
877.802	22706
877.93	22759
878.058	22664
878.185	22573
878.313	22679
878.441	22672
878.568	22402
878.696	22516
878.824	22649
878.951	22786
879.079	22957
879.206	23083
879.333	22824
879.461	22736
879.588	22850
879.715	22942
879.842	22930
879.97	22858
880.097	22615
880.224	22531
880.351	22557
880.478	22546
880.605	22421
880.732	22512
880.859	22653
880.986	22363
881.112	22504
881.239	22462
881.366	22375
881.493	22169
881.619	22101
881.746	22090
881.872	21991
881.999	22074
882.125	22025
882.252	22196
882.378	22090
882.505	22173
882.631	21964
882.757	21781
882.883	21816
883.01	21884
883.136	21720
883.262	21682
883.388	21641
883.514	21861
883.64	21816
883.766	21694
883.892	21618
884.018	21595
884.143	21816
884.269	21850
884.395	21530
884.52	21344
884.646	21359
884.772	21405
884.897	21405
885.023	21367
885.148	21576
885.274	21637
885.399	21507
885.524	21439
885.65	21492
885.775	21272
885.9	21378
886.025	21519
886.15	21462
886.275	21370
886.4	21306
886.525	21469
886.65	21378
886.775	21279
886.9	21610
887.025	21682
887.149	21473
887.274	21085
887.399	21272
887.523	21096
887.648	21199
887.773	21226
887.897	21211
888.021	21165
888.146	21055
888.27	21173
888.395	21336
888.519	21173
888.643	21123
888.767	21218
888.891	21085
889.015	21017
889.139	20960
889.263	21009
889.387	21028
889.511	21116
889.635	21260
889.759	20891
889.883	21013
890.006	21043
890.13	21032
890.254	20887
890.377	20872
890.501	20788
890.624	20762
890.748	20735
890.871	20598
890.995	20632
891.118	20484
891.241	20522
891.364	20522
891.488	20746
891.611	20590
891.734	20575
891.857	20579
891.98	20473
892.103	20526
892.226	20503
892.349	20484
892.471	20457
892.594	20446
892.717	20549
892.839	20339
892.962	20476
893.085	20530
893.207	20419
893.33	20301
893.452	20476
893.575	20602
893.697	20358
893.819	20598
893.941	20632
894.064	20571
894.186	20415
894.308	20336
894.43	20636
894.552	20571
894.674	20530
894.796	20332
894.918	20347
895.04	20530
895.161	20408
895.283	20511
895.405	20408
895.526	20431
895.648	20465
895.769	20393
895.891	20469
896.012	20541
896.134	20507
896.255	20434
896.376	20419
896.498	20537
896.619	20568
896.74	20419
896.861	20556
896.982	20819
897.103	20921
897.224	20663
897.345	20678
897.466	20617
897.587	20674
897.708	20705
897.828	20659
897.949	20636
898.07	20514
898.19	20579
898.311	20823
898.431	20560
898.552	20670
898.672	20693
898.792	20712
898.913	20731
899.033	20609
899.153	20488
899.273	20556
899.393	20271
899.513	20431
899.633	20427
899.753	20358
899.873	20336
899.993	20389
900.113	20450
900.232	20400
900.352	20374
900.472	20328
900.591	20153
900.711	20149
900.83	20107
900.95	20252
901.069	20202
901.189	20054
901.308	19833
901.427	19655
901.546	19742
901.665	19727
901.784	19734
901.904	19613
902.023	19502
902.141	19377
902.26	19301
902.379	19365
902.498	19312
902.617	19187
902.735	19190
902.854	19259
902.973	19065
903.091	18901
903.21	18901
903.328	18973
903.446	18882
903.565	18768
903.683	18776
903.801	18601
903.919	18677
904.038	18719
904.156	18612
904.274	18559
904.392	18517
904.51	18616
904.627	18422
904.745	18498
904.863	18498
904.981	18296
905.098	18194
905.216	18235
905.334	18136
905.451	18163
905.569	18117
905.686	18209
905.803	18209
905.921	17939
906.038	18087
906.155	17920
906.272	17824
906.389	17840
906.506	17592
906.623	17798
906.74	17699
906.857	17554
906.974	17528
907.091	17733
907.208	17920
907.324	17752
907.441	17634
907.557	17425
907.674	17520
907.79	17368
907.907	17501
908.023	17532
908.139	17383
908.256	17193
908.372	17402
908.488	17303
908.604	17216
908.72	17170
908.836	17254
908.952	17128
909.068	17258
909.184	17307
909.3	17128
909.415	17102
909.531	17121
909.647	16938
909.762	16892
909.878	16801
909.993	16923
910.108	16755
910.224	16771
910.339	16778
910.454	16755
910.57	16698
910.685	16573
910.8	16759
910.915	16816
911.03	16618
911.145	16542
911.259	16497
911.374	16466
911.489	16356
911.604	16402
911.718	16200
911.833	16219
911.947	16120
912.062	16059
912.176	16192
912.291	16246
912.405	16306
912.519	16318
912.633	16352
912.748	16090
912.862	16246
912.976	16044
913.09	15861
913.204	15907
913.318	16036
913.431	16093
913.545	16143
913.659	16124
913.772	15892
913.886	15835
914	15941
914.113	15911
914.226	15911
914.34	15857
914.453	15591
914.566	15846
914.68	15698
914.793	15652
914.906	15473
915.019	15424
915.132	15389
915.245	15359
915.358	15428
915.47	15397
915.583	15325
915.696	15378
915.809	15492
915.921	15549
916.034	15336
916.146	15325
916.259	15302
916.371	15344
916.483	15348
916.595	15188
916.708	15218
916.82	15310
916.932	15230
917.044	15104
917.156	15176
917.268	14986
917.38	15085
917.491	15020
917.603	15119
917.715	15081
917.826	15165
917.938	14883
918.049	14849
918.161	14963
918.272	15173
918.384	15131
918.495	14963
918.606	14788
918.717	14743
918.828	14815
918.939	14842
919.05	14727
919.161	14754
919.272	14655
919.383	14621
919.494	14792
919.604	15001
919.715	14834
919.826	14667
919.936	14773
920.047	14895
920.157	14842
920.267	14899
920.378	14678
920.488	14686
920.598	14929
920.708	15032
920.818	14830
920.928	14838
921.038	15055
921.148	15020
921.258	14651
921.368	14560
921.477	14450
921.587	14442
921.697	14393
921.806	14488
921.916	14339
922.025	14138
922.134	14195
922.244	14069
922.353	14263
922.462	14058
922.571	13959
922.68	13860
922.789	13742
922.898	13811
923.007	13769
923.116	13856
923.224	13772
923.333	13666
923.442	13647
923.55	13616
923.659	13548
923.767	13681
923.876	13559
923.984	13639
924.092	13499
924.201	13449
924.309	13510
924.417	13529
924.525	13384
924.633	13483
924.741	14229
924.849	13168
924.956	13434
925.064	13187
925.172	13091
925.279	13190
925.387	13274
925.494	13206
925.602	13415
925.709	13194
925.816	13072
925.924	13213
926.031	13122
926.138	13122
926.245	13168
926.352	13088
926.459	13179
926.566	13217
926.673	13015
926.779	12970
926.886	12939
926.993	12810
927.099	12829
927.206	12650
927.312	12669
927.419	12844
927.525	12741
927.631	12795
927.737	12608
927.843	12601
927.95	12479
928.056	12597
928.162	12585
928.267	12658
928.373	13160
928.479	12650
928.585	12395
928.69	12445
928.796	12513
928.901	12475
929.007	12292
929.112	12372
929.218	12391
929.323	12391
929.428	12296
929.533	12296
929.638	12239
929.743	12289
929.848	12311
929.953	12194
930.058	12114
930.163	11946
930.267	11954
930.372	12106
930.477	11901
930.581	12140
930.685	12053
930.79	11847
930.894	11851
930.998	11843
931.103	11965
931.207	11604
931.311	11482
931.415	11402
931.519	11208
931.623	11204
