Data from test_V78500241_127.txt Node
Date: Fri Mar 25 15:42:40 CST 2022
User: usil
Spectrometer: V785-0024
Trigger mode: 0
Integration Time (sec): 4.000000E-1
Scans to average: 1
Nonlinearity correction enabled: false
Boxcar width: 0
Storing dark spectrum: false
XAxis mode: Wavelengths
Number of Pixels in Spectrum: 1024
>>>>>Begin Spectral Data<<<<<
801.071	30205
801.214	30049
801.356	29916
801.499	29840
801.641	29741
801.783	29722
801.926	29809
802.068	29802
802.211	29642
802.353	29535
802.496	29410
802.638	29364
802.78	29356
802.923	29303
803.065	29277
803.208	29258
803.35	29326
803.492	29570
803.635	29589
803.777	29372
803.919	29531
804.061	29843
804.204	29551
804.346	29391
804.488	29387
804.63	29345
804.773	29459
804.915	29379
805.057	29619
805.199	29463
805.341	29455
805.483	29520
805.626	29638
805.768	29467
805.91	29600
806.052	29554
806.194	29543
806.336	29832
806.478	29634
806.62	29524
806.762	29589
806.904	29901
807.046	29931
807.188	29950
807.33	29954
807.472	30003
807.614	29878
807.756	29969
807.898	29828
808.04	29752
808.182	29729
808.324	29802
808.465	29661
808.607	29931
808.749	30102
808.891	30144
809.033	30194
809.174	30216
809.316	30140
809.458	30034
809.6	30129
809.741	30194
809.883	30194
810.025	30338
810.166	30334
810.308	30349
810.45	30251
810.591	30251
810.733	30072
810.875	30140
811.016	29969
811.158	29999
811.299	30190
811.441	30304
811.582	30342
811.724	30057
811.865	29961
812.007	29992
812.148	30034
812.29	30205
812.431	30228
812.573	30251
812.714	30414
812.855	30700
812.997	30601
813.138	30859
813.279	30711
813.421	30620
813.562	30513
813.703	30391
813.845	30247
813.986	30060
814.127	29847
814.268	29764
814.41	29916
814.551	29687
814.692	29760
814.833	29630
814.974	29570
815.115	29691
815.256	29577
815.397	29463
815.539	29573
815.68	29379
815.821	29395
815.962	29360
816.103	29265
816.244	29208
816.385	29159
816.526	29124
816.666	28995
816.807	28869
816.948	28942
817.089	28930
817.23	28668
817.371	28744
817.512	28888
817.653	28854
817.793	28793
817.934	28793
818.075	28843
818.216	28828
818.356	28717
818.497	28577
818.638	28512
818.778	28462
818.919	28717
819.06	28565
819.2	28607
819.341	28790
819.481	28771
819.622	28873
819.762	29109
819.903	29124
820.043	28816
820.184	28797
820.324	28778
820.465	28885
820.605	28790
820.746	28740
820.886	28599
821.026	28790
821.167	28752
821.307	28831
821.447	28615
821.588	28626
821.728	28691
821.868	28333
822.008	28295
822.149	28002
822.289	28158
822.429	28051
822.569	27835
822.709	27831
822.849	27641
822.99	27663
823.13	27599
823.27	27591
823.41	27431
823.55	27389
823.69	27587
823.83	27492
823.97	27405
824.11	27268
824.25	27161
824.389	27313
824.529	27264
824.669	27252
824.809	27313
824.949	27173
825.089	27382
825.228	27287
825.368	27036
825.508	27154
825.648	26918
825.787	26975
825.927	27161
826.067	26998
826.206	26982
826.346	27173
826.485	27093
826.625	27005
826.765	27165
826.904	27062
827.044	26815
827.183	26762
827.323	26670
827.462	26720
827.601	26842
827.741	26587
827.88	26701
828.02	26663
828.159	26731
828.298	26678
828.437	26705
828.577	26705
828.716	26819
828.855	26446
828.994	26377
829.134	26278
829.273	26480
829.412	26206
829.551	26237
829.69	26366
829.829	26294
829.968	26351
830.107	26370
830.246	26526
830.385	26252
830.524	26263
830.663	26145
830.802	26073
830.941	25928
831.08	25883
831.219	25944
831.357	25986
831.496	26046
831.635	25993
831.774	25799
831.913	25769
832.051	25620
832.19	25662
832.329	25605
832.467	25605
832.606	25559
832.744	25445
832.883	25518
833.022	25453
833.16	25453
833.299	25392
833.437	25563
833.576	25434
833.714	25392
833.852	25586
833.991	25533
834.129	25601
834.267	25491
834.406	25552
834.544	25616
834.682	25540
834.821	25365
834.959	25628
835.097	25312
835.235	25464
835.373	25483
835.511	25479
835.65	25422
835.788	25377
835.926	25145
836.064	25065
836.202	25202
836.34	25320
836.478	25415
836.615	25190
836.753	25476
836.891	25487
837.029	25285
837.167	25168
837.305	25187
837.443	25266
837.58	25091
837.718	25126
837.856	25122
837.993	25042
838.131	25050
838.269	24962
838.406	25008
838.544	24894
838.681	24650
838.819	24627
838.956	24673
839.094	24464
839.231	24654
839.369	24665
839.506	24772
839.643	24798
839.781	24433
839.918	24532
840.055	24574
840.193	24471
840.33	24399
840.467	24330
840.604	24479
840.742	24650
840.879	24232
841.016	24365
841.153	24323
841.29	24517
841.427	24262
841.564	24441
841.701	24346
841.838	24186
841.975	24190
842.112	24133
842.249	24197
842.385	24110
842.522	24308
842.659	24095
842.796	24026
842.933	23893
843.069	23927
843.206	23920
843.343	24167
843.479	24034
843.616	23908
843.752	23790
843.889	23802
844.025	23863
844.162	23695
844.298	23897
844.435	23783
844.571	23764
844.708	23748
844.844	23901
844.98	23752
845.117	23794
845.253	23779
845.389	23665
845.525	23726
845.661	23665
845.798	23604
845.934	23452
846.07	23440
846.206	23505
846.342	23383
846.478	23360
846.614	23235
846.75	23052
846.886	23159
847.022	23246
847.158	23185
847.294	23102
847.429	23216
847.565	23193
847.701	23360
847.837	22946
847.972	22816
848.108	23003
848.244	22900
848.379	22919
848.515	22771
848.65	22603
848.786	22740
848.921	22710
849.057	22752
849.192	22790
849.328	22729
849.463	22679
849.598	22603
849.734	22538
849.869	22694
850.004	22405
850.14	22466
850.275	22497
850.41	22497
850.545	22360
850.68	22379
850.815	22417
850.95	22409
851.085	22592
851.22	22668
851.355	22322
851.49	22390
851.625	22333
851.76	22325
851.895	22341
852.03	22337
852.165	22276
852.299	22504
852.434	22523
852.569	22318
852.703	22428
852.838	22470
852.973	22462
853.107	22538
853.242	22421
853.376	22261
853.511	22139
853.645	22257
853.78	22417
853.914	22295
854.048	22261
854.183	22219
854.317	22276
854.451	22371
854.585	22158
854.72	22253
854.854	22295
854.988	22173
855.122	22158
855.256	22059
855.39	22154
855.524	22261
855.658	22219
855.792	22196
855.926	22200
856.06	22143
856.194	22310
856.327	22143
856.461	22124
856.595	22101
856.729	22188
856.862	22192
856.996	22162
857.13	22303
857.263	22188
857.397	22341
857.53	22192
857.664	22181
857.797	22169
857.931	22147
858.064	22242
858.197	22272
858.331	22154
858.464	22029
858.597	21968
858.731	22139
858.864	22086
858.997	22158
859.13	22063
859.263	22169
859.396	22219
859.529	22055
859.662	22124
859.795	22120
859.928	22143
860.061	22234
860.194	22310
860.327	22356
860.46	22162
860.592	22261
860.725	22234
860.858	22215
860.99	22120
861.123	22093
861.256	22029
861.388	22185
861.521	22641
861.653	22078
861.786	21998
861.918	22025
862.05	22097
862.183	22200
862.315	22135
862.447	22249
862.58	22101
862.712	21915
862.844	21964
862.976	21899
863.108	21991
863.24	22242
863.372	21724
863.504	21766
863.636	21804
863.768	21759
863.9	21766
864.032	21846
864.164	21766
864.296	21876
864.428	21800
864.559	21922
864.691	21865
864.823	21690
864.954	21873
865.086	21717
865.217	21724
865.349	21606
865.48	21599
865.612	21652
865.743	21751
865.875	21701
866.006	21663
866.137	21709
866.269	21808
866.4	21682
866.531	21614
866.662	21663
866.793	21526
866.924	21686
867.055	21534
867.186	21591
867.317	21526
867.448	21534
867.579	21641
867.71	21526
867.841	21477
867.972	21576
868.103	21515
868.233	21553
868.364	21595
868.495	21606
868.625	21884
868.756	21884
868.886	21778
869.017	21857
869.147	21930
869.278	21975
869.408	21781
869.539	21846
869.669	21949
869.799	21911
869.929	22090
870.06	22002
870.19	22162
870.32	22078
870.45	22101
870.58	22120
870.71	22246
870.84	22215
870.97	22219
871.1	22219
871.23	22322
871.36	22474
871.489	22314
871.619	22436
871.749	22363
871.879	22455
872.008	22565
872.138	22478
872.267	22523
872.397	22299
872.526	22265
872.656	22375
872.785	22268
872.915	22432
873.044	22565
873.173	22493
873.303	22580
873.432	22386
873.561	22481
873.69	22455
873.819	22390
873.948	22542
874.077	22451
874.206	22436
874.335	22417
874.464	22584
874.593	22706
874.722	22603
874.851	22634
874.979	22721
875.108	22706
875.237	22679
875.365	22599
875.494	22637
875.623	22710
875.751	22569
875.88	22725
876.008	22755
876.136	22771
876.265	23067
876.393	23105
876.521	23227
876.65	23178
876.778	22957
876.906	22946
877.034	22987
877.162	23079
877.29	22953
877.418	22999
877.546	23079
877.674	23083
877.802	23018
877.93	23086
878.058	22987
878.185	23022
878.313	23018
878.441	22961
878.568	22748
878.696	22984
878.824	22972
878.951	23113
879.079	23155
879.206	23315
879.333	23109
879.461	22980
879.588	23079
879.715	23227
879.842	23284
879.97	23147
880.097	22839
880.224	22809
880.351	22828
880.478	22782
880.605	22672
880.732	22778
880.859	23113
880.986	22858
881.112	22778
881.239	22626
881.366	22554
881.493	22466
881.619	22413
881.746	22462
881.872	22485
881.999	22538
882.125	22318
882.252	22504
882.378	22398
882.505	22489
882.631	22196
882.757	22185
882.883	22090
883.01	22086
883.136	22188
883.262	21953
883.388	21941
883.514	22002
883.64	22128
883.766	22059
883.892	21922
884.018	21934
884.143	22036
884.269	22150
884.395	21800
884.52	21705
884.646	21736
884.772	21644
884.897	21595
885.023	21800
885.148	21857
885.274	21941
885.399	21823
885.524	21739
885.65	21732
885.775	21736
885.9	21739
886.025	21888
886.15	21781
886.275	21656
886.4	21618
886.525	21724
886.65	21625
886.775	21496
886.9	21774
887.025	21975
887.149	21561
887.274	21511
887.399	21450
887.523	21485
887.648	21283
887.773	21363
887.897	21591
888.021	21504
888.146	21370
888.27	21591
888.395	21686
888.519	21443
888.643	21412
888.767	21481
888.891	21389
889.015	21256
889.139	21203
889.263	21256
889.387	21291
889.511	21443
889.635	21272
889.759	21138
889.883	21150
890.006	21245
890.13	21370
890.254	21131
890.377	21184
890.501	20944
890.624	20971
890.748	20960
890.871	20785
890.995	20655
891.118	20659
891.241	20811
891.364	20750
891.488	20880
891.611	20796
891.734	20765
891.857	20887
891.98	20826
892.103	20785
892.226	20724
892.349	20697
892.471	20568
892.594	20762
892.717	20796
892.839	20686
892.962	20705
893.085	20735
893.207	20667
893.33	20583
893.452	20575
893.575	20857
893.697	20621
893.819	20876
893.941	20830
894.064	20815
894.186	20598
894.308	20533
894.43	20697
894.552	20952
894.674	20720
894.796	20530
894.918	20667
895.04	20678
895.161	20807
895.283	20632
895.405	20663
895.526	20674
895.648	20640
895.769	20750
895.891	20663
896.012	20830
896.134	20815
896.255	20826
896.376	20651
896.498	20705
896.619	20640
896.74	20785
896.861	20834
896.982	21116
897.103	21176
897.224	20880
897.345	20956
897.466	20910
897.587	20868
897.708	20986
897.828	21077
897.949	20883
898.07	20720
898.19	20880
898.311	20941
898.431	20781
898.552	20785
898.672	20967
898.792	20864
898.913	20823
899.033	20811
899.153	20571
899.273	20526
899.393	20549
899.513	20617
899.633	20648
899.753	20598
899.873	20541
899.993	20663
900.113	20488
900.232	20495
900.352	20442
900.472	20374
900.591	20294
900.711	20446
900.83	20362
900.95	20461
901.069	20473
901.189	20313
901.308	20054
901.427	19940
901.546	19894
901.665	19951
901.784	19860
901.904	19818
902.023	19700
902.141	19499
902.26	19411
902.379	19499
902.498	19362
902.617	19358
902.735	19396
902.854	19346
902.973	19316
903.091	19023
903.21	19023
903.328	19031
903.446	19080
903.565	18939
903.683	18791
903.801	18734
903.919	18795
904.038	18890
904.156	18574
904.274	18833
904.392	18661
904.51	18582
904.627	18681
904.745	18608
904.863	18623
904.981	18574
905.098	18232
905.216	18251
905.334	18270
905.451	18380
905.569	18285
905.686	18262
905.803	18232
905.921	18057
906.038	18098
906.155	18114
906.272	17965
906.389	17878
906.506	17703
906.623	17851
906.74	17802
906.857	17707
906.974	17665
907.091	17790
907.208	17942
907.324	17927
907.441	17672
907.557	17615
907.674	17448
907.79	17311
907.907	17379
908.023	17547
908.139	17524
908.256	17337
908.372	17349
908.488	17368
908.604	17223
908.72	17212
908.836	17151
908.952	16976
909.068	17166
909.184	17239
909.3	17174
909.415	17151
909.531	17071
909.647	16866
909.762	16824
909.878	16858
909.993	16771
910.108	16854
910.224	16816
910.339	16778
910.454	16698
910.57	16607
910.685	16542
910.8	16850
910.915	16843
911.03	16596
911.145	16466
911.259	16386
911.374	16451
911.489	16405
911.604	16333
911.718	16204
911.833	16086
911.947	16086
912.062	16093
912.176	16280
912.291	16128
912.405	16196
912.519	16398
912.633	16367
912.748	16223
912.862	16147
912.976	15888
913.09	15766
913.204	15953
913.318	15953
913.431	16025
913.545	15994
913.659	15979
913.772	15854
913.886	15720
914	15766
914.113	15774
914.226	15800
914.34	15850
914.453	15652
914.566	15819
914.68	15637
914.793	15572
914.906	15549
915.019	15374
915.132	15367
915.245	15233
915.358	15359
915.47	15325
915.583	15302
915.696	15310
915.809	15428
915.921	15359
916.034	15298
916.146	15214
916.259	15260
916.371	15359
916.483	15283
916.595	15161
916.708	15176
916.82	15211
916.932	15119
917.044	15032
917.156	15039
917.268	14960
917.38	14944
917.491	14880
917.603	15085
917.715	15108
917.826	15093
917.938	14937
918.049	14811
918.161	14868
918.272	15013
918.384	15036
918.495	14891
918.606	14842
918.717	14644
918.828	14758
918.939	14758
919.05	14571
919.161	14743
919.272	14526
919.383	14545
919.494	14716
919.604	14861
919.715	14735
919.826	14659
919.936	14663
920.047	14781
920.157	14587
920.267	14804
920.378	14590
920.488	14598
920.598	14845
920.708	14861
920.818	14727
920.928	14777
921.038	14880
921.148	14857
921.258	14552
921.368	14503
921.477	14351
921.587	14476
921.697	14130
921.806	14499
921.916	14202
922.025	14039
922.134	14039
922.244	13913
922.353	14039
922.462	13811
922.571	13811
922.68	13712
922.789	13685
922.898	13643
923.007	13521
923.116	13658
923.224	13548
923.333	13518
923.442	13487
923.55	13381
923.659	13445
923.767	13533
923.876	13422
923.984	13460
924.092	13308
924.201	13400
924.309	13335
924.417	13232
924.525	13301
924.633	13278
924.741	14046
924.849	13099
924.956	13145
925.064	13038
925.172	12966
925.279	13000
925.387	13038
925.494	13080
925.602	13187
925.709	13038
925.816	12977
925.924	12932
926.031	13053
926.138	12973
926.245	13000
926.352	12924
926.459	12973
926.566	13015
926.673	12935
926.779	12814
926.886	12783
926.993	12582
927.099	12555
927.206	12620
927.312	12536
927.419	12612
927.525	12604
927.631	12681
927.737	12563
927.843	12437
927.95	12319
928.056	12315
928.162	12422
928.267	12475
928.373	13015
928.479	12422
928.585	12220
928.69	12361
928.796	12346
928.901	12205
929.007	12159
929.112	12228
929.218	12228
929.323	12098
929.428	12102
929.533	12266
929.638	12007
929.743	11988
929.848	12125
929.953	12091
930.058	11984
930.163	11832
930.267	11874
930.372	11946
930.477	11775
930.581	12015
930.685	11794
930.79	11649
930.894	11775
930.998	11551
931.103	11794
931.207	11341
931.311	11288
931.415	11242
931.519	10999
931.623	11041
