Data from test_V78500241_2110.txt Node
Date: Fri Mar 25 15:56:25 CST 2022
User: usil
Spectrometer: V785-0024
Trigger mode: 0
Integration Time (sec): 4.000000E-1
Scans to average: 1
Nonlinearity correction enabled: false
Boxcar width: 0
Storing dark spectrum: false
XAxis mode: Wavelengths
Number of Pixels in Spectrum: 1024
>>>>>Begin Spectral Data<<<<<
801.071	28839
801.214	28748
801.356	28504
801.499	28497
801.641	28318
801.783	28538
801.926	28394
802.068	28322
802.211	28337
802.353	28173
802.496	28059
802.638	28211
802.78	28147
802.923	28021
803.065	28078
803.208	28082
803.35	28162
803.492	28253
803.635	28272
803.777	28265
803.919	28284
804.061	28645
804.204	28428
804.346	28356
804.488	28299
804.63	28299
804.773	28242
804.915	28432
805.057	28508
805.199	28299
805.341	28352
805.483	28523
805.626	28588
805.768	28535
805.91	28634
806.052	28717
806.194	28557
806.336	28653
806.478	28527
806.62	28538
806.762	28679
806.904	28805
807.046	29113
807.188	29067
807.33	29025
807.472	29064
807.614	28919
807.756	28915
807.898	28877
808.04	28869
808.182	28778
808.324	28850
808.465	28744
808.607	28991
808.749	29235
808.891	29326
809.033	29296
809.174	29269
809.316	29254
809.458	29185
809.6	29178
809.741	29395
809.883	29402
810.025	29509
810.166	29452
810.308	29539
810.45	29353
810.591	29368
810.733	29341
810.875	29223
811.016	29105
811.158	29181
811.299	29410
811.441	29375
811.582	29296
811.724	29299
811.865	29250
812.007	29181
812.148	29311
812.29	29273
812.431	29356
812.573	29570
812.714	29630
812.855	29878
812.997	29851
813.138	30087
813.279	29862
813.421	29817
813.562	29592
813.703	29665
813.845	29402
813.986	29143
814.127	28965
814.268	28858
814.41	28923
814.551	28991
814.692	28999
814.833	28957
814.974	28976
815.115	29003
815.256	28755
815.397	28797
815.539	28850
815.68	28733
815.821	28679
815.962	28858
816.103	28793
816.244	28668
816.385	28493
816.526	28470
816.666	28413
816.807	28303
816.948	28295
817.089	28375
817.23	28204
817.371	28371
817.512	28295
817.653	28249
817.793	28242
817.934	28306
818.075	28284
818.216	28249
818.356	28246
818.497	28128
818.638	27979
818.778	28051
818.919	28196
819.06	28097
819.2	28268
819.341	28291
819.481	28261
819.622	28440
819.762	28721
819.903	28569
820.043	28474
820.184	28390
820.324	28230
820.465	28367
820.605	28280
820.746	28398
820.886	28371
821.026	28337
821.167	28447
821.307	28447
821.447	28265
821.588	28234
821.728	28017
821.868	27937
822.008	27842
822.149	27717
822.289	27831
822.429	27412
822.569	27504
822.709	27534
822.849	27272
822.99	27363
823.13	27096
823.27	27142
823.41	27070
823.55	26880
823.69	27131
823.83	27131
823.97	27066
824.11	26842
824.25	26914
824.389	26857
824.529	26956
824.669	26895
824.809	27055
824.949	26998
825.089	26967
825.228	26944
825.368	26792
825.508	26796
825.648	26876
825.787	26762
825.927	26963
826.067	26777
826.206	26842
826.346	26880
826.485	26872
826.625	26682
826.765	26880
826.904	26826
827.044	26739
827.183	26552
827.323	26541
827.462	26530
827.601	26495
827.741	26339
827.88	26674
828.02	26446
828.159	26431
828.298	26438
828.437	26651
828.577	26423
828.716	26541
828.855	26404
828.994	26142
829.134	26355
829.273	26374
829.412	26138
829.551	26191
829.69	26214
829.829	26301
829.968	26305
830.107	26244
830.246	26240
830.385	26084
830.524	26164
830.663	25970
830.802	26027
830.941	25852
831.08	25887
831.219	25906
831.357	25883
831.496	26035
831.635	25750
831.774	25761
831.913	25658
832.051	25693
832.19	25666
832.329	25567
832.467	25525
832.606	25411
832.744	25476
832.883	25559
833.022	25457
833.16	25343
833.299	25662
833.437	25537
833.576	25575
833.714	25502
833.852	25571
833.991	25518
834.129	25571
834.267	25491
834.406	25483
834.544	25548
834.682	25491
834.821	25563
834.959	25712
835.097	25514
835.235	25544
835.373	25476
835.511	25438
835.65	25350
835.788	25358
835.926	25278
836.064	25050
836.202	25187
836.34	25343
836.478	25506
836.615	25285
836.753	25411
836.891	25415
837.029	25400
837.167	25422
837.305	25270
837.443	25282
837.58	25145
837.718	25247
837.856	25179
837.993	25126
838.131	25099
838.269	25061
838.406	25137
838.544	24916
838.681	24817
838.819	24852
838.956	24719
839.094	24738
839.231	24635
839.369	24859
839.506	24916
839.643	24840
839.781	24646
839.918	24627
840.055	24665
840.193	24445
840.33	24540
840.467	24654
840.604	24597
840.742	24840
840.879	24369
841.016	24555
841.153	24460
841.29	24658
841.427	24578
841.564	24642
841.701	24559
841.838	24475
841.975	24407
842.112	24517
842.249	24426
842.385	24410
842.522	24490
842.659	24414
842.796	24243
842.933	24338
843.069	24292
843.206	24308
843.343	24346
843.479	24243
843.616	24388
843.752	24121
843.889	24182
844.025	24155
844.162	24174
844.298	24152
844.435	24083
844.571	24034
844.708	24034
844.844	24380
844.98	24273
845.117	24213
845.253	23977
845.389	23969
845.525	24068
845.661	23923
845.798	23946
845.934	23912
846.07	23798
846.206	23821
846.342	23813
846.478	23741
846.614	23562
846.75	23356
846.886	23406
847.022	23611
847.158	23547
847.294	23497
847.429	23596
847.565	23573
847.701	23767
847.837	23143
847.972	23307
848.108	23318
848.244	23299
848.379	23227
848.515	23128
848.65	23117
848.786	23147
848.921	23189
849.057	23258
849.192	23143
849.328	23265
849.463	23044
849.598	23041
849.734	23102
849.869	23003
850.004	22987
850.14	22911
850.275	22965
850.41	22831
850.545	22740
850.68	22790
850.815	22949
850.95	22908
851.085	23052
851.22	22972
851.355	22911
851.49	22790
851.625	22881
851.76	22793
851.895	22774
852.03	22805
852.165	22915
852.299	22877
852.434	23014
852.569	22942
852.703	22862
852.838	23014
852.973	23025
853.107	23014
853.242	22733
853.376	22793
853.511	22660
853.645	22641
853.78	22702
853.914	22797
854.048	22599
854.183	22672
854.317	22767
854.451	22892
854.585	22755
854.72	22675
854.854	22801
854.988	22611
855.122	22774
855.256	22645
855.39	22668
855.524	22755
855.658	22752
855.792	22721
855.926	22706
856.06	22668
856.194	22778
856.327	22706
856.461	22611
856.595	22592
856.729	22637
856.862	22805
856.996	22744
857.13	22713
857.263	22729
857.397	22752
857.53	22713
857.664	22664
857.797	22809
857.931	22843
858.064	22755
858.197	22672
858.331	22698
858.464	22607
858.597	22565
858.731	22679
858.864	22546
858.997	22653
859.13	22615
859.263	22805
859.396	22710
859.529	22767
859.662	22710
859.795	22736
859.928	22550
860.061	22854
860.194	22839
860.327	22668
860.46	22584
860.592	22828
860.725	22869
860.858	22850
860.99	22626
861.123	22641
861.256	22641
861.388	22653
861.521	23429
861.653	22592
861.786	22451
861.918	22451
862.05	22584
862.183	22531
862.315	22615
862.447	22668
862.58	22618
862.712	22390
862.844	22344
862.976	22607
863.108	22379
863.24	22706
863.372	22280
863.504	22322
863.636	22360
863.768	22325
863.9	22409
864.032	22314
864.164	22363
864.296	22489
864.428	22390
864.559	22508
864.691	22485
864.823	22303
864.954	22432
865.086	22360
865.217	22413
865.349	22219
865.48	22238
865.612	22105
865.743	22291
865.875	22375
866.006	22162
866.137	22230
866.269	22261
866.4	22287
866.531	22223
866.662	22295
866.793	22207
866.924	22230
867.055	22116
867.186	22101
867.317	22234
867.448	22101
867.579	22226
867.71	22154
867.841	22002
867.972	22162
868.103	22192
868.233	22234
868.364	22078
868.495	22322
868.625	22421
868.756	22470
868.886	22348
869.017	22379
869.147	22580
869.278	22535
869.408	22588
869.539	22409
869.669	22474
869.799	22447
869.929	22584
870.06	22588
870.19	22717
870.32	22622
870.45	22908
870.58	22835
870.71	22881
870.84	22957
870.97	22854
871.1	22896
871.23	22980
871.36	22995
871.489	22942
871.619	22984
871.749	23006
871.879	23083
872.008	23162
872.138	23086
872.267	23113
872.397	22919
872.526	22873
872.656	22869
872.785	22904
872.915	23048
873.044	23162
873.173	23006
873.303	23037
873.432	23124
873.561	23174
873.69	23239
873.819	22961
873.948	23083
874.077	23162
874.206	23090
874.335	23003
874.464	23147
874.593	23315
874.722	23181
874.851	23242
874.979	23345
875.108	23341
875.237	23208
875.365	23246
875.494	23155
875.623	23326
875.751	23288
875.88	23239
876.008	23425
876.136	23345
876.265	23619
876.393	23737
876.521	23695
876.65	23672
876.778	23615
876.906	23558
877.034	23512
877.162	23600
877.29	23402
877.418	23600
877.546	23638
877.674	23493
877.802	23577
877.93	23608
878.058	23482
878.185	23512
878.313	23509
878.441	23604
878.568	23421
878.696	23505
878.824	23558
878.951	23691
879.079	23790
879.206	23870
879.333	23760
879.461	23619
879.588	23703
879.715	23665
879.842	23767
879.97	23707
880.097	23493
880.224	23406
880.351	23585
880.478	23433
880.605	23391
880.732	23368
880.859	23608
880.986	23436
881.112	23349
881.239	23372
881.366	23280
881.493	23056
881.619	23044
881.746	22987
881.872	22938
881.999	22968
882.125	22869
882.252	22995
882.378	22995
882.505	23151
882.631	22839
882.757	22584
882.883	22679
883.01	22622
883.136	22668
883.262	22382
883.388	22363
883.514	22698
883.64	22706
883.766	22603
883.892	22379
884.018	22447
884.143	22489
884.269	22622
884.395	22329
884.52	22337
884.646	22360
884.772	22234
884.897	22196
885.023	22295
885.148	22375
885.274	22398
885.399	22417
885.524	22348
885.65	22295
885.775	22306
885.9	22261
886.025	22352
886.15	22405
886.275	22219
886.4	22112
886.525	22329
886.65	22242
886.775	22230
886.9	22344
887.025	22493
887.149	22306
887.274	22192
887.399	22032
887.523	22055
887.648	22048
887.773	21968
887.897	22139
888.021	22063
888.146	22006
888.27	22040
888.395	22166
888.519	22048
888.643	22074
888.767	22036
888.891	22013
889.015	21861
889.139	21899
889.263	21770
889.387	21956
889.511	22029
889.635	21911
889.759	21808
889.883	21770
890.006	21766
890.13	21812
890.254	21846
890.377	21675
890.501	21500
890.624	21591
890.748	21682
890.871	21504
890.995	21401
891.118	21336
891.241	21431
891.364	21382
891.488	21462
891.611	21237
891.734	21317
891.857	21401
891.98	21443
892.103	21367
892.226	21260
892.349	21237
892.471	21051
892.594	21180
892.717	21370
892.839	21245
892.962	21374
893.085	21435
893.207	21211
893.33	21203
893.452	21298
893.575	21230
893.697	21199
893.819	21500
893.941	21485
894.064	21348
894.186	21306
894.308	21154
894.43	21214
894.552	21329
894.674	21275
894.796	21199
894.918	21199
895.04	21138
895.161	21332
895.283	21283
895.405	21104
895.526	21154
895.648	21279
895.769	21233
895.891	21306
896.012	21359
896.134	21203
896.255	21382
896.376	21222
896.498	21233
896.619	21260
896.74	21393
896.861	21291
896.982	21481
897.103	21724
897.224	21507
897.345	21408
897.466	21245
897.587	21412
897.708	21557
897.828	21572
897.949	21382
898.07	21260
898.19	21310
898.311	21500
898.431	21325
898.552	21412
898.672	21485
898.792	21469
898.913	21439
899.033	21249
899.153	21192
899.273	21104
899.393	21192
899.513	21287
899.633	21119
899.753	21169
899.873	21028
899.993	21104
900.113	21116
900.232	21058
900.352	20971
900.472	20971
900.591	20819
900.711	20880
900.83	20948
900.95	21013
901.069	21081
901.189	20769
901.308	20568
901.427	20514
901.546	20442
901.665	20541
901.784	20492
901.904	20324
902.023	20214
902.141	19982
902.26	19993
902.379	19932
902.498	19974
902.617	19955
902.735	19993
902.854	19947
902.973	19864
903.091	19620
903.21	19601
903.328	19605
903.446	19483
903.565	19407
903.683	19457
903.801	19152
903.919	19369
904.038	19445
904.156	19213
904.274	19263
904.392	19183
904.51	19065
904.627	19259
904.745	19213
904.863	19145
904.981	19031
905.098	18943
905.216	18878
905.334	18806
905.451	18920
905.569	18791
905.686	18920
905.803	18814
905.921	18620
906.038	18757
906.155	18730
906.272	18589
906.389	18528
906.506	18395
906.623	18426
906.74	18380
906.857	18213
906.974	18171
907.091	18441
907.208	18517
907.324	18251
907.441	18289
907.557	18083
907.674	18083
907.79	18045
907.907	18076
908.023	18194
908.139	18194
908.256	18098
908.372	17996
908.488	17885
908.604	17756
908.72	17802
908.836	17771
908.952	17840
909.068	17771
909.184	17973
909.3	17756
909.415	17878
909.531	17733
909.647	17558
909.762	17577
909.878	17433
909.993	17558
910.108	17459
910.224	17455
910.339	17444
910.454	17425
910.57	17383
910.685	17303
910.8	17444
910.915	17429
911.03	17261
911.145	17280
911.259	17041
911.374	17041
911.489	17025
911.604	16980
911.718	16820
911.833	16820
911.947	16839
912.062	16672
912.176	16816
912.291	16824
912.405	16744
912.519	17018
912.633	16991
912.748	16782
912.862	16706
912.976	16580
913.09	16577
913.204	16592
913.318	16645
913.431	16797
913.545	16641
913.659	16683
913.772	16618
913.886	16436
914	16424
914.113	16504
914.226	16519
914.34	16405
914.453	16371
914.566	16443
914.68	16284
914.793	16188
914.906	16063
915.019	15994
915.132	15991
915.245	15968
915.358	15968
915.47	15911
915.583	15975
915.696	15956
915.809	16067
915.921	16128
916.034	15956
916.146	15838
916.259	15895
916.371	15975
916.483	15857
916.595	15827
916.708	15770
916.82	15816
916.932	15736
917.044	15823
917.156	15641
917.268	15587
917.38	15561
917.491	15614
917.603	15584
917.715	15641
917.826	15717
917.938	15728
918.049	15526
918.161	15557
918.272	15686
918.384	15709
918.495	15587
918.606	15412
918.717	15363
918.828	15378
918.939	15348
919.05	15230
919.161	15237
919.272	15203
919.383	15176
919.494	15462
919.604	15504
919.715	15389
919.826	15169
919.936	15279
920.047	15249
920.157	15321
920.267	15424
920.378	15378
920.488	15222
920.598	15416
920.708	15587
920.818	15416
920.928	15439
921.038	15622
921.148	15534
921.258	15249
921.368	15131
921.477	15077
921.587	15070
921.697	14857
921.806	15009
921.916	14857
922.025	14754
922.134	14823
922.244	14537
922.353	14598
922.462	14571
922.571	14450
922.68	14332
922.789	14259
922.898	14332
923.007	14202
923.116	14313
923.224	14263
923.333	14351
923.442	14103
923.55	14107
923.659	14153
923.767	14107
923.876	14134
923.984	14134
924.092	14035
924.201	14008
924.309	13993
924.417	14012
924.525	13898
924.633	13978
924.741	14705
924.849	13799
924.956	13883
925.064	13628
925.172	13594
925.279	13616
925.387	13674
925.494	13571
925.602	13715
925.709	13662
925.816	13552
925.924	13605
926.031	13620
926.138	13582
926.245	13590
926.352	13487
926.459	13651
926.566	13636
926.673	13422
926.779	13308
926.886	13464
926.993	13228
927.099	13156
927.206	13194
927.312	13084
927.419	13293
927.525	13206
927.631	13259
927.737	13084
927.843	13046
927.95	12890
928.056	13046
928.162	13023
928.267	13076
928.373	13628
928.479	13110
928.585	12837
928.69	12890
928.796	12890
928.901	12886
929.007	12673
929.112	12916
929.218	12840
929.323	12669
929.428	12665
929.533	12806
929.638	12616
929.743	12620
929.848	12635
929.953	12593
930.058	12509
930.163	12410
930.267	12429
930.372	12547
930.477	12399
930.581	12532
930.685	12410
930.79	12243
930.894	12327
930.998	12197
931.103	12369
931.207	11973
931.311	11961
931.415	11855
931.519	11630
931.623	11592
