Data from test_V78500241_208.txt Node
Date: Fri Mar 25 15:43:14 CST 2022
User: usil
Spectrometer: V785-0024
Trigger mode: 0
Integration Time (sec): 4.000000E-1
Scans to average: 1
Nonlinearity correction enabled: false
Boxcar width: 0
Storing dark spectrum: false
XAxis mode: Wavelengths
Number of Pixels in Spectrum: 1024
>>>>>Begin Spectral Data<<<<<
801.071	29551
801.214	29429
801.356	29090
801.499	29159
801.641	28938
801.783	29121
801.926	29208
802.068	29079
802.211	28908
802.353	28968
802.496	28900
802.638	28839
802.78	28626
802.923	28546
803.065	28497
803.208	28538
803.35	28577
803.492	28763
803.635	28888
803.777	28626
803.919	28843
804.061	29155
804.204	28946
804.346	28759
804.488	28710
804.63	28656
804.773	28675
804.915	28839
805.057	28854
805.199	28900
805.341	28976
805.483	28972
805.626	29102
805.768	28896
805.91	28923
806.052	29075
806.194	28812
806.336	29056
806.478	28949
806.62	28923
806.762	28923
806.904	29174
807.046	29528
807.188	29318
807.33	29326
807.472	29471
807.614	29280
807.756	29334
807.898	29056
808.04	29162
808.182	29117
808.324	29060
808.465	29162
808.607	29292
808.749	29433
808.891	29539
809.033	29619
809.174	29615
809.316	29497
809.458	29448
809.6	29478
809.741	29642
809.883	29558
810.025	29786
810.166	29783
810.308	29745
810.45	29707
810.591	29634
810.733	29554
810.875	29402
811.016	29375
811.158	29459
811.299	29615
811.441	29592
811.582	29531
811.724	29417
811.865	29414
812.007	29452
812.148	29516
812.29	29467
812.431	29638
812.573	29866
812.714	29748
812.855	29843
812.997	30079
813.138	30277
813.279	30045
813.421	30114
813.562	29904
813.703	29657
813.845	29718
813.986	29273
814.127	29231
814.268	28957
814.41	29159
814.551	29166
814.692	29029
814.833	29060
814.974	28999
815.115	29052
815.256	28915
815.397	29029
815.539	28896
815.68	28904
815.821	28744
815.962	28786
816.103	28938
816.244	28698
816.385	28504
816.526	28641
816.666	28333
816.807	28131
816.948	28284
817.089	28363
817.23	28386
817.371	28322
817.512	28204
817.653	28310
817.793	28211
817.934	28238
818.075	28200
818.216	28276
818.356	28158
818.497	28101
818.638	27861
818.778	27964
818.919	28048
819.06	28082
819.2	28109
819.341	28135
819.481	28105
819.622	28219
819.762	28618
819.903	28306
820.043	28398
820.184	28261
820.324	28348
820.465	28356
820.605	28314
820.746	28375
820.886	27968
821.026	28280
821.167	28276
821.307	28371
821.447	28101
821.588	27964
821.728	27991
821.868	27755
822.008	27622
822.149	27542
822.289	27599
822.429	27249
822.569	27367
822.709	27355
822.849	27272
822.99	27043
823.13	27070
823.27	26937
823.41	26937
823.55	26739
823.69	26975
823.83	26800
823.97	26800
824.11	26689
824.25	26758
824.389	26678
824.529	26613
824.669	26629
824.809	26693
824.949	26754
825.089	26739
825.228	26663
825.368	26465
825.508	26621
825.648	26541
825.787	26495
825.927	26587
826.067	26621
826.206	26556
826.346	26518
826.485	26564
826.625	26526
826.765	26522
826.904	26453
827.044	26317
827.183	26305
827.323	26081
827.462	26187
827.601	26183
827.741	26161
827.88	26115
828.02	26008
828.159	26138
828.298	26092
828.437	26195
828.577	26134
828.716	26218
828.855	25906
828.994	25780
829.134	25909
829.273	25875
829.412	25727
829.551	25830
829.69	25753
829.829	25932
829.968	25921
830.107	25947
830.246	25826
830.385	25704
830.524	25807
830.663	25685
830.802	25419
830.941	25377
831.08	25362
831.219	25350
831.357	25525
831.496	25575
831.635	25301
831.774	25240
831.913	25221
832.051	25152
832.19	25168
832.329	25145
832.467	25133
832.606	24992
832.744	24985
832.883	25084
833.022	24985
833.16	25023
833.299	25042
833.437	25095
833.576	25168
833.714	25046
833.852	25198
833.991	25110
834.129	25145
834.267	25084
834.406	25069
834.544	24992
834.682	25053
834.821	24924
834.959	25145
835.097	24837
835.235	24996
835.373	24939
835.511	24962
835.65	24852
835.788	24787
835.926	24711
836.064	24734
836.202	24646
836.34	24970
836.478	24962
836.615	24757
836.753	24856
836.891	24837
837.029	24837
837.167	24806
837.305	24817
837.443	24760
837.58	24806
837.718	24768
837.856	24566
837.993	24536
838.131	24677
838.269	24513
838.406	24578
838.544	24517
838.681	24342
838.819	24273
838.956	23939
839.094	24060
839.231	23969
839.369	24311
839.506	24407
839.643	24273
839.781	24015
839.918	24026
840.055	24049
840.193	23961
840.33	23950
840.467	23882
840.604	23893
840.742	24323
840.879	23908
841.016	23893
841.153	23885
841.29	24030
841.427	23942
841.564	23950
841.701	23855
841.838	23813
841.975	23874
842.112	23874
842.249	23745
842.385	23699
842.522	23916
842.659	23737
842.796	23661
842.933	23657
843.069	23501
843.206	23455
843.343	23733
843.479	23756
843.616	23699
843.752	23337
843.889	23501
844.025	23520
844.162	23360
844.298	23570
844.435	23433
844.571	23391
844.708	23440
844.844	23554
844.98	23592
845.117	23490
845.253	23284
845.389	23288
845.525	23334
845.661	23254
845.798	23067
845.934	23239
846.07	23288
846.206	23090
846.342	23242
846.478	22999
846.614	22877
846.75	22771
846.886	22771
847.022	22889
847.158	22843
847.294	22812
847.429	22850
847.565	22744
847.701	23071
847.837	22615
847.972	22508
848.108	22618
848.244	22550
848.379	22341
848.515	22390
848.65	22318
848.786	22276
848.921	22352
849.057	22413
849.192	22405
849.328	22360
849.463	22398
849.598	22329
849.734	22329
849.869	22158
850.004	22116
850.14	22211
850.275	22139
850.41	22006
850.545	21960
850.68	22143
850.815	22120
850.95	22067
851.085	22318
851.22	22238
851.355	22166
851.49	22048
851.625	21998
851.76	22150
851.895	21934
852.03	22021
852.165	22105
852.299	22177
852.434	22196
852.569	22139
852.703	22124
852.838	22135
852.973	22272
853.107	22219
853.242	22025
853.376	22010
853.511	21850
853.645	21972
853.78	22006
853.914	21778
854.048	21831
854.183	21983
854.317	21888
854.451	22051
854.585	21892
854.72	21865
854.854	21994
854.988	21865
855.122	21789
855.256	21831
855.39	21838
855.524	21888
855.658	21972
855.792	21968
855.926	21937
856.06	21907
856.194	21956
856.327	21869
856.461	21827
856.595	21717
856.729	21869
856.862	22090
856.996	21926
857.13	21960
857.263	22006
857.397	21983
857.53	21854
857.664	21899
857.797	22010
857.931	21987
858.064	21930
858.197	21930
858.331	21850
858.464	21797
858.597	21835
858.731	21831
858.864	21892
858.997	21831
859.13	21819
859.263	21949
859.396	21930
859.529	21770
859.662	21736
859.795	21827
859.928	21819
860.061	21876
860.194	22131
860.327	21762
860.46	21857
860.592	22025
860.725	22002
860.858	21987
860.99	21797
861.123	21842
861.256	21823
861.388	21857
861.521	22512
861.653	21720
861.786	21690
861.918	21736
862.05	21759
862.183	21675
862.315	21922
862.447	21960
862.58	21964
862.712	21637
862.844	21583
862.976	21603
863.108	21599
863.24	21937
863.372	21439
863.504	21564
863.636	21488
863.768	21583
863.9	21549
864.032	21462
864.164	21458
864.296	21511
864.428	21603
864.559	21652
864.691	21549
864.823	21538
864.954	21545
865.086	21545
865.217	21530
865.349	21207
865.48	21397
865.612	21466
865.743	21454
865.875	21431
866.006	21344
866.137	21428
866.269	21447
866.4	21405
866.531	21408
866.662	21374
866.793	21359
866.924	21450
867.055	21382
867.186	21302
867.317	21230
867.448	21302
867.579	21317
867.71	21252
867.841	21268
867.972	21306
868.103	21123
868.233	21294
868.364	21298
868.495	21363
868.625	21553
868.756	21599
868.886	21504
869.017	21564
869.147	21686
869.278	21785
869.408	21591
869.539	21511
869.669	21576
869.799	21603
869.929	21625
870.06	21720
870.19	21934
870.32	21945
870.45	21857
870.58	21991
870.71	22063
870.84	22051
870.97	21895
871.1	21991
871.23	22010
871.36	22207
871.489	22120
871.619	22067
871.749	22185
871.879	22177
872.008	22314
872.138	22265
872.267	22276
872.397	22124
872.526	21937
872.656	21998
872.785	22036
872.915	22177
873.044	22230
873.173	22082
873.303	22322
873.432	22306
873.561	22265
873.69	22207
873.819	22109
873.948	22291
874.077	22131
874.206	22265
874.335	22226
874.464	22295
874.593	22447
874.722	22188
874.851	22508
874.979	22421
875.108	22447
875.237	22455
875.365	22394
875.494	22394
875.623	22440
875.751	22363
875.88	22360
876.008	22580
876.136	22584
876.265	22782
876.393	22919
876.521	22858
876.65	22839
876.778	22717
876.906	22885
877.034	22866
877.162	22729
877.29	22683
877.418	22641
877.546	22752
877.674	22744
877.802	22736
877.93	22873
878.058	22611
878.185	22538
878.313	22759
878.441	22679
878.568	22550
878.696	22645
878.824	22820
878.951	22793
879.079	23010
879.206	23071
879.333	22877
879.461	22725
879.588	22869
879.715	23094
879.842	23044
879.97	22805
880.097	22679
880.224	22565
880.351	22599
880.478	22698
880.605	22497
880.732	22557
880.859	22790
880.986	22538
881.112	22573
881.239	22394
881.366	22386
881.493	22246
881.619	22169
881.746	22109
881.872	22158
881.999	22173
882.125	22070
882.252	22112
882.378	22211
882.505	22352
882.631	22078
882.757	21857
882.883	21964
883.01	21861
883.136	21949
883.262	21671
883.388	21717
883.514	21762
883.64	21930
883.766	21686
883.892	21705
884.018	21671
884.143	21857
884.269	21884
884.395	21625
884.52	21481
884.646	21507
884.772	21458
884.897	21485
885.023	21526
885.148	21622
885.274	21648
885.399	21572
885.524	21447
885.65	21443
885.775	21515
885.9	21462
886.025	21580
886.15	21572
886.275	21439
886.4	21272
886.525	21359
886.65	21374
886.775	21431
886.9	21660
887.025	21705
887.149	21450
887.274	21325
887.399	21275
887.523	21272
887.648	21195
887.773	21142
887.897	21382
888.021	21233
888.146	21199
888.27	21241
888.395	21272
888.519	21199
888.643	21249
888.767	21313
888.891	21020
889.015	21009
889.139	20986
889.263	20937
889.387	21123
889.511	21188
889.635	21039
889.759	20880
889.883	20944
890.006	21089
890.13	21108
890.254	20986
890.377	20979
890.501	20765
890.624	20644
890.748	20807
890.871	20629
890.995	20575
891.118	20533
891.241	20560
891.364	20571
891.488	20716
891.611	20511
891.734	20613
891.857	20609
891.98	20602
892.103	20655
892.226	20621
892.349	20552
892.471	20366
892.594	20484
892.717	20564
892.839	20469
892.962	20507
893.085	20575
893.207	20469
893.33	20423
893.452	20362
893.575	20590
893.697	20282
893.819	20644
893.941	20651
894.064	20655
894.186	20400
894.308	20358
894.43	20644
894.552	20609
894.674	20632
894.796	20366
894.918	20393
895.04	20454
895.161	20530
895.283	20545
895.405	20355
895.526	20446
895.648	20431
895.769	20503
895.891	20522
896.012	20499
896.134	20530
896.255	20514
896.376	20522
896.498	20495
896.619	20606
896.74	20469
896.861	20583
896.982	20895
897.103	21005
897.224	20708
897.345	20727
897.466	20708
897.587	20686
897.708	20861
897.828	20735
897.949	20632
898.07	20514
898.19	20522
898.311	20727
898.431	20712
898.552	20686
898.672	20754
898.792	20804
898.913	20621
899.033	20545
899.153	20381
899.273	20347
899.393	20381
899.513	20374
899.633	20438
899.753	20313
899.873	20263
899.993	20412
900.113	20210
900.232	20275
900.352	20301
900.472	20229
900.591	20050
900.711	20202
900.83	20058
900.95	20271
901.069	20187
901.189	19978
901.308	19814
901.427	19742
901.546	19734
901.665	19757
901.784	19696
901.904	19658
902.023	19548
902.141	19304
902.26	19187
902.379	19289
902.498	19187
902.617	19183
902.735	19324
902.854	19244
902.973	19076
903.091	18943
903.21	18749
903.328	18764
903.446	18939
903.565	18726
903.683	18661
903.801	18589
903.919	18654
904.038	18741
904.156	18391
904.274	18570
904.392	18433
904.51	18380
904.627	18399
904.745	18475
904.863	18407
904.981	18121
905.098	18060
905.216	18136
905.334	18087
905.451	18235
905.569	18110
905.686	18049
905.803	18106
905.921	17821
906.038	18011
906.155	17847
906.272	17748
906.389	17760
906.506	17714
906.623	17642
906.74	17573
906.857	17486
906.974	17570
907.091	17695
907.208	17726
907.324	17695
907.441	17573
907.557	17433
907.674	17368
907.79	17296
907.907	17311
908.023	17410
908.139	17326
908.256	17273
908.372	17284
908.488	17212
908.604	17006
908.72	16938
908.836	17033
908.952	16953
909.068	17086
909.184	17109
909.3	17006
909.415	17113
909.531	16919
909.647	16744
909.762	16569
909.878	16694
909.993	16733
910.108	16668
910.224	16694
910.339	16626
910.454	16489
910.57	16478
910.685	16447
910.8	16668
910.915	16615
911.03	16436
911.145	16329
911.259	16337
911.374	16325
911.489	16219
911.604	16192
911.718	16017
911.833	16029
911.947	15972
912.062	15816
912.176	16051
912.291	15998
912.405	16013
912.519	16242
912.633	16086
912.748	15975
912.862	16071
912.976	15747
913.09	15694
913.204	15720
913.318	15747
913.431	15953
913.545	15907
913.659	15892
913.772	15785
913.886	15747
914	15603
914.113	15652
914.226	15656
914.34	15682
914.453	15542
914.566	15660
914.68	15542
914.793	15397
914.906	15340
915.019	15119
915.132	15264
915.245	15211
915.358	15313
915.47	15233
915.583	15317
915.696	15268
915.809	15233
915.921	15321
916.034	15226
916.146	15081
916.259	15062
916.371	15150
916.483	15199
916.595	15036
916.708	15001
916.82	14998
916.932	15028
917.044	14982
917.156	15020
917.268	14830
917.38	14918
917.491	14834
917.603	14834
917.715	14842
917.826	14960
917.938	14785
918.049	14731
918.161	14823
918.272	14895
918.384	14960
918.495	14773
918.606	14796
918.717	14511
918.828	14682
918.939	14693
919.05	14503
919.161	14617
919.272	14389
919.383	14389
919.494	14636
919.604	14819
919.715	14598
919.826	14434
919.936	14492
920.047	14590
920.157	14465
920.267	14765
920.378	14533
920.488	14568
920.598	14727
920.708	14792
920.818	14712
920.928	14762
921.038	14826
921.148	14769
921.258	14469
921.368	14400
921.477	14309
921.587	14355
921.697	14180
921.806	14320
921.916	14111
922.025	14084
922.134	13974
922.244	13822
922.353	13879
922.462	13750
922.571	13731
922.68	13559
922.789	13525
922.898	13552
923.007	13441
923.116	13586
923.224	13518
923.333	13552
923.442	13400
923.55	13316
923.659	13499
923.767	13384
923.876	13255
923.984	13354
924.092	13331
924.201	13278
924.309	13327
924.417	13331
924.525	13236
924.633	13244
924.741	13921
924.849	12966
924.956	13095
925.064	13008
925.172	12890
925.279	12993
925.387	12981
925.494	12935
925.602	13107
925.709	12951
925.816	12867
925.924	12928
926.031	12920
926.138	12958
926.245	12867
926.352	12837
926.459	12882
926.566	12958
926.673	12806
926.779	12707
926.886	12734
926.993	12566
927.099	12494
927.206	12532
927.312	12460
927.419	12544
927.525	12540
927.631	12536
927.737	12399
927.843	12410
927.95	12194
928.056	12330
928.162	12410
928.267	12342
928.373	12996
928.479	12384
928.585	12095
928.69	12235
928.796	12388
928.901	12216
929.007	12106
929.112	12216
929.218	12213
929.323	12022
929.428	12007
929.533	12186
929.638	11920
929.743	11950
929.848	11984
929.953	11931
930.058	11908
930.163	11737
930.267	11748
930.372	11843
930.477	11611
930.581	11942
930.685	11783
930.79	11535
930.894	11649
930.998	11577
931.103	11771
931.207	11383
931.311	11277
931.415	11128
931.519	10961
931.623	10972
