Data from test_V78500241_2886.txt Node
Date: Fri Mar 25 16:01:47 CST 2022
User: usil
Spectrometer: V785-0024
Trigger mode: 0
Integration Time (sec): 4.000000E-1
Scans to average: 1
Nonlinearity correction enabled: false
Boxcar width: 0
Storing dark spectrum: false
XAxis mode: Wavelengths
Number of Pixels in Spectrum: 1024
>>>>>Begin Spectral Data<<<<<
801.071	28630
801.214	28641
801.356	28398
801.499	28489
801.641	28242
801.783	28223
801.926	28443
802.068	28325
802.211	28242
802.353	27914
802.496	28006
802.638	27998
802.78	27800
802.923	27964
803.065	27907
803.208	27975
803.35	27907
803.492	28128
803.635	28173
803.777	28051
803.919	28268
804.061	28466
804.204	28333
804.346	28162
804.488	28055
804.63	28109
804.773	28147
804.915	28234
805.057	28451
805.199	28150
805.341	28265
805.483	28341
805.626	28382
805.768	28318
805.91	28447
806.052	28333
806.194	28246
806.336	28561
806.478	28310
806.62	28280
806.762	28557
806.904	28793
807.046	28908
807.188	28782
807.33	28904
807.472	28793
807.614	28885
807.756	28881
807.898	28645
808.04	28694
808.182	28653
808.324	28668
808.465	28793
808.607	28805
808.749	28984
808.891	29185
809.033	29261
809.174	29242
809.316	28949
809.458	29147
809.6	29014
809.741	29162
809.883	29341
810.025	29395
810.166	29292
810.308	29288
810.45	29269
810.591	29200
810.733	29090
810.875	29109
811.016	29037
811.158	28927
811.299	29193
811.441	29193
811.582	29124
811.724	29189
811.865	28980
812.007	28980
812.148	29067
812.29	29060
812.431	29242
812.573	29375
812.714	29459
812.855	29687
812.997	29737
813.138	29809
813.279	29767
813.421	29615
813.562	29448
813.703	29539
813.845	29326
813.986	29132
814.127	28885
814.268	28892
814.41	28904
814.551	28713
814.692	28759
814.833	28691
814.974	28782
815.115	28645
815.256	28596
815.397	28641
815.539	28504
815.68	28561
815.821	28527
815.962	28504
816.103	28542
816.244	28550
816.385	28401
816.526	28333
816.666	28082
816.807	28173
816.948	28188
817.089	28303
817.23	28090
817.371	27941
817.512	28021
817.653	28002
817.793	27937
817.934	28017
818.075	28013
818.216	28021
818.356	27907
818.497	27880
818.638	27751
818.778	27736
818.919	27911
819.06	27854
819.2	27975
819.341	28109
819.481	28154
819.622	28333
819.762	28596
819.903	28375
820.043	28265
820.184	28242
820.324	28105
820.465	28215
820.605	28173
820.746	28268
820.886	28200
821.026	28192
821.167	28124
821.307	28207
821.447	28257
821.588	28048
821.728	27838
821.868	27842
822.008	27561
822.149	27557
822.289	27534
822.429	27321
822.569	27249
822.709	27165
822.849	27123
822.99	27043
823.13	27074
823.27	27001
823.41	26910
823.55	26777
823.69	26895
823.83	26925
823.97	26887
824.11	26697
824.25	26629
824.389	26682
824.529	26815
824.669	26659
824.809	26785
824.949	26880
825.089	26807
825.228	26746
825.368	26579
825.508	26495
825.648	26640
825.787	26606
825.927	26663
826.067	26511
826.206	26552
826.346	26537
826.485	26697
826.625	26571
826.765	26632
826.904	26739
827.044	26393
827.183	26476
827.323	26290
827.462	26286
827.601	26374
827.741	26355
827.88	26324
828.02	26225
828.159	26263
828.298	26282
828.437	26301
828.577	26172
828.716	26309
828.855	26210
828.994	26043
829.134	26103
829.273	26020
829.412	25921
829.551	25875
829.69	25970
829.829	26202
829.968	26134
830.107	26039
830.246	26016
830.385	26062
830.524	25921
830.663	25928
830.802	25761
830.941	25586
831.08	25605
831.219	25647
831.357	25647
831.496	25845
831.635	25712
831.774	25643
831.913	25502
832.051	25365
832.19	25278
832.329	25430
832.467	25438
832.606	25285
832.744	25236
832.883	25168
833.022	25396
833.16	25263
833.299	25343
833.437	25358
833.576	25441
833.714	25308
833.852	25255
833.991	25339
834.129	25415
834.267	25468
834.406	25301
834.544	25339
834.682	25350
834.821	25369
834.959	25521
835.097	25247
835.235	25419
835.373	25415
835.511	25304
835.65	25255
835.788	25183
835.926	25141
836.064	25042
836.202	25019
836.34	25308
836.478	25179
836.615	25076
836.753	25263
836.891	25289
837.029	25304
837.167	25152
837.305	24992
837.443	25046
837.58	25000
837.718	25168
837.856	25133
837.993	24920
838.131	25019
838.269	24837
838.406	24947
838.544	24783
838.681	24559
838.819	24677
838.956	24521
839.094	24494
839.231	24601
839.369	24661
839.506	24787
839.643	24578
839.781	24441
839.918	24391
840.055	24384
840.193	24391
840.33	24388
840.467	24308
840.604	24418
840.742	24635
840.879	24323
841.016	24281
841.153	24380
841.29	24536
841.427	24338
841.564	24369
841.701	24304
841.838	24334
841.975	24270
842.112	24338
842.249	24300
842.385	24197
842.522	24350
842.659	24213
842.796	24087
842.933	24155
843.069	24121
843.206	24152
843.343	24125
843.479	24205
843.616	24129
843.752	23984
843.889	23931
844.025	24045
844.162	23893
844.298	23961
844.435	24015
844.571	23984
844.708	23885
844.844	24079
844.98	24018
845.117	23996
845.253	23779
845.389	23710
845.525	23851
845.661	23760
845.798	23611
845.934	23764
846.07	23623
846.206	23691
846.342	23687
846.478	23665
846.614	23326
846.75	23311
846.886	23372
847.022	23486
847.158	23307
847.294	23391
847.429	23376
847.565	23398
847.701	23592
847.837	23189
847.972	23044
848.108	23151
848.244	23204
848.379	22938
848.515	22881
848.65	22889
848.786	22938
848.921	22843
849.057	22991
849.192	22946
849.328	22965
849.463	22896
849.598	22968
849.734	22908
849.869	22831
850.004	22866
850.14	22839
850.275	22793
850.41	22535
850.545	22687
850.68	22641
850.815	22641
850.95	22641
851.085	22877
851.22	22896
851.355	22672
851.49	22656
851.625	22778
851.76	22687
851.895	22550
852.03	22694
852.165	22752
852.299	22675
852.434	22710
852.569	22752
852.703	22675
852.838	22755
852.973	22862
853.107	22957
853.242	22664
853.376	22607
853.511	22398
853.645	22569
853.78	22630
853.914	22573
854.048	22519
854.183	22508
854.317	22611
854.451	22645
854.585	22481
854.72	22565
854.854	22668
854.988	22519
855.122	22481
855.256	22504
855.39	22512
855.524	22649
855.658	22573
855.792	22519
855.926	22588
856.06	22615
856.194	22550
856.327	22402
856.461	22451
856.595	22428
856.729	22580
856.862	22634
856.996	22516
857.13	22653
857.263	22729
857.397	22634
857.53	22557
857.664	22565
857.797	22603
857.931	22660
858.064	22493
858.197	22748
858.331	22569
858.464	22546
858.597	22481
858.731	22660
858.864	22489
858.997	22504
859.13	22489
859.263	22573
859.396	22611
859.529	22447
859.662	22565
859.795	22519
859.928	22569
860.061	22565
860.194	22706
860.327	22565
860.46	22519
860.592	22622
860.725	22634
860.858	22622
860.99	22470
861.123	22493
861.256	22489
861.388	22527
861.521	23258
861.653	22386
861.786	22402
861.918	22322
862.05	22280
862.183	22409
862.315	22462
862.447	22577
862.58	22432
862.712	22223
862.844	22238
862.976	22344
863.108	22226
863.24	22653
863.372	22166
863.504	22287
863.636	22242
863.768	22329
863.9	22169
864.032	22181
864.164	22154
864.296	22226
864.428	22382
864.559	22234
864.691	22207
864.823	22318
864.954	22295
865.086	22200
865.217	22162
865.349	22055
865.48	21998
865.612	22029
865.743	22215
865.875	22006
866.006	22101
866.137	22200
866.269	22078
866.4	21998
866.531	22063
866.662	22063
866.793	22032
866.924	22067
867.055	22074
867.186	21960
867.317	21956
867.448	21968
867.579	21972
867.71	21926
867.841	21979
867.972	22059
868.103	21956
868.233	22067
868.364	22013
868.495	22116
868.625	22291
868.756	22405
868.886	22166
869.017	22257
869.147	22398
869.278	22329
869.408	22299
869.539	22265
869.669	22394
869.799	22341
869.929	22363
870.06	22402
870.19	22561
870.32	22466
870.45	22653
870.58	22710
870.71	22729
870.84	22782
870.97	22740
871.1	22668
871.23	22816
871.36	22767
871.489	22752
871.619	22793
871.749	22889
871.879	22946
872.008	23018
872.138	22869
872.267	22942
872.397	22679
872.526	22592
872.656	22687
872.785	22725
872.915	22839
873.044	22949
873.173	22816
873.303	22999
873.432	22812
873.561	22953
873.69	22877
873.819	22927
873.948	23029
874.077	22927
874.206	22778
874.335	23003
874.464	23041
874.593	23025
874.722	23086
874.851	23147
874.979	23162
875.108	23117
875.237	23010
875.365	23056
875.494	23151
875.623	23079
875.751	23094
875.88	23174
876.008	23193
876.136	23307
876.265	23531
876.393	23581
876.521	23379
876.65	23600
876.778	23433
876.906	23421
877.034	23524
877.162	23524
877.29	23341
877.418	23395
877.546	23417
877.674	23410
877.802	23562
877.93	23444
878.058	23455
878.185	23265
878.313	23425
878.441	23467
878.568	23364
878.696	23440
878.824	23535
878.951	23596
879.079	23627
879.206	23786
879.333	23623
879.461	23474
879.588	23665
879.715	23665
879.842	23726
879.97	23509
880.097	23311
880.224	23280
880.351	23345
880.478	23273
880.605	23204
880.732	23311
880.859	23353
880.986	23315
881.112	23151
881.239	23140
881.366	23052
881.493	23014
881.619	22866
881.746	22934
881.872	22812
881.999	22778
882.125	22767
882.252	22919
882.378	22866
882.505	22809
882.631	22805
882.757	22702
882.883	22649
883.01	22459
883.136	22459
883.262	22485
883.388	22322
883.514	22500
883.64	22634
883.766	22291
883.892	22276
884.018	22367
884.143	22455
884.269	22489
884.395	22204
884.52	22025
884.646	22249
884.772	22204
884.897	22147
885.023	22238
885.148	22265
885.274	22261
885.399	22287
885.524	22150
885.65	22257
885.775	22150
885.9	22105
886.025	22200
886.15	22230
886.275	22147
886.4	21972
886.525	22105
886.65	22082
886.775	22029
886.9	22284
887.025	22318
887.149	22105
887.274	21903
887.399	21922
887.523	21857
887.648	21873
887.773	21869
887.897	21800
888.021	21972
888.146	21865
888.27	21861
888.395	21899
888.519	21987
888.643	21808
888.767	21937
888.891	21892
889.015	21671
889.139	21861
889.263	21622
889.387	21774
889.511	21819
889.635	21930
889.759	21644
889.883	21561
890.006	21728
890.13	21660
890.254	21614
890.377	21572
890.501	21526
890.624	21408
890.748	21450
890.871	21264
890.995	21252
891.118	21203
891.241	21249
891.364	21268
891.488	21405
891.611	21218
891.734	21329
891.857	21294
891.98	21211
892.103	21214
892.226	21279
892.349	21169
892.471	21032
892.594	21085
892.717	21077
892.839	21116
892.962	21192
893.085	21272
893.207	21222
893.33	21051
893.452	21066
893.575	21233
893.697	21089
893.819	21298
893.941	21374
894.064	21340
894.186	21093
894.308	20902
894.43	21272
894.552	21173
894.674	21173
894.796	21020
894.918	21195
895.04	21024
895.161	21184
895.283	21211
895.405	20902
895.526	21055
895.648	21001
895.769	21199
895.891	21180
896.012	21093
896.134	21150
896.255	21077
896.376	21058
896.498	21142
896.619	21024
896.74	21081
896.861	21131
896.982	21454
897.103	21622
897.224	21173
897.345	21230
897.466	21298
897.587	21256
897.708	21458
897.828	21317
897.949	21241
898.07	21131
898.19	21211
898.311	21412
898.431	21291
898.552	21348
898.672	21306
898.792	21431
898.913	21184
899.033	21252
899.153	21081
899.273	20963
899.393	21055
899.513	21112
899.633	21123
899.753	20956
899.873	20967
899.993	21089
900.113	20952
900.232	20986
900.352	20967
900.472	20819
900.591	20750
900.711	20788
900.83	20754
900.95	20887
901.069	20899
901.189	20636
901.308	20415
901.427	20358
901.546	20317
901.665	20370
901.784	20358
901.904	20206
902.023	20081
902.141	20065
902.26	19944
902.379	19921
902.498	19982
902.617	19837
902.735	19890
902.854	19841
902.973	19841
903.091	19525
903.21	19571
903.328	19540
903.446	19567
903.565	19350
903.683	19316
903.801	19213
903.919	19263
904.038	19122
904.156	19126
904.274	19164
904.392	19015
904.51	19095
904.627	18993
904.745	19076
904.863	19046
904.981	18886
905.098	18833
905.216	18783
905.334	18707
905.451	18734
905.569	18722
905.686	18760
905.803	18703
905.921	18525
906.038	18635
906.155	18585
906.272	18502
906.389	18486
906.506	18308
906.623	18376
906.74	18292
906.857	18186
906.974	18133
907.091	18361
907.208	18277
907.324	18365
907.441	18133
907.557	17996
907.674	18026
907.79	17912
907.907	17920
908.023	18098
908.139	17927
908.256	17904
908.372	17805
908.488	18007
908.604	17745
908.72	17737
908.836	17672
908.952	17741
909.068	17764
909.184	17665
909.3	17760
909.415	17695
909.531	17699
909.647	17497
909.762	17410
909.878	17452
909.993	17455
910.108	17372
910.224	17326
910.339	17292
910.454	17292
910.57	17216
910.685	17109
910.8	17387
910.915	17307
911.03	17136
911.145	17113
911.259	17010
911.374	16995
911.489	16942
911.604	16831
911.718	16611
911.833	16698
911.947	16672
912.062	16527
912.176	16702
912.291	16592
912.405	16649
912.519	16767
912.633	16953
912.748	16809
912.862	16675
912.976	16516
913.09	16519
913.204	16500
913.318	16451
913.431	16694
913.545	16554
913.659	16493
913.772	16455
913.886	16428
914	16303
914.113	16409
914.226	16363
914.34	16394
914.453	16322
914.566	16367
914.68	16181
914.793	16143
914.906	16013
915.019	15766
915.132	15778
915.245	15846
915.358	15888
915.47	15827
915.583	15869
915.696	15903
915.809	15968
915.921	15964
916.034	15865
916.146	15755
916.259	15690
916.371	15831
916.483	15884
916.595	15667
916.708	15671
916.82	15747
916.932	15641
917.044	15660
917.156	15603
917.268	15534
917.38	15534
917.491	15534
917.603	15561
917.715	15572
917.826	15564
917.938	15542
918.049	15359
918.161	15447
918.272	15610
918.384	15648
918.495	15416
918.606	15302
918.717	15230
918.828	15241
918.939	15256
919.05	15112
919.161	15268
919.272	15142
919.383	15055
919.494	15252
919.604	15344
919.715	15249
919.826	15131
919.936	15260
920.047	15260
920.157	15218
920.267	15264
920.378	15180
920.488	15188
920.598	15329
920.708	15420
920.818	15359
920.928	15405
921.038	15435
921.148	15389
921.258	15112
921.368	15051
921.477	14887
921.587	14941
921.697	14743
921.806	14899
921.916	14807
922.025	14583
922.134	14541
922.244	14545
922.353	14511
922.462	14404
922.571	14434
922.68	14191
922.789	14134
922.898	14225
923.007	14107
923.116	14195
923.224	14138
923.333	14092
923.442	14035
923.55	14050
923.659	14039
923.767	14103
923.876	13906
923.984	14016
924.092	13871
924.201	13913
924.309	13902
924.417	13898
924.525	13852
924.633	13917
924.741	14788
924.849	13632
924.956	13780
925.064	13495
925.172	13563
925.279	13476
925.387	13510
925.494	13651
925.602	13666
925.709	13582
925.816	13407
925.924	13472
926.031	13616
926.138	13537
926.245	13537
926.352	13449
926.459	13605
926.566	13518
926.673	13411
926.779	13270
926.886	13240
926.993	13137
927.099	13190
927.206	13133
927.312	13042
927.419	13149
927.525	13118
927.631	13065
927.737	12939
927.843	12901
927.95	12852
928.056	12932
928.162	12977
928.267	13046
928.373	13567
928.479	12935
928.585	12681
928.69	12817
928.796	12886
928.901	12719
929.007	12681
929.112	12852
929.218	12688
929.323	12711
929.428	12646
929.533	12760
929.638	12494
929.743	12551
929.848	12658
929.953	12597
930.058	12445
930.163	12304
930.267	12266
930.372	12384
930.477	12266
930.581	12506
930.685	12384
930.79	12182
930.894	12167
930.998	12178
931.103	12251
931.207	11958
931.311	11809
931.415	11752
931.519	11490
931.623	11604
