Data from test_V78500241_2267.txt Node
Date: Fri Mar 25 15:57:30 CST 2022
User: usil
Spectrometer: V785-0024
Trigger mode: 0
Integration Time (sec): 4.000000E-1
Scans to average: 1
Nonlinearity correction enabled: false
Boxcar width: 0
Storing dark spectrum: false
XAxis mode: Wavelengths
Number of Pixels in Spectrum: 1024
>>>>>Begin Spectral Data<<<<<
801.071	29383
801.214	29261
801.356	29147
801.499	29136
801.641	28824
801.783	28965
801.926	29037
802.068	28858
802.211	28866
802.353	28824
802.496	28721
802.638	28706
802.78	28550
802.923	28538
803.065	28516
803.208	28428
803.35	28626
803.492	28801
803.635	28801
803.777	28725
803.919	28888
804.061	29159
804.204	28862
804.346	28805
804.488	28740
804.63	28839
804.773	28896
804.915	29033
805.057	29010
805.199	28904
805.341	28858
805.483	29018
805.626	29083
805.768	28904
805.91	28999
806.052	29029
806.194	28965
806.336	29147
806.478	28995
806.62	28995
806.762	29181
806.904	29459
807.046	29596
807.188	29535
807.33	29600
807.472	29524
807.614	29474
807.756	29452
807.898	29395
808.04	29334
808.182	29307
808.324	29459
808.465	29429
808.607	29577
808.749	29798
808.891	29821
809.033	29931
809.174	29874
809.316	29783
809.458	29764
809.6	29710
809.741	29901
809.883	29821
810.025	30076
810.166	29999
810.308	30064
810.45	30079
810.591	29897
810.733	29893
810.875	29638
811.016	29665
811.158	29619
811.299	29977
811.441	29984
811.582	29992
811.724	29786
811.865	29718
812.007	29805
812.148	29843
812.29	29767
812.431	29992
812.573	30087
812.714	30133
812.855	30292
812.997	30338
813.138	30479
813.279	30353
813.421	30300
813.562	30216
813.703	30182
813.845	30011
813.986	29790
814.127	29581
814.268	29695
814.41	29566
814.551	29516
814.692	29531
814.833	29337
814.974	29509
815.115	29421
815.256	29353
815.397	29364
815.539	29406
815.68	29353
815.821	29250
815.962	29391
816.103	29326
816.244	29200
816.385	29250
816.526	29140
816.666	29025
816.807	28839
816.948	28847
817.089	28957
817.23	28805
817.371	28839
817.512	28797
817.653	28915
817.793	28793
817.934	28706
818.075	28835
818.216	28854
818.356	28713
818.497	28725
818.638	28470
818.778	28550
818.919	28615
819.06	28618
819.2	28641
819.341	28968
819.481	28881
819.622	29014
819.762	29239
819.903	29056
820.043	29071
820.184	28927
820.324	28976
820.465	29109
820.605	28972
820.746	28938
820.886	28862
821.026	28888
821.167	28923
821.307	28877
821.447	28835
821.588	28873
821.728	28626
821.868	28478
822.008	28310
822.149	28246
822.289	28223
822.429	27991
822.569	28017
822.709	28063
822.849	27778
822.99	27903
823.13	27762
823.27	27865
823.41	27641
823.55	27504
823.69	27762
823.83	27610
823.97	27629
824.11	27458
824.25	27420
824.389	27408
824.529	27610
824.669	27534
824.809	27644
824.949	27561
825.089	27660
825.228	27504
825.368	27393
825.508	27401
825.648	27332
825.787	27458
825.927	27462
826.067	27256
826.206	27260
826.346	27534
826.485	27329
826.625	27325
826.765	27481
826.904	27370
827.044	27233
827.183	27199
827.323	27070
827.462	26990
827.601	27058
827.741	26998
827.88	27123
828.02	26971
828.159	27096
828.298	27131
828.437	26914
828.577	27009
828.716	27096
828.855	26914
828.994	26933
829.134	26731
829.273	26686
829.412	26686
829.551	26739
829.69	26868
829.829	26891
829.968	26887
830.107	26842
830.246	26762
830.385	26632
830.524	26644
830.663	26556
830.802	26511
830.941	26503
831.08	26233
831.219	26480
831.357	26469
831.496	26743
831.635	26290
831.774	26377
831.913	26275
832.051	26119
832.19	26100
832.329	26191
832.467	26027
832.606	25974
832.744	26031
832.883	26024
833.022	26016
833.16	26122
833.299	26073
833.437	25970
833.576	26122
833.714	26103
833.852	26107
833.991	26149
834.129	26301
834.267	26096
834.406	26130
834.544	26218
834.682	26081
834.821	26031
834.959	26100
835.097	26027
835.235	26164
835.373	26050
835.511	26126
835.65	26050
835.788	25837
835.926	25742
836.064	25822
836.202	25674
836.34	25970
836.478	26062
836.615	25894
836.753	25875
836.891	25986
837.029	25852
837.167	25833
837.305	25822
837.443	25727
837.58	25696
837.718	25738
837.856	25822
837.993	25658
838.131	25765
838.269	25499
838.406	25556
838.544	25582
838.681	25449
838.819	25457
838.956	25263
839.094	25209
839.231	25327
839.369	25457
839.506	25582
839.643	25483
839.781	25171
839.918	25118
840.055	25103
840.193	25012
840.33	25091
840.467	25202
840.604	25137
840.742	25327
840.879	24954
841.016	25061
841.153	25038
841.29	25164
841.427	25206
841.564	25126
841.701	25080
841.838	25072
841.975	25046
842.112	24970
842.249	24802
842.385	24795
842.522	25027
842.659	25031
842.796	24745
842.933	24882
843.069	24753
843.206	24707
843.343	24947
843.479	24730
843.616	24806
843.752	24669
843.889	24700
844.025	24776
844.162	24528
844.298	24688
844.435	24658
844.571	24566
844.708	24661
844.844	24772
844.98	24749
845.117	24738
845.253	24464
845.389	24502
845.525	24540
845.661	24452
845.798	24384
845.934	24361
846.07	24338
846.206	24285
846.342	24433
846.478	24194
846.614	24121
846.75	24060
846.886	23882
847.022	24136
847.158	24174
847.294	23996
847.429	24064
847.565	24011
847.701	24277
847.837	23726
847.972	23695
848.108	23935
848.244	23775
848.379	23718
848.515	23520
848.65	23573
848.786	23600
848.921	23634
849.057	23786
849.192	23687
849.328	23589
849.463	23687
849.598	23623
849.734	23600
849.869	23558
850.004	23379
850.14	23398
850.275	23509
850.41	23459
850.545	23299
850.68	23284
850.815	23501
850.95	23509
851.085	23490
851.22	23528
851.355	23512
851.49	23471
851.625	23379
851.76	23417
851.895	23402
852.03	23303
852.165	23402
852.299	23296
852.434	23638
852.569	23322
852.703	23353
852.838	23391
852.973	23623
853.107	23558
853.242	23288
853.376	23277
853.511	23067
853.645	23113
853.78	23277
853.914	23147
854.048	23124
854.183	23284
854.317	23155
854.451	23493
854.585	23345
854.72	23227
854.854	23265
854.988	23223
855.122	23189
855.256	23048
855.39	23075
855.524	23277
855.658	23273
855.792	23246
855.926	23239
856.06	23246
856.194	23326
856.327	23242
856.461	23174
856.595	23140
856.729	23170
856.862	23307
856.996	23250
857.13	23250
857.263	23216
857.397	23162
857.53	23326
857.664	23280
857.797	23231
857.931	23307
858.064	23235
858.197	23311
858.331	23258
858.464	23090
858.597	23064
858.731	23223
858.864	23193
858.997	23197
859.13	23227
859.263	23220
859.396	23353
859.529	23197
859.662	23124
859.795	23147
859.928	23200
860.061	23337
860.194	23429
860.327	23303
860.46	23216
860.592	23292
860.725	23356
860.858	23395
860.99	23220
861.123	23136
861.256	23037
861.388	23250
861.521	23836
861.653	23098
861.786	22949
861.918	22987
862.05	23025
862.183	23121
862.315	23143
862.447	23178
862.58	23121
862.712	22980
862.844	22881
862.976	23018
863.108	23037
863.24	23440
863.372	22801
863.504	22980
863.636	22923
863.768	22854
863.9	22900
864.032	22854
864.164	22835
864.296	22900
864.428	22934
864.559	22984
864.691	22930
864.823	22889
864.954	22930
865.086	22854
865.217	22854
865.349	22771
865.48	22881
865.612	22736
865.743	22866
865.875	22820
866.006	22653
866.137	22850
866.269	22812
866.4	22668
866.531	22710
866.662	22645
866.793	22740
866.924	22763
867.055	22774
867.186	22790
867.317	22774
867.448	22626
867.579	22740
867.71	22603
867.841	22615
867.972	22687
868.103	22725
868.233	22721
868.364	22702
868.495	22816
868.625	22934
868.756	22946
868.886	22820
869.017	22904
869.147	22984
869.278	23083
869.408	22938
869.539	22839
869.669	22980
869.799	22873
869.929	23003
870.06	23044
870.19	23280
870.32	23254
870.45	23303
870.58	23250
870.71	23471
870.84	23387
870.97	23299
871.1	23261
871.23	23486
871.36	23459
871.489	23353
871.619	23433
871.749	23535
871.879	23691
872.008	23581
872.138	23547
872.267	23551
872.397	23402
872.526	23292
872.656	23356
872.785	23417
872.915	23608
873.044	23642
873.173	23649
873.303	23646
873.432	23627
873.561	23627
873.69	23627
873.819	23512
873.948	23562
874.077	23642
874.206	23505
874.335	23562
874.464	23623
874.593	23756
874.722	23710
874.851	23840
874.979	23885
875.108	23874
875.237	23562
875.365	23570
875.494	23646
875.623	23920
875.751	23726
875.88	23760
876.008	23878
876.136	23786
876.265	24235
876.393	24289
876.521	24228
876.65	24308
876.778	24148
876.906	24076
877.034	24144
877.162	24053
877.29	23988
877.418	24057
877.546	24068
877.674	24129
877.802	24015
877.93	23954
878.058	24038
878.185	23870
878.313	23901
878.441	23999
878.568	23927
878.696	23946
878.824	24038
878.951	24144
879.079	24327
879.206	24380
879.333	24228
879.461	24026
879.588	24285
879.715	24296
879.842	24376
879.97	24334
880.097	23996
880.224	23874
880.351	23965
880.478	24057
880.605	23840
880.732	23935
880.859	24098
880.986	23908
881.112	23828
881.239	23889
881.366	23630
881.493	23577
881.619	23474
881.746	23421
881.872	23467
881.999	23360
882.125	23383
882.252	23414
882.378	23440
882.505	23547
882.631	23337
882.757	23174
882.883	23284
883.01	23018
883.136	23014
883.262	22915
883.388	22987
883.514	23052
883.64	23147
883.766	23102
883.892	22885
884.018	22923
884.143	22976
884.269	23018
884.395	22835
884.52	22656
884.646	22767
884.772	22748
884.897	22702
885.023	22778
885.148	22763
885.274	22892
885.399	22866
885.524	22839
885.65	22869
885.775	22767
885.9	22812
886.025	22938
886.15	22793
886.275	22618
886.4	22660
886.525	22782
886.65	22702
886.775	22736
886.9	22797
887.025	22889
887.149	22763
887.274	22497
887.399	22504
887.523	22409
887.648	22436
887.773	22382
887.897	22516
888.021	22618
888.146	22478
888.27	22493
888.395	22797
888.519	22535
888.643	22550
888.767	22561
888.891	22386
889.015	22318
889.139	22329
889.263	22276
889.387	22360
889.511	22417
889.635	22409
889.759	22265
889.883	22284
890.006	22306
890.13	22386
890.254	22181
890.377	22211
890.501	22010
890.624	21968
890.748	22044
890.871	21915
890.995	21701
891.118	21774
891.241	21823
891.364	21751
891.488	22044
891.611	21949
891.734	21823
891.857	21812
891.98	21793
892.103	21823
892.226	21949
892.349	21686
892.471	21694
892.594	21690
892.717	21728
892.839	21633
892.962	21675
893.085	21804
893.207	21789
893.33	21473
893.452	21591
893.575	21705
893.697	21698
893.819	21846
893.941	21842
894.064	21766
894.186	21610
894.308	21679
894.43	21739
894.552	21808
894.674	21785
894.796	21686
894.918	21671
895.04	21755
895.161	21720
895.283	21720
895.405	21682
895.526	21625
895.648	21625
895.769	21591
895.891	21656
896.012	21736
896.134	21690
896.255	21656
896.376	21720
896.498	21595
896.619	21671
896.74	21663
896.861	21549
896.982	21987
897.103	22188
897.224	21945
897.345	21857
897.466	21876
897.587	21880
897.708	21911
897.828	22021
897.949	21800
898.07	21698
898.19	21857
898.311	21835
898.431	21759
898.552	21797
898.672	21854
898.792	21861
898.913	21934
899.033	21694
899.153	21568
899.273	21424
899.393	21603
899.513	21618
899.633	21553
899.753	21679
899.873	21511
899.993	21477
900.113	21424
900.232	21481
900.352	21568
900.472	21291
900.591	21291
900.711	21393
900.83	21317
900.95	21401
901.069	21374
901.189	21211
901.308	21043
901.427	20899
901.546	20849
901.665	20819
901.784	20800
901.904	20716
902.023	20731
902.141	20492
902.26	20434
902.379	20537
902.498	20366
902.617	20461
902.735	20431
902.854	20290
902.973	20199
903.091	20065
903.21	20073
903.328	19925
903.446	19963
903.565	19894
903.683	19864
903.801	19719
903.919	19811
904.038	19753
904.156	19712
904.274	19647
904.392	19677
904.51	19548
904.627	19487
904.745	19643
904.863	19689
904.981	19438
905.098	19320
905.216	19148
905.334	19247
905.451	19270
905.569	19263
905.686	19240
905.803	19244
905.921	19046
906.038	19194
906.155	19091
906.272	18882
906.389	18935
906.506	18848
906.623	18787
906.74	18726
906.857	18639
906.974	18681
907.091	18871
907.208	18916
907.324	18802
907.441	18738
907.557	18403
907.674	18433
907.79	18445
907.907	18563
908.023	18460
908.139	18517
908.256	18292
908.372	18353
908.488	18266
908.604	18216
908.72	18213
908.836	18213
908.952	18117
909.068	18194
909.184	18285
909.3	18171
909.415	18159
909.531	18083
909.647	17954
909.762	17874
909.878	17851
909.993	17843
910.108	17847
910.224	17771
910.339	17790
910.454	17707
910.57	17707
910.685	17562
910.8	17824
910.915	17821
911.03	17794
911.145	17482
911.259	17379
911.374	17376
911.489	17280
911.604	17261
911.718	17124
911.833	17212
911.947	17086
912.062	16949
912.176	17159
912.291	17132
912.405	17128
912.519	17311
912.633	17349
912.748	17185
912.862	17105
912.976	16961
913.09	16850
913.204	16953
913.318	17018
913.431	17079
913.545	17121
913.659	17128
913.772	17003
913.886	16847
914	16710
914.113	16809
914.226	16869
914.34	16850
914.453	16634
914.566	16702
914.68	16584
914.793	16653
914.906	16443
915.019	16291
915.132	16253
915.245	16185
915.358	16299
915.47	16402
915.583	16265
915.696	16280
915.809	16329
915.921	16519
916.034	16246
916.146	16272
916.259	16147
916.371	16303
916.483	16280
916.595	16109
916.708	16097
916.82	16166
916.932	16059
917.044	16059
917.156	15964
917.268	15922
917.38	15972
917.491	15793
917.603	15941
917.715	16086
917.826	15979
917.938	15854
918.049	15797
918.161	15823
918.272	15979
918.384	15937
918.495	15793
918.606	15751
918.717	15633
918.828	15663
918.939	15705
919.05	15511
919.161	15679
919.272	15454
919.383	15466
919.494	15652
919.604	15812
919.715	15538
919.826	15614
919.936	15572
920.047	15507
920.157	15610
920.267	15732
920.378	15603
920.488	15462
920.598	15781
920.708	15831
920.818	15679
920.928	15713
921.038	15766
921.148	15728
921.258	15530
921.368	15447
921.477	15294
921.587	15211
921.697	15173
921.806	15256
921.916	15108
922.025	14998
922.134	14944
922.244	14925
922.353	14883
922.462	14921
922.571	14804
922.68	14697
922.789	14610
922.898	14602
923.007	14545
923.116	14549
923.224	14434
923.333	14514
923.442	14389
923.55	14317
923.659	14396
923.767	14446
923.876	14305
923.984	14393
924.092	14328
924.201	14385
924.309	14301
924.417	14271
924.525	14168
924.633	14214
924.741	14956
924.849	14062
924.956	14168
925.064	14027
925.172	13845
925.279	13963
925.387	14073
925.494	13986
925.602	14073
925.709	13951
925.816	13841
925.924	13871
926.031	13970
926.138	13860
926.245	13925
926.352	13734
926.459	13936
926.566	13932
926.673	13738
926.779	13731
926.886	13647
926.993	13575
927.099	13529
927.206	13331
927.312	13434
927.419	13472
927.525	13483
927.631	13392
927.737	13430
927.843	13259
927.95	13221
928.056	13358
928.162	13244
928.267	13369
928.373	13909
928.479	13339
928.585	13012
928.69	13202
928.796	13137
928.901	13084
929.007	12848
929.112	13152
929.218	13072
929.323	13050
929.428	12924
929.533	13168
929.638	12890
929.743	13069
929.848	13031
929.953	12802
930.058	12829
930.163	12578
930.267	12700
930.372	12783
930.477	12616
930.581	12837
930.685	12753
930.79	12490
930.894	12532
930.998	12464
931.103	12623
931.207	12277
931.311	12266
931.415	12117
931.519	11889
931.623	11798
