Data from test_V78500241_3244.txt Node
Date: Fri Mar 25 16:04:16 CST 2022
User: usil
Spectrometer: V785-0024
Trigger mode: 0
Integration Time (sec): 4.000000E-1
Scans to average: 1
Nonlinearity correction enabled: false
Boxcar width: 0
Storing dark spectrum: false
XAxis mode: Wavelengths
Number of Pixels in Spectrum: 1024
>>>>>Begin Spectral Data<<<<<
801.071	28858
801.214	28793
801.356	28615
801.499	28512
801.641	28394
801.783	28542
801.926	28573
802.068	28405
802.211	28363
802.353	28455
802.496	28230
802.638	28230
802.78	28196
802.923	27975
803.065	28082
803.208	28112
803.35	28188
803.492	28314
803.635	28318
803.777	28204
803.919	28379
804.061	28687
804.204	28443
804.346	28481
804.488	28333
804.63	28440
804.773	28128
804.915	28371
805.057	28577
805.199	28459
805.341	28436
805.483	28557
805.626	28588
805.768	28405
805.91	28649
806.052	28527
806.194	28497
806.336	28656
806.478	28630
806.62	28592
806.762	28721
806.904	28778
807.046	29029
807.188	29044
807.33	28930
807.472	29128
807.614	28987
807.756	29010
807.898	28835
808.04	28869
808.182	28801
808.324	28904
808.465	28976
808.607	29048
808.749	29174
808.891	29395
809.033	29440
809.174	29174
809.316	29258
809.458	29193
809.6	29151
809.741	29364
809.883	29398
810.025	29543
810.166	29714
810.308	29524
810.45	29512
810.591	29467
810.733	29265
810.875	29296
811.016	29326
811.158	29185
811.299	29356
811.441	29581
811.582	29490
811.724	29406
811.865	29292
812.007	29269
812.148	29235
812.29	29372
812.431	29592
812.573	29710
812.714	29661
812.855	29771
812.997	29786
813.138	30034
813.279	29999
813.421	29790
813.562	29737
813.703	29676
813.845	29505
813.986	29318
814.127	29174
814.268	29037
814.41	29067
814.551	28965
814.692	29048
814.833	29014
814.974	28984
815.115	29003
815.256	28896
815.397	29022
815.539	28816
815.68	28961
815.821	28740
815.962	28896
816.103	28854
816.244	28592
816.385	28717
816.526	28478
816.666	28367
816.807	28329
816.948	28455
817.089	28367
817.23	28337
817.371	28367
817.512	28314
817.653	28200
817.793	28219
817.934	28314
818.075	28299
818.216	28382
818.356	28276
818.497	28268
818.638	28051
818.778	28006
818.919	28105
819.06	28078
819.2	28299
819.341	28344
819.481	28348
819.622	28455
819.762	28675
819.903	28778
820.043	28557
820.184	28481
820.324	28432
820.465	28630
820.605	28363
820.746	28504
820.886	28299
821.026	28561
821.167	28417
821.307	28386
821.447	28478
821.588	28162
821.728	28192
821.868	28006
822.008	27937
822.149	27911
822.289	27865
822.429	27591
822.569	27549
822.709	27542
822.849	27370
822.99	27329
823.13	27313
823.27	27424
823.41	27268
823.55	27211
823.69	27142
823.83	27100
823.97	27180
824.11	26899
824.25	26933
824.389	27051
824.529	27036
824.669	27020
824.809	27077
824.949	27203
825.089	27051
825.228	27074
825.368	26956
825.508	26857
825.648	26887
825.787	27024
825.927	26994
826.067	26849
826.206	26727
826.346	26940
826.485	26906
826.625	26804
826.765	26990
826.904	27093
827.044	26762
827.183	26613
827.323	26583
827.462	26743
827.601	26617
827.741	26594
827.88	26693
828.02	26480
828.159	26613
828.298	26674
828.437	26663
828.577	26473
828.716	26781
828.855	26530
828.994	26278
829.134	26370
829.273	26347
829.412	26244
829.551	26195
829.69	26240
829.829	26355
829.968	26362
830.107	26408
830.246	26351
830.385	26298
830.524	26176
830.663	26187
830.802	26084
830.941	25906
831.08	25864
831.219	26069
831.357	26077
831.496	26081
831.635	25932
831.774	25780
831.913	25803
832.051	25727
832.19	25746
832.329	25639
832.467	25590
832.606	25658
832.744	25590
832.883	25712
833.022	25571
833.16	25552
833.299	25571
833.437	25616
833.576	25715
833.714	25674
833.852	25727
833.991	25776
834.129	25803
834.267	25666
834.406	25590
834.544	25723
834.682	25704
834.821	25658
834.959	25727
835.097	25544
835.235	25712
835.373	25594
835.511	25632
835.65	25453
835.788	25556
835.926	25270
836.064	25400
836.202	25270
836.34	25502
836.478	25544
836.615	25464
836.753	25499
836.891	25502
837.029	25552
837.167	25316
837.305	25331
837.443	25209
837.58	25228
837.718	25369
837.856	25251
837.993	25244
838.131	25343
838.269	25084
838.406	25160
838.544	25076
838.681	24947
838.819	24886
838.956	24696
839.094	24719
839.231	24833
839.369	24932
839.506	25187
839.643	24939
839.781	24642
839.918	24677
840.055	24837
840.193	24642
840.33	24677
840.467	24616
840.604	24722
840.742	24863
840.879	24498
841.016	24715
841.153	24475
841.29	24768
841.427	24623
841.564	24711
841.701	24593
841.838	24635
841.975	24509
842.112	24521
842.249	24483
842.385	24426
842.522	24639
842.659	24525
842.796	24376
842.933	24414
843.069	24327
843.206	24323
843.343	24407
843.479	24414
843.616	24350
843.752	24144
843.889	24201
844.025	24327
844.162	24232
844.298	24327
844.435	24155
844.571	24216
844.708	24155
844.844	24209
844.98	24182
845.117	24369
845.253	24018
845.389	23893
845.525	24076
845.661	24057
845.798	23950
845.934	24110
846.07	23859
846.206	23988
846.342	23969
846.478	23828
846.614	23802
846.75	23581
846.886	23558
847.022	23695
847.158	23608
847.294	23752
847.429	23771
847.565	23562
847.701	23828
847.837	23303
847.972	23349
848.108	23303
848.244	23497
848.379	23269
848.515	23170
848.65	23235
848.786	23242
848.921	23204
849.057	23395
849.192	23212
849.328	23315
849.463	23147
849.598	23098
849.734	23014
849.869	22999
850.004	22991
850.14	23044
850.275	22938
850.41	22866
850.545	22991
850.68	22934
850.815	23071
850.95	23006
851.085	23197
851.22	23037
851.355	23029
851.49	22987
851.625	22934
851.76	23018
851.895	22900
852.03	22942
852.165	22965
852.299	22911
852.434	23208
852.569	22980
852.703	22965
852.838	22995
852.973	23014
853.107	23098
853.242	22927
853.376	22778
853.511	22694
853.645	22744
853.78	22953
853.914	22858
854.048	22694
854.183	22828
854.317	22850
854.451	22938
854.585	22858
854.72	22843
854.854	22896
854.988	22740
855.122	22873
855.256	22698
855.39	22805
855.524	22946
855.658	22877
855.792	22752
855.926	22824
856.06	22843
856.194	22812
856.327	22847
856.461	22645
856.595	22748
856.729	22797
856.862	22953
856.996	22896
857.13	22953
857.263	22862
857.397	22934
857.53	22828
857.664	22828
857.797	22915
857.931	22869
858.064	22854
858.197	22946
858.331	22675
858.464	22862
858.597	22740
858.731	22698
858.864	22805
858.997	22725
859.13	22767
859.263	22873
859.396	22854
859.529	22759
859.662	22866
859.795	22687
859.928	22820
860.061	22972
860.194	23006
860.327	22957
860.46	22831
860.592	22839
860.725	23048
860.858	22980
860.99	22900
861.123	22767
861.256	22790
861.388	22801
861.521	23577
861.653	22805
861.786	22577
861.918	22542
862.05	22660
862.183	22702
862.315	22717
862.447	22801
862.58	22820
862.712	22664
862.844	22466
862.976	22626
863.108	22626
863.24	22915
863.372	22497
863.504	22516
863.636	22462
863.768	22466
863.9	22542
864.032	22447
864.164	22443
864.296	22516
864.428	22656
864.559	22573
864.691	22519
864.823	22428
864.954	22451
865.086	22474
865.217	22360
865.349	22284
865.48	22363
865.612	22382
865.743	22421
865.875	22421
866.006	22360
866.137	22348
866.269	22284
866.4	22257
866.531	22485
866.662	22284
866.793	22276
866.924	22382
867.055	22417
867.186	22325
867.317	22341
867.448	22223
867.579	22333
867.71	22348
867.841	22120
867.972	22242
868.103	22421
868.233	22333
868.364	22284
868.495	22352
868.625	22599
868.756	22672
868.886	22481
869.017	22500
869.147	22554
869.278	22664
869.408	22664
869.539	22474
869.669	22630
869.799	22615
869.929	22603
870.06	22774
870.19	22881
870.32	22740
870.45	22923
870.58	22911
870.71	23025
870.84	22976
870.97	22885
871.1	22919
871.23	23052
871.36	23094
871.489	23117
871.619	23159
871.749	23056
871.879	23102
872.008	23311
872.138	23143
872.267	23132
872.397	23006
872.526	22949
872.656	23006
872.785	22881
872.915	23315
873.044	23273
873.173	23242
873.303	23208
873.432	23181
873.561	23345
873.69	23151
873.819	23147
873.948	23155
874.077	23105
874.206	23193
874.335	23060
874.464	23223
874.593	23478
874.722	23277
874.851	23467
874.979	23296
875.108	23471
875.237	23307
875.365	23151
875.494	23277
875.623	23414
875.751	23284
875.88	23436
876.008	23630
876.136	23444
876.265	23809
876.393	23916
876.521	23813
876.65	23836
876.778	23767
876.906	23786
877.034	23638
877.162	23779
877.29	23646
877.418	23695
877.546	23634
877.674	23600
877.802	23748
877.93	23798
878.058	23707
878.185	23668
878.313	23726
878.441	23710
878.568	23600
878.696	23642
878.824	23733
878.951	23809
879.079	23927
879.206	24018
879.333	23870
879.461	23672
879.588	23790
879.715	23904
879.842	23931
879.97	23786
880.097	23604
880.224	23440
880.351	23482
880.478	23558
880.605	23474
880.732	23486
880.859	23809
880.986	23653
881.112	23493
881.239	23516
881.366	23315
881.493	23204
881.619	23014
881.746	23064
881.872	23010
881.999	22877
882.125	23041
882.252	23159
882.378	23159
882.505	23155
882.631	22915
882.757	22869
882.883	22923
883.01	22755
883.136	22744
883.262	22691
883.388	22588
883.514	22748
883.64	22847
883.766	22637
883.892	22504
884.018	22542
884.143	22733
884.269	22683
884.395	22417
884.52	22344
884.646	22466
884.772	22344
884.897	22204
885.023	22382
885.148	22440
885.274	22649
885.399	22474
885.524	22371
885.65	22360
885.775	22375
885.9	22344
886.025	22542
886.15	22485
886.275	22333
886.4	22196
886.525	22402
886.65	22249
886.775	22272
886.9	22550
887.025	22478
887.149	22348
887.274	22268
887.399	22067
887.523	22280
887.648	22120
887.773	22006
887.897	22185
888.021	22177
888.146	22215
888.27	22158
888.395	22234
888.519	22188
888.643	22150
888.767	22120
888.891	21934
889.015	22074
889.139	21972
889.263	21922
889.387	22029
889.511	22048
889.635	22226
889.759	21930
889.883	21922
890.006	22006
890.13	21956
890.254	21899
890.377	21968
890.501	21781
890.624	21625
890.748	21667
890.871	21641
890.995	21549
891.118	21458
891.241	21469
891.364	21447
891.488	21633
891.611	21329
891.734	21454
891.857	21526
891.98	21443
892.103	21534
892.226	21443
892.349	21507
892.471	21310
892.594	21443
892.717	21454
892.839	21329
892.962	21447
893.085	21302
893.207	21344
893.33	21363
893.452	21332
893.575	21332
893.697	21256
893.819	21568
893.941	21526
894.064	21523
894.186	21188
894.308	21291
894.43	21428
894.552	21389
894.674	21447
894.796	21268
894.918	21405
895.04	21382
895.161	21344
895.283	21374
895.405	21291
895.526	21272
895.648	21294
895.769	21332
895.891	21340
896.012	21412
896.134	21488
896.255	21344
896.376	21283
896.498	21233
896.619	21317
896.74	21237
896.861	21408
896.982	21778
897.103	21732
897.224	21663
897.345	21576
897.466	21469
897.587	21450
897.708	21625
897.828	21504
897.949	21568
898.07	21203
898.19	21424
898.311	21599
898.431	21447
898.552	21469
898.672	21625
898.792	21656
898.913	21663
899.033	21408
899.153	21367
899.273	21195
899.393	21203
899.513	21321
899.633	21195
899.753	21275
899.873	21233
899.993	21291
900.113	21378
900.232	21199
900.352	21089
900.472	21104
900.591	21013
900.711	20975
900.83	20933
900.95	21112
901.069	21070
901.189	20963
901.308	20659
901.427	20530
901.546	20537
901.665	20575
901.784	20621
901.904	20419
902.023	20339
902.141	20199
902.26	20077
902.379	20176
902.498	20046
902.617	20122
902.735	20050
902.854	20073
902.973	19982
903.091	19769
903.21	19742
903.328	19616
903.446	19590
903.565	19571
903.683	19586
903.801	19487
903.919	19472
904.038	19460
904.156	19251
904.274	19339
904.392	19171
904.51	19285
904.627	19225
904.745	19236
904.863	19335
904.981	19076
905.098	18970
905.216	18973
905.334	19114
905.451	18973
905.569	18886
905.686	19072
905.803	18970
905.921	18646
906.038	18802
906.155	18753
906.272	18650
906.389	18654
906.506	18528
906.623	18441
906.74	18426
906.857	18467
906.974	18410
907.091	18566
907.208	18642
907.324	18429
907.441	18323
907.557	18163
907.674	18197
907.79	18140
907.907	18136
908.023	18201
908.139	18163
908.256	18079
908.372	18159
908.488	17992
908.604	17912
908.72	17729
908.836	17954
908.952	17828
909.068	17859
909.184	18019
909.3	17931
909.415	17893
909.531	17783
909.647	17710
909.762	17646
909.878	17619
909.993	17604
910.108	17505
910.224	17520
910.339	17699
910.454	17474
910.57	17349
910.685	17254
910.8	17543
910.915	17547
911.03	17242
911.145	17246
911.259	17212
911.374	17113
911.489	17079
911.604	17033
911.718	16919
911.833	16968
911.947	16858
912.062	16656
912.176	16809
912.291	16896
912.405	16930
912.519	17025
912.633	17006
912.748	16995
912.862	16854
912.976	16618
913.09	16588
913.204	16656
913.318	16698
913.431	16812
913.545	16771
913.659	16771
913.772	16713
913.886	16523
914	16413
914.113	16626
914.226	16550
914.34	16599
914.453	16443
914.566	16546
914.68	16356
914.793	16303
914.906	16249
915.019	16078
915.132	16093
915.245	16116
915.358	16029
915.47	16086
915.583	16097
915.696	16116
915.809	16139
915.921	16242
916.034	15949
916.146	15918
916.259	15937
916.371	16093
916.483	16017
916.595	15778
916.708	15926
916.82	15930
916.932	15926
917.044	15797
917.156	15804
917.268	15736
917.38	15751
917.491	15644
917.603	15663
917.715	15759
917.826	15728
917.938	15561
918.049	15545
918.161	15591
918.272	15682
918.384	15648
918.495	15698
918.606	15386
918.717	15401
918.828	15515
918.939	15466
919.05	15256
919.161	15374
919.272	15199
919.383	15211
919.494	15496
919.604	15504
919.715	15397
919.826	15173
919.936	15348
920.047	15458
920.157	15416
920.267	15572
920.378	15313
920.488	15336
920.598	15397
920.708	15682
920.818	15500
920.928	15515
921.038	15629
921.148	15667
921.258	15188
921.368	15180
921.477	15055
921.587	15108
921.697	15081
921.806	15097
921.916	15005
922.025	14853
922.134	14750
922.244	14636
922.353	14754
922.462	14549
922.571	14590
922.68	14320
922.789	14339
922.898	14366
923.007	14324
923.116	14351
923.224	14298
923.333	14366
923.442	14218
923.55	14202
923.659	14145
923.767	14259
923.876	14103
923.984	14191
924.092	14161
924.201	14130
924.309	14035
924.417	14043
924.525	14012
924.633	14054
924.741	14705
924.849	13689
924.956	13860
925.064	13803
925.172	13658
925.279	13651
925.387	13719
925.494	13594
925.602	13807
925.709	13765
925.816	13666
925.924	13708
926.031	13780
926.138	13674
926.245	13734
926.352	13575
926.459	13704
926.566	13704
926.673	13609
926.779	13438
926.886	13434
926.993	13236
927.099	13202
927.206	13240
927.312	13171
927.419	13255
927.525	13255
927.631	13152
927.737	13126
927.843	13050
927.95	12970
928.056	13129
928.162	13122
928.267	13084
928.373	13548
928.479	13110
928.585	12954
928.69	12909
928.796	13110
928.901	12890
929.007	12802
929.112	12776
929.218	12901
929.323	12768
929.428	12707
929.533	12886
929.638	12612
929.743	12711
929.848	12787
929.953	12688
930.058	12627
930.163	12464
930.267	12475
930.372	12604
930.477	12357
930.581	12658
930.685	12506
930.79	12292
930.894	12315
930.998	12327
931.103	12350
931.207	12133
931.311	11935
931.415	11775
931.519	11714
931.623	11710
