Data from test_V78500241_2741.txt Node
Date: Fri Mar 25 16:00:47 CST 2022
User: usil
Spectrometer: V785-0024
Trigger mode: 0
Integration Time (sec): 4.000000E-1
Scans to average: 1
Nonlinearity correction enabled: false
Boxcar width: 0
Storing dark spectrum: false
XAxis mode: Wavelengths
Number of Pixels in Spectrum: 1024
>>>>>Begin Spectral Data<<<<<
801.071	28356
801.214	28333
801.356	28048
801.499	28112
801.641	27789
801.783	27949
801.926	27998
802.068	27743
802.211	27831
802.353	27861
802.496	27576
802.638	27633
802.78	27694
802.923	27519
803.065	27481
803.208	27606
803.35	27732
803.492	27785
803.635	27728
803.777	27854
803.919	27873
804.061	28230
804.204	27880
804.346	27709
804.488	27736
804.63	27892
804.773	27713
804.915	27907
805.057	28044
805.199	27895
805.341	27930
805.483	27926
805.626	27922
805.768	27842
805.91	27926
806.052	28078
806.194	27892
806.336	28188
806.478	28116
806.62	27941
806.762	28101
806.904	28192
807.046	28504
807.188	28443
807.33	28535
807.472	28588
807.614	28379
807.756	28295
807.898	28257
808.04	28173
808.182	28200
808.324	28257
808.465	28207
808.607	28497
808.749	28660
808.891	28729
809.033	28873
809.174	28694
809.316	28557
809.458	28611
809.6	28687
809.741	28809
809.883	28637
810.025	28942
810.166	28968
810.308	28896
810.45	28843
810.591	28908
810.733	28706
810.875	28626
811.016	28588
811.158	28573
811.299	28801
811.441	28831
811.582	28710
811.724	28649
811.865	28561
812.007	28599
812.148	28660
812.29	28774
812.431	28862
812.573	29064
812.714	29018
812.855	29189
812.997	29398
813.138	29433
813.279	29345
813.421	29235
813.562	29105
813.703	28866
813.845	28953
813.986	28478
814.127	28432
814.268	28318
814.41	28401
814.551	28390
814.692	28394
814.833	28276
814.974	28337
815.115	28470
815.256	28204
815.397	28360
815.539	28120
815.68	28192
815.821	28284
815.962	28105
816.103	28093
816.244	27994
816.385	27956
816.526	27987
816.666	27804
816.807	27587
816.948	27686
817.089	27907
817.23	27675
817.371	27488
817.512	27660
817.653	27701
817.793	27637
817.934	27587
818.075	27686
818.216	27587
818.356	27720
818.497	27641
818.638	27325
818.778	27348
818.919	27359
819.06	27427
819.2	27511
819.341	27656
819.481	27553
819.622	27819
819.762	28021
819.903	27895
820.043	27857
820.184	27785
820.324	27701
820.465	27850
820.605	27789
820.746	27728
820.886	27587
821.026	27759
821.167	27812
821.307	27857
821.447	27583
821.588	27591
821.728	27557
821.868	27378
822.008	27203
822.149	27127
822.289	27146
822.429	26842
822.569	26838
822.709	26811
822.849	26670
822.99	26678
823.13	26617
823.27	26609
823.41	26469
823.55	26374
823.69	26438
823.83	26526
823.97	26442
824.11	26252
824.25	26142
824.389	26229
824.529	26412
824.669	26256
824.809	26412
824.949	26332
825.089	26290
825.228	26172
825.368	26248
825.508	26202
825.648	26161
825.787	26069
825.927	26035
826.067	26161
826.206	26221
826.346	26206
826.485	26290
826.625	26294
826.765	26240
826.904	26290
827.044	26031
827.183	25932
827.323	25871
827.462	26031
827.601	25852
827.741	25894
827.88	25864
828.02	25807
828.159	25841
828.298	25986
828.437	25936
828.577	25784
828.716	25879
828.855	25780
828.994	25639
829.134	25666
829.273	25674
829.412	25514
829.551	25552
829.69	25632
829.829	25620
829.968	25586
830.107	25681
830.246	25556
830.385	25540
830.524	25571
830.663	25396
830.802	25400
830.941	25304
831.08	25145
831.219	25270
831.357	25179
831.496	25369
831.635	25152
831.774	25152
831.913	25148
832.051	24894
832.19	25012
832.329	25053
832.467	24859
832.606	24810
832.744	24863
832.883	24863
833.022	24810
833.16	24871
833.299	24897
833.437	24817
833.576	24939
833.714	24886
833.852	24897
833.991	24920
834.129	24958
834.267	24966
834.406	24901
834.544	24848
834.682	25031
834.821	24798
834.959	25137
835.097	24840
835.235	24901
835.373	24806
835.511	24802
835.65	24791
835.788	24722
835.926	24604
836.064	24597
836.202	24589
836.34	24741
836.478	24894
836.615	24741
836.753	24642
836.891	24806
837.029	24772
837.167	24722
837.305	24585
837.443	24608
837.58	24578
837.718	24593
837.856	24715
837.993	24517
838.131	24684
838.269	24582
838.406	24513
838.544	24456
838.681	24110
838.819	24239
838.956	24034
839.094	24018
839.231	24220
839.369	24216
839.506	24353
839.643	24213
839.781	24064
839.918	23935
840.055	24220
840.193	24011
840.33	23935
840.467	24091
840.604	24041
840.742	24213
840.879	23760
841.016	23828
841.153	23828
841.29	23897
841.427	23874
841.564	23897
841.701	23912
841.838	23885
841.975	23870
842.112	23832
842.249	23779
842.385	23592
842.522	23984
842.659	23863
842.796	23627
842.933	23707
843.069	23752
843.206	23646
843.343	23779
843.479	23733
843.616	23714
843.752	23512
843.889	23478
844.025	23512
844.162	23509
844.298	23615
844.435	23455
844.571	23364
844.708	23379
844.844	23691
844.98	23684
845.117	23653
845.253	23486
845.389	23337
845.525	23414
845.661	23231
845.798	23208
845.934	23315
846.07	23216
846.206	23299
846.342	23463
846.478	23185
846.614	23067
846.75	22889
846.886	23033
847.022	23003
847.158	22934
847.294	22858
847.429	22961
847.565	22793
847.701	23102
847.837	22752
847.972	22637
848.108	22637
848.244	22584
848.379	22519
848.515	22580
848.65	22481
848.786	22561
848.921	22596
849.057	22683
849.192	22637
849.328	22557
849.463	22569
849.598	22405
849.734	22402
849.869	22485
850.004	22185
850.14	22352
850.275	22257
850.41	22314
850.545	22344
850.68	22310
850.815	22356
850.95	22272
851.085	22500
851.22	22322
851.355	22295
851.49	22272
851.625	22352
851.76	22177
851.895	22268
852.03	22150
852.165	22268
852.299	22299
852.434	22371
852.569	22371
852.703	22253
852.838	22325
852.973	22382
853.107	22440
853.242	22162
853.376	22223
853.511	22002
853.645	22162
853.78	22162
853.914	22139
854.048	22192
854.183	22112
854.317	22112
854.451	22402
854.585	22192
854.72	22173
854.854	22211
854.988	22025
855.122	22173
855.256	21972
855.39	22093
855.524	22109
855.658	22173
855.792	22109
855.926	22147
856.06	22185
856.194	22242
856.327	22169
856.461	22074
856.595	22162
856.729	22044
856.862	22310
856.996	22188
857.13	22303
857.263	22173
857.397	22135
857.53	22215
857.664	22131
857.797	22109
857.931	22287
858.064	22185
858.197	22158
858.331	22090
858.464	22109
858.597	21838
858.731	22207
858.864	22051
858.997	22074
859.13	22032
859.263	22154
859.396	22272
859.529	22086
859.662	22112
859.795	22078
859.928	22166
860.061	22185
860.194	22211
860.327	22196
860.46	22082
860.592	22211
860.725	22367
860.858	22360
860.99	22063
861.123	21975
861.256	21949
861.388	22074
861.521	22904
861.653	21842
861.786	21880
861.918	21915
862.05	22051
862.183	21934
862.315	22109
862.447	21975
862.58	22044
862.712	21861
862.844	21854
862.976	21979
863.108	21823
863.24	22348
863.372	21739
863.504	21785
863.636	21747
863.768	21941
863.9	21930
864.032	21717
864.164	21751
864.296	21755
864.428	21884
864.559	21880
864.691	21903
864.823	21819
864.954	21869
865.086	21789
865.217	21720
865.349	21587
865.48	21778
865.612	21774
865.743	21903
865.875	21781
866.006	21701
866.137	21720
866.269	21663
866.4	21648
866.531	21652
866.662	21587
866.793	21618
866.924	21583
867.055	21682
867.186	21663
867.317	21534
867.448	21583
867.579	21583
867.71	21469
867.841	21523
867.972	21603
868.103	21564
868.233	21606
868.364	21572
868.495	21823
868.625	21873
868.756	21850
868.886	21781
869.017	21880
869.147	21934
869.278	21941
869.408	21903
869.539	21907
869.669	21972
869.799	21972
869.929	22063
870.06	21953
870.19	22131
870.32	22238
870.45	22196
870.58	22280
870.71	22310
870.84	22356
870.97	22272
871.1	22348
871.23	22538
871.36	22557
871.489	22402
871.619	22344
871.749	22424
871.879	22592
872.008	22607
872.138	22550
872.267	22447
872.397	22398
872.526	22341
872.656	22322
872.785	22386
872.915	22504
873.044	22702
873.173	22516
873.303	22584
873.432	22485
873.561	22622
873.69	22455
873.819	22527
873.948	22561
874.077	22542
874.206	22341
874.335	22493
874.464	22649
874.593	22748
874.722	22679
874.851	22706
874.979	22717
875.108	22740
875.237	22683
875.365	22668
875.494	22706
875.623	22645
875.751	22618
875.88	22664
876.008	22835
876.136	22820
876.265	23197
876.393	23250
876.521	23193
876.65	23250
876.778	23086
876.906	23041
877.034	23113
877.162	23109
877.29	23006
877.418	22995
877.546	23117
877.674	23109
877.802	23143
877.93	23018
878.058	23109
878.185	22889
878.313	23102
878.441	22957
878.568	22942
878.696	22991
878.824	23162
878.951	23086
879.079	23117
879.206	23345
879.333	23185
879.461	23067
879.588	23117
879.715	23067
879.842	23341
879.97	23094
880.097	22809
880.224	22850
880.351	22976
880.478	22881
880.605	22976
880.732	22881
880.859	23003
880.986	22999
881.112	22839
881.239	22812
881.366	22569
881.493	22603
881.619	22402
881.746	22519
881.872	22455
881.999	22413
882.125	22386
882.252	22436
882.378	22462
882.505	22641
882.631	22219
882.757	22124
882.883	22185
883.01	22154
883.136	22131
883.262	22070
883.388	21998
883.514	21998
883.64	22238
883.766	21956
883.892	21979
884.018	21884
884.143	22120
884.269	22219
884.395	21857
884.52	21713
884.646	21816
884.772	21675
884.897	21606
885.023	21755
885.148	21934
885.274	21835
885.399	21793
885.524	21747
885.65	21762
885.775	21808
885.9	21675
886.025	21968
886.15	21857
886.275	21603
886.4	21701
886.525	21755
886.65	21770
886.775	21690
886.9	21751
887.025	21987
887.149	21698
887.274	21477
887.399	21561
887.523	21507
887.648	21420
887.773	21412
887.897	21515
888.021	21656
888.146	21549
888.27	21561
888.395	21542
888.519	21553
888.643	21595
888.767	21660
888.891	21443
889.015	21355
889.139	21336
889.263	21291
889.387	21325
889.511	21648
889.635	21325
889.759	21355
889.883	21195
890.006	21279
890.13	21428
890.254	21173
890.377	21279
890.501	21005
890.624	21001
890.748	21211
890.871	20895
890.995	20948
891.118	20788
891.241	20998
891.364	20864
891.488	20982
891.611	20952
891.734	20910
891.857	20895
891.98	20857
892.103	20925
892.226	20918
892.349	20861
892.471	20674
892.594	20765
892.717	20785
892.839	20731
892.962	20792
893.085	20849
893.207	20762
893.33	20697
893.452	20640
893.575	20902
893.697	20682
893.819	20838
893.941	21005
894.064	20880
894.186	20693
894.308	20632
894.43	20941
894.552	20834
894.674	20902
894.796	20826
894.918	20773
895.04	20705
895.161	20819
895.283	20834
895.405	20670
895.526	20640
895.648	20735
895.769	20727
895.891	20758
896.012	20750
896.134	20792
896.255	20735
896.376	20765
896.498	20739
896.619	20838
896.74	20819
896.861	20743
896.982	21108
897.103	21306
897.224	21005
897.345	21017
897.466	20743
897.587	20788
897.708	21081
897.828	21001
897.949	20979
898.07	20746
898.19	21005
898.311	21116
898.431	20792
898.552	20982
898.672	20956
898.792	21032
898.913	21051
899.033	20845
899.153	20883
899.273	20697
899.393	20788
899.513	20731
899.633	20773
899.753	20777
899.873	20575
899.993	20716
900.113	20686
900.232	20686
900.352	20556
900.472	20670
900.591	20473
900.711	20457
900.83	20355
900.95	20640
901.069	20469
901.189	20393
901.308	20119
901.427	20142
901.546	20107
901.665	20084
901.784	20092
901.904	19951
902.023	19696
902.141	19647
902.26	19544
902.379	19605
902.498	19655
902.617	19609
902.735	19624
902.854	19502
902.973	19529
903.091	19232
903.21	19198
903.328	19282
903.446	19107
903.565	18951
903.683	19008
903.801	18947
903.919	18962
904.038	19027
904.156	18764
904.274	18852
904.392	18844
904.51	18802
904.627	18810
904.745	18703
904.863	18768
904.981	18650
905.098	18441
905.216	18509
905.334	18513
905.451	18551
905.569	18513
905.686	18513
905.803	18403
905.921	18258
906.038	18388
906.155	18285
906.272	18213
906.389	18205
906.506	17992
906.623	17969
906.74	17912
906.857	17889
906.974	17923
907.091	18091
907.208	18038
907.324	18030
907.441	17836
907.557	17668
907.674	17729
907.79	17642
907.907	17630
908.023	17733
908.139	17680
908.256	17649
908.372	17490
908.488	17539
908.604	17478
908.72	17421
908.836	17482
908.952	17459
909.068	17417
909.184	17558
909.3	17368
909.415	17478
909.531	17326
909.647	17109
909.762	17025
909.878	16991
909.993	17193
910.108	17060
910.224	17010
910.339	17064
910.454	16968
910.57	16896
910.685	16816
910.8	17083
910.915	17045
911.03	16740
911.145	16637
911.259	16626
911.374	16672
911.489	16634
911.604	16592
911.718	16409
911.833	16299
911.947	16348
912.062	16257
912.176	16390
912.291	16447
912.405	16367
912.519	16660
912.633	16531
912.748	16428
912.862	16440
912.976	16268
913.09	16188
913.204	16181
913.318	16211
913.431	16322
913.545	16299
913.659	16390
913.772	16177
913.886	16025
914	15972
914.113	16150
914.226	16223
914.34	16048
914.453	15884
914.566	16044
914.68	15903
914.793	15831
914.906	15728
915.019	15701
915.132	15557
915.245	15606
915.358	15614
915.47	15625
915.583	15622
915.696	15739
915.809	15720
915.921	15698
916.034	15515
916.146	15584
916.259	15507
916.371	15595
916.483	15542
916.595	15538
916.708	15485
916.82	15420
916.932	15378
917.044	15355
917.156	15351
917.268	15226
917.38	15374
917.491	15283
917.603	15283
917.715	15264
917.826	15405
917.938	15176
918.049	15074
918.161	15226
918.272	15313
918.384	15287
918.495	15192
918.606	15009
918.717	14986
918.828	15108
918.939	15055
919.05	14762
919.161	14998
919.272	14788
919.383	14708
919.494	15020
919.604	15336
919.715	14925
919.826	14914
919.936	14876
920.047	14944
920.157	14944
920.267	15043
920.378	14944
920.488	14933
920.598	14982
920.708	15279
920.818	15062
920.928	15093
921.038	15351
921.148	15138
921.258	14895
921.368	14834
921.477	14648
921.587	14651
921.697	14564
921.806	14659
921.916	14545
922.025	14412
922.134	14389
922.244	14248
922.353	14377
922.462	14278
922.571	14084
922.68	14065
922.789	13944
922.898	13894
923.007	13940
923.116	13989
923.224	13887
923.333	13875
923.442	13795
923.55	13818
923.659	13704
923.767	13871
923.876	13788
923.984	13841
924.092	13681
924.201	13696
924.309	13731
924.417	13674
924.525	13575
924.633	13601
924.741	14454
924.849	13449
924.956	13480
925.064	13472
925.172	13251
925.279	13377
925.387	13320
925.494	13365
925.602	13472
925.709	13419
925.816	13213
925.924	13312
926.031	13419
926.138	13213
926.245	13339
926.352	13141
926.459	13289
926.566	13335
926.673	13179
926.779	13133
926.886	13050
926.993	12985
927.099	12890
927.206	12806
927.312	12878
927.419	12981
927.525	12821
927.631	12962
927.737	12719
927.843	12658
927.95	12551
928.056	12707
928.162	12768
928.267	12817
928.373	13240
928.479	12871
928.585	12585
928.69	12882
928.796	12730
928.901	12688
929.007	12494
929.112	12635
929.218	12509
929.323	12490
929.428	12464
929.533	12627
929.638	12350
929.743	12380
929.848	12517
929.953	12422
930.058	12270
930.163	12106
930.267	12197
930.372	12254
930.477	12121
930.581	12262
930.685	12087
930.79	12049
930.894	12125
930.998	11973
931.103	12235
931.207	11836
931.311	11596
931.415	11714
931.519	11421
931.623	11417
