Data from test_V78500241_351.txt Node
Date: Fri Mar 25 15:44:13 CST 2022
User: usil
Spectrometer: V785-0024
Trigger mode: 0
Integration Time (sec): 4.000000E-1
Scans to average: 1
Nonlinearity correction enabled: false
Boxcar width: 0
Storing dark spectrum: false
XAxis mode: Wavelengths
Number of Pixels in Spectrum: 1024
>>>>>Begin Spectral Data<<<<<
801.071	29775
801.214	29843
801.356	29474
801.499	29562
801.641	29433
801.783	29493
801.926	29440
802.068	29280
802.211	29315
802.353	29200
802.496	29159
802.638	29025
802.78	28953
802.923	29079
803.065	29014
803.208	29003
803.35	29117
803.492	29227
803.635	29136
803.777	29094
803.919	29254
804.061	29570
804.204	29383
804.346	29204
804.488	29197
804.63	29277
804.773	29067
804.915	29246
805.057	29349
805.199	29250
805.341	29455
805.483	29421
805.626	29284
805.768	29235
805.91	29299
806.052	29421
806.194	29337
806.336	29531
806.478	29459
806.62	29421
806.762	29463
806.904	29630
807.046	29942
807.188	29836
807.33	29874
807.472	29961
807.614	29859
807.756	29687
807.898	29691
808.04	29657
808.182	29646
808.324	29733
808.465	29691
808.607	29809
808.749	29908
808.891	30133
809.033	30346
809.174	30182
809.316	30034
809.458	29984
809.6	30121
809.741	30171
809.883	30148
810.025	30289
810.166	30338
810.308	30448
810.45	30342
810.591	30308
810.733	30197
810.875	30243
811.016	30117
811.158	29946
811.299	30003
811.441	30289
811.582	30311
811.724	30022
811.865	29939
812.007	30129
812.148	29969
812.29	30159
812.431	30346
812.573	30437
812.714	30532
812.855	30589
812.997	30574
813.138	30726
813.279	30612
813.421	30601
813.562	30593
813.703	30243
813.845	30258
813.986	30018
814.127	29862
814.268	29707
814.41	29764
814.551	29687
814.692	29741
814.833	29817
814.974	29642
815.115	29589
815.256	29699
815.397	29589
815.539	29646
815.68	29490
815.821	29505
815.962	29558
816.103	29497
816.244	29337
816.385	29193
816.526	29315
816.666	29140
816.807	28892
816.948	29037
817.089	29083
817.23	29090
817.371	29037
817.512	29048
817.653	29056
817.793	28892
817.934	28900
818.075	28942
818.216	29113
818.356	28904
818.497	28778
818.638	28820
818.778	28736
818.919	28759
819.06	28854
819.2	28774
819.341	28896
819.481	28824
819.622	29071
819.762	29391
819.903	29307
820.043	29098
820.184	29041
820.324	28854
820.465	29018
820.605	29037
820.746	29151
820.886	28888
821.026	29121
821.167	29060
821.307	29044
821.447	29052
821.588	28782
821.728	28774
821.868	28557
822.008	28417
822.149	28455
822.289	28401
822.429	28120
822.569	28082
822.709	27956
822.849	27911
822.99	27907
823.13	27785
823.27	27705
823.41	27759
823.55	27629
823.69	27736
823.83	27675
823.97	27686
824.11	27481
824.25	27454
824.389	27393
824.529	27580
824.669	27504
824.809	27561
824.949	27500
825.089	27553
825.228	27519
825.368	27405
825.508	27321
825.648	27386
825.787	27370
825.927	27298
826.067	27218
826.206	27313
826.346	27458
826.485	27344
826.625	27313
826.765	27542
826.904	27340
827.044	27150
827.183	27081
827.323	27039
827.462	27112
827.601	27017
827.741	26914
827.88	27176
828.02	26948
828.159	26986
828.298	27062
828.437	26963
828.577	26971
828.716	27100
828.855	26971
828.994	26880
829.134	26769
829.273	26781
829.412	26613
829.551	26583
829.69	26792
829.829	26670
829.968	26743
830.107	26682
830.246	26781
830.385	26549
830.524	26609
830.663	26415
830.802	26446
830.941	26256
831.08	26267
831.219	26381
831.357	26339
831.496	26412
831.635	26172
831.774	26301
831.913	26119
832.051	26050
832.19	26039
832.329	26077
832.467	25913
832.606	25868
832.744	25803
832.883	25913
833.022	25906
833.16	26001
833.299	25909
833.437	25826
833.576	26008
833.714	26016
833.852	26161
833.991	25974
834.129	26008
834.267	26142
834.406	25913
834.544	26020
834.682	25879
834.821	25909
834.959	26035
835.097	25944
835.235	25993
835.373	25761
835.511	25864
835.65	25666
835.788	25670
835.926	25609
836.064	25590
836.202	25510
836.34	25742
836.478	25860
836.615	25681
836.753	25578
836.891	25788
837.029	25822
837.167	25628
837.305	25670
837.443	25491
837.58	25571
837.718	25434
837.856	25590
837.993	25499
838.131	25491
838.269	25358
838.406	25502
838.544	25358
838.681	25198
838.819	25091
838.956	24939
839.094	24932
839.231	25076
839.369	25141
839.506	25411
839.643	25335
839.781	24901
839.918	25027
840.055	24947
840.193	24981
840.33	24817
840.467	24837
840.604	24894
840.742	25004
840.879	24642
841.016	24711
841.153	24722
841.29	24829
841.427	24738
841.564	24905
841.701	24696
841.838	24688
841.975	24753
842.112	24700
842.249	24635
842.385	24559
842.522	24768
842.659	24623
842.796	24407
842.933	24547
843.069	24445
843.206	24418
843.343	24532
843.479	24544
843.616	24589
843.752	24178
843.889	24205
844.025	24536
844.162	24384
844.298	24426
844.435	24407
844.571	24315
844.708	24247
844.844	24376
844.98	24258
845.117	24445
845.253	24171
845.389	24201
845.525	24243
845.661	24026
845.798	23927
845.934	24133
846.07	24034
846.206	23927
846.342	24083
846.478	24121
846.614	23767
846.75	23615
846.886	23733
847.022	23589
847.158	23600
847.294	23775
847.429	23733
847.565	23726
847.701	23992
847.837	23459
847.972	23417
848.108	23570
848.244	23467
848.379	23360
848.515	23280
848.65	23337
848.786	23269
848.921	23322
849.057	23360
849.192	23414
849.328	23368
849.463	23265
849.598	23258
849.734	23166
849.869	23060
850.004	23060
850.14	23098
850.275	23048
850.41	22995
850.545	23048
850.68	23037
850.815	23067
850.95	23102
851.085	23292
851.22	23178
851.355	23102
851.49	22972
851.625	23079
851.76	23071
851.895	22892
852.03	23003
852.165	23113
852.299	23067
852.434	23029
852.569	23006
852.703	22995
852.838	23105
852.973	23197
853.107	23132
853.242	22938
853.376	22835
853.511	22793
853.645	22706
853.78	22946
853.914	22816
854.048	22812
854.183	22752
854.317	22835
854.451	22942
854.585	22862
854.72	22858
854.854	22858
854.988	22782
855.122	22866
855.256	22710
855.39	22793
855.524	22984
855.658	22923
855.792	22828
855.926	22896
856.06	22896
856.194	22927
856.327	22816
856.461	22854
856.595	22812
856.729	22911
856.862	22961
856.996	22877
857.13	22869
857.263	23044
857.397	22858
857.53	22911
857.664	22930
857.797	22862
857.931	22949
858.064	22828
858.197	22801
858.331	22835
858.464	22698
858.597	22679
858.731	22904
858.864	22904
858.997	22854
859.13	22797
859.263	22790
859.396	22847
859.529	22828
859.662	22828
859.795	22603
859.928	22771
860.061	22949
860.194	22987
860.327	22828
860.46	22843
860.592	22953
860.725	22873
860.858	22919
860.99	22763
861.123	22649
861.256	22615
861.388	22748
861.521	23509
861.653	22679
861.786	22573
861.918	22630
862.05	22656
862.183	22706
862.315	22710
862.447	22824
862.58	22733
862.712	22569
862.844	22462
862.976	22535
863.108	22546
863.24	23067
863.372	22371
863.504	22508
863.636	22535
863.768	22470
863.9	22489
864.032	22447
864.164	22447
864.296	22481
864.428	22615
864.559	22424
864.691	22649
864.823	22382
864.954	22538
865.086	22569
865.217	22394
865.349	22211
865.48	22379
865.612	22348
865.743	22554
865.875	22314
866.006	22303
866.137	22421
866.269	22341
866.4	22390
866.531	22341
866.662	22169
866.793	22261
866.924	22173
867.055	22261
867.186	22337
867.317	22207
867.448	22059
867.579	22325
867.71	22143
867.841	22207
867.972	22223
868.103	22268
868.233	22337
868.364	22344
868.495	22352
868.625	22402
868.756	22577
868.886	22421
869.017	22470
869.147	22607
869.278	22485
869.408	22527
869.539	22417
869.669	22531
869.799	22538
869.929	22694
870.06	22622
870.19	22869
870.32	22752
870.45	22885
870.58	22847
870.71	22892
870.84	22889
870.97	22957
871.1	22805
871.23	22957
871.36	23079
871.489	22900
871.619	23022
871.749	23041
871.879	23025
872.008	23159
872.138	23105
872.267	23010
872.397	22972
872.526	22923
872.656	22961
872.785	22831
872.915	22984
873.044	23178
873.173	23151
873.303	23162
873.432	23060
873.561	23166
873.69	23079
873.819	23208
873.948	23132
874.077	23006
874.206	22968
874.335	23189
874.464	23151
874.593	23341
874.722	23269
874.851	23417
874.979	23151
875.108	23296
875.237	23273
875.365	23200
875.494	23235
875.623	23448
875.751	23261
875.88	23425
876.008	23387
876.136	23444
876.265	23771
876.393	23752
876.521	23745
876.65	23832
876.778	23638
876.906	23566
877.034	23615
877.162	23630
877.29	23649
877.418	23737
877.546	23623
877.674	23615
877.802	23600
877.93	23581
878.058	23630
878.185	23585
878.313	23623
878.441	23592
878.568	23467
878.696	23474
878.824	23623
878.951	23813
879.079	23821
879.206	24045
879.333	23798
879.461	23767
879.588	23718
879.715	23859
879.842	24007
879.97	23653
880.097	23547
880.224	23562
880.351	23577
880.478	23501
880.605	23360
880.732	23482
880.859	23661
880.986	23398
881.112	23547
881.239	23326
881.366	23044
881.493	23067
881.619	23064
881.746	23060
881.872	23185
881.999	23037
882.125	23010
882.252	23071
882.378	23056
882.505	23121
882.631	22980
882.757	22740
882.883	22675
883.01	22687
883.136	22721
883.262	22672
883.388	22535
883.514	22755
883.64	22687
883.766	22698
883.892	22390
884.018	22569
884.143	22725
884.269	22634
884.395	22535
884.52	22310
884.646	22352
884.772	22295
884.897	22299
885.023	22398
885.148	22382
885.274	22462
885.399	22443
885.524	22242
885.65	22375
885.775	22318
885.9	22322
886.025	22394
886.15	22512
886.275	22196
886.4	22055
886.525	22284
886.65	22322
886.775	22261
886.9	22443
887.025	22500
887.149	22169
887.274	21998
887.399	22105
887.523	22032
887.648	22036
887.773	21964
887.897	22329
888.021	22169
888.146	21994
888.27	22147
888.395	22188
888.519	21911
888.643	22074
888.767	22207
888.891	22017
889.015	21831
889.139	21831
889.263	21800
889.387	21861
889.511	22029
889.635	21899
889.759	21915
889.883	21827
890.006	21876
890.13	21972
890.254	21827
890.377	21717
890.501	21625
890.624	21538
890.748	21641
890.871	21496
890.995	21439
891.118	21344
891.241	21317
891.364	21405
891.488	21481
891.611	21359
891.734	21405
891.857	21424
891.98	21424
892.103	21447
892.226	21401
892.349	21317
892.471	21157
892.594	21195
892.717	21401
892.839	21218
892.962	21431
893.085	21382
893.207	21203
893.33	21032
893.452	21127
893.575	21332
893.697	21195
893.819	21431
893.941	21496
894.064	21435
894.186	21260
894.308	21249
894.43	21408
894.552	21450
894.674	21344
894.796	21135
894.918	21218
895.04	21180
895.161	21260
895.283	21291
895.405	21127
895.526	21157
895.648	21226
895.769	21237
895.891	21264
896.012	21469
896.134	21351
896.255	21268
896.376	21180
896.498	21306
896.619	21370
896.74	21329
896.861	21374
896.982	21603
897.103	21743
897.224	21679
897.345	21545
897.466	21435
897.587	21351
897.708	21671
897.828	21633
897.949	21428
898.07	21302
898.19	21370
898.311	21428
898.431	21336
898.552	21515
898.672	21545
898.792	21454
898.913	21336
899.033	21272
899.153	21233
899.273	21131
899.393	21211
899.513	21260
899.633	21184
899.753	21275
899.873	21108
899.993	21173
900.113	21112
900.232	21176
900.352	21135
900.472	20975
900.591	21024
900.711	20925
900.83	20963
900.95	21032
901.069	21009
901.189	20800
901.308	20571
901.427	20488
901.546	20560
901.665	20511
901.784	20427
901.904	20389
902.023	20298
902.141	20096
902.26	20096
902.379	20046
902.498	20065
902.617	19959
902.735	20119
902.854	20005
902.973	19894
903.091	19769
903.21	19689
903.328	19563
903.446	19430
903.565	19502
903.683	19422
903.801	19297
903.919	19400
904.038	19460
904.156	19187
904.274	19369
904.392	19179
904.51	19259
904.627	19107
904.745	19194
904.863	19259
904.981	19015
905.098	18863
905.216	18772
905.334	18760
905.451	18890
905.569	18833
905.686	18859
905.803	18726
905.921	18612
906.038	18608
906.155	18517
906.272	18597
906.389	18486
906.506	18464
906.623	18395
906.74	18365
906.857	18251
906.974	18292
907.091	18433
907.208	18437
907.324	18471
907.441	18254
907.557	18079
907.674	18091
907.79	18011
907.907	18015
908.023	18060
908.139	17923
908.256	17988
908.372	17996
908.488	17935
908.604	17847
908.72	17832
908.836	17714
908.952	17707
909.068	17764
909.184	17817
909.3	17699
909.415	17680
909.531	17672
909.647	17570
909.762	17429
909.878	17467
909.993	17429
910.108	17463
910.224	17421
910.339	17379
910.454	17307
910.57	17269
910.685	17254
910.8	17448
910.915	17417
911.03	17265
911.145	17113
911.259	16991
911.374	17014
911.489	16938
911.604	16900
911.718	16645
911.833	16778
911.947	16611
912.062	16596
912.176	16755
912.291	16736
912.405	16763
912.519	16938
912.633	16957
912.748	16839
912.862	16713
912.976	16561
913.09	16512
913.204	16516
913.318	16561
913.431	16611
913.545	16558
913.659	16569
913.772	16516
913.886	16352
914	16379
914.113	16462
914.226	16382
914.34	16367
914.453	16310
914.566	16257
914.68	16253
914.793	16223
914.906	16055
915.019	15922
915.132	15857
915.245	15930
915.358	16002
915.47	15915
915.583	15865
915.696	15876
915.809	15983
915.921	16048
916.034	15854
916.146	15861
916.259	15724
916.371	15892
916.483	15915
916.595	15720
916.708	15663
916.82	15610
916.932	15545
917.044	15625
917.156	15557
917.268	15496
917.38	15542
917.491	15511
917.603	15458
917.715	15606
917.826	15576
917.938	15492
918.049	15336
918.161	15382
918.272	15542
918.384	15591
918.495	15447
918.606	15249
918.717	15180
918.828	15279
918.939	15298
919.05	15302
919.161	15245
919.272	15017
919.383	15150
919.494	15184
919.604	15450
919.715	15256
919.826	15138
919.936	15298
920.047	15351
920.157	15298
920.267	15435
920.378	15275
920.488	15184
920.598	15306
920.708	15435
920.818	15291
920.928	15359
921.038	15424
921.148	15412
921.258	15157
921.368	15028
921.477	14906
921.587	14838
921.697	14758
921.806	14963
921.916	14727
922.025	14610
922.134	14533
922.244	14530
922.353	14518
922.462	14480
922.571	14381
922.68	14259
922.789	14142
922.898	14191
923.007	14180
923.116	14229
923.224	14202
923.333	14050
923.442	13978
923.55	13906
923.659	14035
923.767	13982
923.876	13967
923.984	14001
924.092	13906
924.201	14062
924.309	13830
924.417	13887
924.525	13852
924.633	13799
924.741	14610
924.849	13548
924.956	13750
925.064	13495
925.172	13506
925.279	13529
925.387	13571
925.494	13590
925.602	13651
925.709	13651
925.816	13449
925.924	13491
926.031	13544
926.138	13514
926.245	13563
926.352	13445
926.459	13415
926.566	13533
926.673	13289
926.779	13301
926.886	13247
926.993	13141
927.099	13095
927.206	12977
927.312	13042
927.419	13137
927.525	13137
927.631	13091
927.737	13000
927.843	12962
927.95	12913
928.056	12913
928.162	12966
928.267	12875
928.373	13441
928.479	12932
928.585	12730
928.69	12897
928.796	12856
928.901	12779
929.007	12642
929.112	12692
929.218	12726
929.323	12616
929.428	12601
929.533	12677
929.638	12502
929.743	12498
929.848	12620
929.953	12536
930.058	12448
930.163	12304
930.267	12273
930.372	12353
930.477	12197
930.581	12460
930.685	12289
930.79	12095
930.894	12178
930.998	12079
931.103	12171
931.207	11897
931.311	11672
931.415	11668
931.519	11566
931.623	11410
