Data from test_V78500241_2935.txt Node
Date: Fri Mar 25 16:02:07 CST 2022
User: usil
Spectrometer: V785-0024
Trigger mode: 0
Integration Time (sec): 4.000000E-1
Scans to average: 1
Nonlinearity correction enabled: false
Boxcar width: 0
Storing dark spectrum: false
XAxis mode: Wavelengths
Number of Pixels in Spectrum: 1024
>>>>>Begin Spectral Data<<<<<
801.071	28516
801.214	28401
801.356	28021
801.499	28196
801.641	28086
801.783	28010
801.926	28192
802.068	28040
802.211	28010
802.353	27987
802.496	27762
802.638	27827
802.78	27736
802.923	27690
803.065	27770
803.208	27637
803.35	27800
803.492	27770
803.635	28036
803.777	27819
803.919	27964
804.061	28306
804.204	28006
804.346	28078
804.488	27983
804.63	27930
804.773	28017
804.915	28162
805.057	28120
805.199	28074
805.341	28025
805.483	28219
805.626	28135
805.768	28105
805.91	28010
806.052	28196
806.194	27949
806.336	28306
806.478	28143
806.62	28314
806.762	28375
806.904	28379
807.046	28691
807.188	28592
807.33	28557
807.472	28656
807.614	28500
807.756	28649
807.898	28497
808.04	28405
808.182	28329
808.324	28436
808.465	28596
808.607	28752
808.749	28885
808.891	28953
809.033	28927
809.174	28915
809.316	28797
809.458	28710
809.6	28721
809.741	28972
809.883	28976
810.025	29075
810.166	29102
810.308	29003
810.45	29060
810.591	29060
810.733	28987
810.875	28793
811.016	28706
811.158	28774
811.299	28968
811.441	29033
811.582	29105
811.724	28866
811.865	28835
812.007	28790
812.148	28831
812.29	28995
812.431	28980
812.573	29265
812.714	29315
812.855	29322
812.997	29554
813.138	29649
813.279	29528
813.421	29429
813.562	29406
813.703	29166
813.845	28965
813.986	28816
814.127	28516
814.268	28577
814.41	28645
814.551	28481
814.692	28622
814.833	28329
814.974	28500
815.115	28424
815.256	28421
815.397	28363
815.539	28371
815.68	28367
815.821	28261
815.962	28447
816.103	28325
816.244	28166
816.385	28116
816.526	28063
816.666	27956
816.807	27850
816.948	28044
817.089	27941
817.23	27842
817.371	27781
817.512	27709
817.653	27720
817.793	27865
817.934	27842
818.075	27823
818.216	27797
818.356	27743
818.497	27793
818.638	27557
818.778	27450
818.919	27682
819.06	27557
819.2	27720
819.341	27903
819.481	28002
819.622	28048
819.762	28242
819.903	28226
820.043	28051
820.184	27983
820.324	28021
820.465	28006
820.605	27911
820.746	27941
820.886	27751
821.026	27842
821.167	27865
821.307	27964
821.447	27934
821.588	27781
821.728	27568
821.868	27553
822.008	27382
822.149	27321
822.289	27165
822.429	27036
822.569	26994
822.709	26952
822.849	26769
822.99	26754
823.13	26811
823.27	26621
823.41	26754
823.55	26507
823.69	26777
823.83	26636
823.97	26575
824.11	26594
824.25	26469
824.389	26488
824.529	26507
824.669	26446
824.809	26530
824.949	26465
825.089	26663
825.228	26442
825.368	26313
825.508	26404
825.648	26324
825.787	26358
825.927	26453
826.067	26256
826.206	26317
826.346	26457
826.485	26419
826.625	26381
826.765	26453
826.904	26343
827.044	26008
827.183	26016
827.323	26214
827.462	26161
827.601	26027
827.741	26039
827.88	26065
828.02	26005
828.159	26008
828.298	26126
828.437	26043
828.577	25928
828.716	26100
828.855	25909
828.994	25852
829.134	25750
829.273	25715
829.412	25734
829.551	25628
829.69	25742
829.829	25868
829.968	25860
830.107	25708
830.246	25776
830.385	25529
830.524	25712
830.663	25662
830.802	25487
830.941	25468
831.08	25202
831.219	25556
831.357	25381
831.496	25639
831.635	25373
831.774	25247
831.913	25255
832.051	25114
832.19	25084
832.329	25179
832.467	25095
832.606	25072
832.744	24977
832.883	24932
833.022	24920
833.16	25069
833.299	25099
833.437	24966
833.576	25129
833.714	25171
833.852	25129
833.991	25129
834.129	25107
834.267	25179
834.406	25084
834.544	25126
834.682	25179
834.821	25038
834.959	25255
835.097	25076
835.235	25034
835.373	25031
835.511	25080
835.65	24985
835.788	24947
835.926	24798
836.064	24574
836.202	24753
836.34	24905
836.478	25042
836.615	24875
836.753	24905
836.891	24981
837.029	24878
837.167	24837
837.305	24924
837.443	24856
837.58	24753
837.718	24715
837.856	24768
837.993	24749
838.131	24741
838.269	24505
838.406	24578
838.544	24700
838.681	24319
838.819	24357
838.956	24201
839.094	24270
839.231	24296
839.369	24376
839.506	24551
839.643	24475
839.781	24201
839.918	24079
840.055	24163
840.193	24258
840.33	24079
840.467	24076
840.604	24152
840.742	24330
840.879	24022
841.016	23988
841.153	24136
841.29	24182
841.427	24167
841.564	24243
841.701	24079
841.838	24041
841.975	24003
842.112	24098
842.249	23950
842.385	23836
842.522	24011
842.659	23950
842.796	23703
842.933	23824
843.069	23889
843.206	23916
843.343	24038
843.479	23942
843.616	23775
843.752	23668
843.889	23668
844.025	23817
844.162	23497
844.298	23710
844.435	23665
844.571	23562
844.708	23665
844.844	23916
844.98	23805
845.117	23790
845.253	23539
845.389	23619
845.525	23539
845.661	23478
845.798	23425
845.934	23311
846.07	23356
846.206	23406
846.342	23474
846.478	23406
846.614	23193
846.75	23067
846.886	23223
847.022	23067
847.158	23162
847.294	23083
847.429	23006
847.565	23197
847.701	23235
847.837	22946
847.972	22835
848.108	23041
848.244	22911
848.379	22736
848.515	22782
848.65	22740
848.786	22626
848.921	22668
849.057	22858
849.192	22858
849.328	22675
849.463	22752
849.598	22531
849.734	22618
849.869	22493
850.004	22588
850.14	22436
850.275	22413
850.41	22390
850.545	22394
850.68	22367
850.815	22428
850.95	22584
851.085	22618
851.22	22694
851.355	22561
851.49	22493
851.625	22443
851.76	22474
851.895	22356
852.03	22382
852.165	22554
852.299	22615
852.434	22634
852.569	22470
852.703	22577
852.838	22413
852.973	22618
853.107	22493
853.242	22421
853.376	22443
853.511	22287
853.645	22200
853.78	22322
853.914	22318
854.048	22333
854.183	22272
854.317	22375
854.451	22493
854.585	22234
854.72	22299
854.854	22531
854.988	22211
855.122	22314
855.256	22200
855.39	22337
855.524	22390
855.658	22405
855.792	22268
855.926	22341
856.06	22348
856.194	22386
856.327	22196
856.461	22268
856.595	22169
856.729	22341
856.862	22371
856.996	22325
857.13	22261
857.263	22417
857.397	22527
857.53	22272
857.664	22398
857.797	22402
857.931	22348
858.064	22337
858.197	22280
858.331	22272
858.464	22257
858.597	22139
858.731	22257
858.864	22284
858.997	22405
859.13	22360
859.263	22451
859.396	22386
859.529	22177
859.662	22341
859.795	22257
859.928	22371
860.061	22481
860.194	22489
860.327	22348
860.46	22413
860.592	22318
860.725	22466
860.858	22462
860.99	22246
861.123	22116
861.256	22238
861.388	22333
861.521	23121
861.653	22154
861.786	22112
861.918	22135
862.05	22200
862.183	22135
862.315	22196
862.447	22253
862.58	22211
862.712	22063
862.844	21968
862.976	22090
863.108	22010
863.24	22402
863.372	21861
863.504	22029
863.636	22013
863.768	22109
863.9	21953
864.032	21941
864.164	22040
864.296	22128
864.428	22169
864.559	22086
864.691	22169
864.823	21956
864.954	21960
865.086	21915
865.217	22063
865.349	21800
865.48	21869
865.612	21842
865.743	22040
865.875	21926
866.006	21736
866.137	21911
866.269	21884
866.4	21827
866.531	21831
866.662	21747
866.793	21789
866.924	21728
867.055	21884
867.186	21960
867.317	21755
867.448	21694
867.579	21819
867.71	21857
867.841	21869
867.972	21899
868.103	21720
868.233	21838
868.364	21808
868.495	21994
868.625	22097
868.756	22040
868.886	22109
869.017	22040
869.147	22074
869.278	22090
869.408	22086
869.539	21934
869.669	22249
869.799	22078
869.929	22223
870.06	22196
870.19	22409
870.32	22462
870.45	22398
870.58	22485
870.71	22615
870.84	22649
870.97	22443
871.1	22405
871.23	22698
871.36	22641
871.489	22500
871.619	22733
871.749	22573
871.879	22771
872.008	22710
872.138	22668
872.267	22736
872.397	22527
872.526	22508
872.656	22523
872.785	22386
872.915	22733
873.044	22721
873.173	22767
873.303	22717
873.432	22752
873.561	22675
873.69	22641
873.819	22649
873.948	22774
874.077	22862
874.206	22637
874.335	22588
874.464	22797
874.593	22908
874.722	22816
874.851	22949
874.979	22980
875.108	22946
875.237	22885
875.365	22850
875.494	22938
875.623	23018
875.751	22824
875.88	22923
876.008	23113
876.136	23052
876.265	23265
876.393	23421
876.521	23414
876.65	23448
876.778	23315
876.906	23258
877.034	23193
877.162	23261
877.29	23239
877.418	23204
877.546	23292
877.674	23368
877.802	23376
877.93	23246
878.058	23239
878.185	23193
878.313	23151
878.441	23345
878.568	22976
878.696	23189
878.824	23258
878.951	23322
879.079	23410
879.206	23551
879.333	23417
879.461	23315
879.588	23417
879.715	23429
879.842	23444
879.97	23288
880.097	23098
880.224	22980
880.351	23121
880.478	23105
880.605	23048
880.732	23052
880.859	23330
880.986	23029
881.112	23079
881.239	22930
881.366	22831
881.493	22694
881.619	22774
881.746	22588
881.872	22698
881.999	22630
882.125	22577
882.252	22694
882.378	22599
882.505	22698
882.631	22504
882.757	22474
882.883	22379
883.01	22234
883.136	22337
883.262	22223
883.388	22131
883.514	22337
883.64	22322
883.766	22211
883.892	21956
884.018	22055
884.143	22196
884.269	22291
884.395	22131
884.52	21937
884.646	22067
884.772	21854
884.897	21823
885.023	21934
885.148	21956
885.274	21994
885.399	22044
885.524	21964
885.65	21937
885.775	22006
885.9	21838
886.025	22063
886.15	21991
886.275	21842
886.4	21770
886.525	21880
886.65	21884
886.775	21960
886.9	22048
887.025	22112
887.149	21831
887.274	21854
887.399	21762
887.523	21717
887.648	21633
887.773	21526
887.897	21686
888.021	21759
888.146	21644
888.27	21675
888.395	21785
888.519	21770
888.643	21667
888.767	21587
888.891	21496
889.015	21568
889.139	21431
889.263	21408
889.387	21583
889.511	21686
889.635	21507
889.759	21443
889.883	21504
890.006	21481
890.13	21542
890.254	21382
890.377	21431
890.501	21214
890.624	21203
890.748	21298
890.871	21116
890.995	21036
891.118	21104
891.241	20967
891.364	21024
891.488	21043
891.611	20956
891.734	21020
891.857	21119
891.98	21089
892.103	21070
892.226	20986
892.349	20914
892.471	20845
892.594	20982
892.717	20952
892.839	20914
892.962	20975
893.085	20960
893.207	20864
893.33	20823
893.452	20788
893.575	20998
893.697	20899
893.819	21039
893.941	21058
894.064	20975
894.186	20819
894.308	20864
894.43	20956
894.552	21089
894.674	21013
894.796	20830
894.918	20944
895.04	20880
895.161	20910
895.283	20937
895.405	20838
895.526	20986
895.648	20826
895.769	20982
895.891	20910
896.012	21009
896.134	20948
896.255	20937
896.376	20861
896.498	20899
896.619	20956
896.74	20887
896.861	20921
896.982	21169
897.103	21420
897.224	21169
897.345	21062
897.466	21081
897.587	21154
897.708	21310
897.828	21150
897.949	21085
898.07	20914
898.19	21028
898.311	21157
898.431	20956
898.552	21036
898.672	21138
898.792	21116
898.913	21241
899.033	20937
899.153	20986
899.273	20811
899.393	20739
899.513	20975
899.633	20826
899.753	20823
899.873	20807
899.993	20880
900.113	20807
900.232	20861
900.352	20781
900.472	20743
900.591	20537
900.711	20670
900.83	20564
900.95	20663
901.069	20667
901.189	20457
901.308	20328
901.427	20054
901.546	20187
901.665	20214
901.784	20164
901.904	20092
902.023	19986
902.141	19807
902.26	19753
902.379	19788
902.498	19734
902.617	19674
902.735	19712
902.854	19658
902.973	19689
903.091	19426
903.21	19308
903.328	19312
903.446	19228
903.565	19259
903.683	19232
903.801	19034
903.919	19107
904.038	19076
904.156	18947
904.274	18985
904.392	18894
904.51	18939
904.627	18905
904.745	18939
904.863	18924
904.981	18802
905.098	18623
905.216	18608
905.334	18597
905.451	18574
905.569	18513
905.686	18635
905.803	18540
905.921	18467
906.038	18528
906.155	18361
906.272	18201
906.389	18285
906.506	18072
906.623	18079
906.74	18251
906.857	18095
906.974	18091
907.091	18213
907.208	18266
907.324	18079
907.441	17977
907.557	17920
907.674	17836
907.79	17699
907.907	17745
908.023	17824
908.139	17783
908.256	17707
908.372	17714
908.488	17722
908.604	17615
908.72	17471
908.836	17566
908.952	17493
909.068	17558
909.184	17615
909.3	17554
909.415	17535
909.531	17509
909.647	17250
909.762	17239
909.878	17124
909.993	17269
910.108	17254
910.224	17181
910.339	17140
910.454	17155
910.57	16934
910.685	17124
910.8	17334
910.915	17162
911.03	17060
911.145	16961
911.259	16759
911.374	16854
911.489	16763
911.604	16782
911.718	16455
911.833	16615
911.947	16470
912.062	16527
912.176	16558
912.291	16584
912.405	16527
912.519	16778
912.633	16615
912.748	16679
912.862	16550
912.976	16394
913.09	16234
913.204	16348
913.318	16375
913.431	16398
913.545	16443
913.659	16497
913.772	16303
913.886	16185
914	16162
914.113	16234
914.226	16257
914.34	16200
914.453	16029
914.566	16147
914.68	16063
914.793	16010
914.906	15861
915.019	15785
915.132	15698
915.245	15759
915.358	15720
915.47	15804
915.583	15728
915.696	15686
915.809	15857
915.921	15888
916.034	15793
916.146	15652
916.259	15698
916.371	15682
916.483	15618
916.595	15534
916.708	15526
916.82	15488
916.932	15473
917.044	15504
917.156	15469
917.268	15378
917.38	15450
917.491	15344
917.603	15332
917.715	15355
917.826	15332
917.938	15340
918.049	15283
918.161	15264
918.272	15393
918.384	15450
918.495	15382
918.606	15211
918.717	14994
918.828	15070
918.939	15108
919.05	15047
919.161	15062
919.272	14845
919.383	14963
919.494	15249
919.604	15264
919.715	15039
919.826	15001
919.936	15119
920.047	15226
920.157	15066
920.267	15245
920.378	15104
920.488	15062
920.598	15211
920.708	15325
920.818	15180
920.928	15161
921.038	15332
921.148	15348
921.258	14979
921.368	14883
921.477	14929
921.587	14769
921.697	14636
921.806	14754
921.916	14765
922.025	14488
922.134	14476
922.244	14450
922.353	14469
922.462	14381
922.571	14263
922.68	14084
922.789	14020
922.898	14062
923.007	13978
923.116	14111
923.224	14096
923.333	13993
923.442	13936
923.55	13928
923.659	13940
923.767	13917
923.876	13868
923.984	13864
924.092	13746
924.201	13818
924.309	13769
924.417	13746
924.525	13750
924.633	13734
924.741	14644
924.849	13639
924.956	13670
925.064	13548
925.172	13537
925.279	13468
925.387	13453
925.494	13514
925.602	13567
925.709	13483
925.816	13369
925.924	13430
926.031	13491
926.138	13369
926.245	13316
926.352	13293
926.459	13441
926.566	13434
926.673	13354
926.779	13225
926.886	13221
926.993	13084
927.099	13095
927.206	12894
927.312	12909
927.419	13084
927.525	12935
927.631	13031
927.737	12935
927.843	12844
927.95	12719
928.056	12806
928.162	12814
928.267	12886
928.373	13438
928.479	12920
928.585	12593
928.69	12856
928.796	12791
928.901	12696
929.007	12593
929.112	12749
929.218	12566
929.323	12540
929.428	12429
929.533	12650
929.638	12403
929.743	12544
929.848	12517
929.953	12483
930.058	12353
930.163	12163
930.267	12220
930.372	12353
930.477	12102
930.581	12300
930.685	12197
930.79	12064
930.894	12060
930.998	12079
931.103	12175
931.207	11897
931.311	11756
931.415	11657
931.519	11463
931.623	11471
