Data from test_V78500241_1297.txt Node
Date: Fri Mar 25 15:50:47 CST 2022
User: usil
Spectrometer: V785-0024
Trigger mode: 0
Integration Time (sec): 4.000000E-1
Scans to average: 1
Nonlinearity correction enabled: false
Boxcar width: 0
Storing dark spectrum: false
XAxis mode: Wavelengths
Number of Pixels in Spectrum: 1024
>>>>>Begin Spectral Data<<<<<
801.071	28310
801.214	28447
801.356	28207
801.499	28097
801.641	27972
801.783	28067
801.926	28048
802.068	27941
802.211	27975
802.353	27800
802.496	27774
802.638	27682
802.78	27663
802.923	27808
803.065	27671
803.208	27622
803.35	27667
803.492	27759
803.635	27812
803.777	27774
803.919	27819
804.061	28059
804.204	27945
804.346	27873
804.488	27816
804.63	27991
804.773	27873
804.915	27960
805.057	27914
805.199	27930
805.341	28051
805.483	28051
805.626	28135
805.768	27865
805.91	27994
806.052	28067
806.194	27914
806.336	28196
806.478	28093
806.62	28147
806.762	28371
806.904	28367
807.046	28580
807.188	28405
807.33	28557
807.472	28615
807.614	28508
807.756	28440
807.898	28459
808.04	28253
808.182	28508
808.324	28474
808.465	28485
808.607	28440
808.749	28675
808.891	28896
809.033	28900
809.174	28805
809.316	28710
809.458	28656
809.6	28831
809.741	28908
809.883	28919
810.025	28999
810.166	28923
810.308	29083
810.45	28923
810.591	29064
810.733	28862
810.875	28801
811.016	28493
811.158	28535
811.299	28854
811.441	28972
811.582	28847
811.724	28721
811.865	28793
812.007	28607
812.148	28843
812.29	28790
812.431	28911
812.573	29033
812.714	29277
812.855	29318
812.997	29292
813.138	29364
813.279	29383
813.421	29372
813.562	29242
813.703	29162
813.845	29079
813.986	28618
814.127	28584
814.268	28554
814.41	28493
814.551	28367
814.692	28500
814.833	28451
814.974	28390
815.115	28417
815.256	28379
815.397	28344
815.539	28386
815.68	28310
815.821	28188
815.962	28382
816.103	28230
816.244	28109
816.385	28070
816.526	28143
816.666	27895
816.807	27736
816.948	27854
817.089	27846
817.23	27762
817.371	27922
817.512	27850
817.653	27816
817.793	27884
817.934	27759
818.075	27720
818.216	27812
818.356	27618
818.497	27519
818.638	27526
818.778	27435
818.919	27599
819.06	27587
819.2	27637
819.341	27743
819.481	27816
819.622	27975
819.762	28055
819.903	27914
820.043	27945
820.184	27903
820.324	27846
820.465	27953
820.605	27869
820.746	27911
820.886	27709
821.026	27861
821.167	27835
821.307	27842
821.447	27728
821.588	27770
821.728	27526
821.868	27473
822.008	27256
822.149	27336
822.289	27249
822.429	27142
822.569	26864
822.709	27024
822.849	26826
822.99	26853
823.13	26906
823.27	26777
823.41	26598
823.55	26549
823.69	26648
823.83	26602
823.97	26564
824.11	26404
824.25	26408
824.389	26438
824.529	26476
824.669	26492
824.809	26476
824.949	26507
825.089	26499
825.228	26530
825.368	26343
825.508	26419
825.648	26438
825.787	26278
825.927	26389
826.067	26271
826.206	26362
826.346	26415
826.485	26267
826.625	26385
826.765	26431
826.904	26351
827.044	26054
827.183	26134
827.323	25909
827.462	26008
827.601	25871
827.741	26103
827.88	26005
828.02	25849
828.159	25959
828.298	25974
828.437	26100
828.577	25982
828.716	26073
828.855	26005
828.994	25807
829.134	25700
829.273	25761
829.412	25769
829.551	25624
829.69	25723
829.829	25738
829.968	25795
830.107	25856
830.246	25594
830.385	25609
830.524	25578
830.663	25578
830.802	25445
830.941	25289
831.08	25407
831.219	25472
831.357	25259
831.496	25495
831.635	25343
831.774	25327
831.913	25202
832.051	25042
832.19	25122
832.329	25301
832.467	25027
832.606	24901
832.744	25015
832.883	25046
833.022	24970
833.16	24951
833.299	25027
833.437	25088
833.576	25107
833.714	25187
833.852	24992
833.991	25179
834.129	25141
834.267	25042
834.406	25080
834.544	25065
834.682	25114
834.821	24939
834.959	25206
835.097	24947
835.235	25156
835.373	25042
835.511	25027
835.65	24909
835.788	24878
835.926	24817
836.064	24692
836.202	24677
836.34	24776
836.478	25065
836.615	24871
836.753	24863
836.891	24890
837.029	25008
837.167	24867
837.305	24730
837.443	24760
837.58	24612
837.718	24711
837.856	24738
837.993	24684
838.131	24764
838.269	24616
838.406	24528
838.544	24597
838.681	24357
838.819	24448
838.956	24216
839.094	24038
839.231	24205
839.369	24399
839.506	24700
839.643	24437
839.781	24148
839.918	24038
840.055	24319
840.193	24098
840.33	23980
840.467	24258
840.604	24079
840.742	24338
840.879	23961
841.016	24034
841.153	24041
841.29	24194
841.427	24228
841.564	24117
841.701	24121
841.838	24068
841.975	23942
842.112	24060
842.249	23912
842.385	23775
842.522	24022
842.659	23866
842.796	23840
842.933	23817
843.069	23828
843.206	23745
843.343	23878
843.479	23672
843.616	23786
843.752	23573
843.889	23570
844.025	23699
844.162	23528
844.298	23634
844.435	23619
844.571	23642
844.708	23752
844.844	23783
844.98	23691
845.117	23695
845.253	23452
845.389	23512
845.525	23611
845.661	23497
845.798	23383
845.934	23452
846.07	23318
846.206	23326
846.342	23482
846.478	23311
846.614	23136
846.75	22953
846.886	23124
847.022	23128
847.158	23151
847.294	23067
847.429	23083
847.565	22976
847.701	23254
847.837	22691
847.972	22759
848.108	22854
848.244	22839
848.379	22683
848.515	22618
848.65	22577
848.786	22713
848.921	22767
849.057	22717
849.192	22767
849.328	22672
849.463	22672
849.598	22508
849.734	22493
849.869	22569
850.004	22421
850.14	22504
850.275	22459
850.41	22348
850.545	22379
850.68	22405
850.815	22485
850.95	22523
851.085	22637
851.22	22500
851.355	22337
851.49	22421
851.625	22493
851.76	22421
851.895	22352
852.03	22382
852.165	22405
852.299	22554
852.434	22531
852.569	22523
852.703	22424
852.838	22550
852.973	22436
853.107	22531
853.242	22398
853.376	22325
853.511	22200
853.645	22200
853.78	22398
853.914	22226
854.048	22268
854.183	22299
854.317	22390
854.451	22421
854.585	22242
854.72	22257
854.854	22382
854.988	22234
855.122	22196
855.256	22040
855.39	22272
855.524	22246
855.658	22280
855.792	22204
855.926	22211
856.06	22284
856.194	22291
856.327	22238
856.461	22188
856.595	22181
856.729	22265
856.862	22390
856.996	22299
857.13	22166
857.263	22196
857.397	22314
857.53	22230
857.664	22272
857.797	22291
857.931	22211
858.064	22299
858.197	22276
858.331	22223
858.464	22101
858.597	22101
858.731	22386
858.864	22253
858.997	22147
859.13	22207
859.263	22162
859.396	22356
859.529	22185
859.662	22219
859.795	22284
859.928	22158
860.061	22451
860.194	22409
860.327	22318
860.46	22261
860.592	22424
860.725	22322
860.858	22230
860.99	22329
861.123	22082
861.256	22192
861.388	22204
861.521	23010
861.653	22150
861.786	22188
861.918	22070
862.05	22158
862.183	22154
862.315	22181
862.447	22238
862.58	22021
862.712	21911
862.844	21941
862.976	21937
863.108	22101
863.24	22333
863.372	21789
863.504	21918
863.636	21922
863.768	22002
863.9	21899
864.032	21842
864.164	21785
864.296	22101
864.428	22006
864.559	21994
864.691	22013
864.823	22002
864.954	21926
865.086	21915
865.217	21876
865.349	21850
865.48	21846
865.612	21781
865.743	22010
865.875	21797
866.006	21770
866.137	21835
866.269	21713
866.4	21755
866.531	21755
866.662	21656
866.793	21679
866.924	21755
867.055	21778
867.186	21614
867.317	21648
867.448	21747
867.579	21766
867.71	21720
867.841	21686
867.972	21766
868.103	21774
868.233	21762
868.364	21816
868.495	21873
868.625	22006
868.756	22044
868.886	21892
869.017	21964
869.147	21987
869.278	22090
869.408	22051
869.539	21964
869.669	22105
869.799	22188
869.929	22048
870.06	22082
870.19	22211
870.32	22295
870.45	22424
870.58	22333
870.71	22497
870.84	22440
870.97	22329
871.1	22455
871.23	22485
871.36	22402
871.489	22500
871.619	22531
871.749	22535
871.879	22554
872.008	22710
872.138	22634
872.267	22584
872.397	22375
872.526	22569
872.656	22409
872.785	22493
872.915	22615
873.044	22824
873.173	22630
873.303	22774
873.432	22577
873.561	22653
873.69	22588
873.819	22542
873.948	22698
874.077	22599
874.206	22577
874.335	22565
874.464	22656
874.593	22873
874.722	22809
874.851	22942
874.979	22843
875.108	22835
875.237	22744
875.365	22736
875.494	22767
875.623	22934
875.751	22752
875.88	22786
876.008	22911
876.136	22881
876.265	23277
876.393	23322
876.521	23360
876.65	23185
876.778	23303
876.906	23132
877.034	23147
877.162	23162
877.29	23147
877.418	23079
877.546	23140
877.674	23132
877.802	23208
877.93	23090
878.058	23147
878.185	23064
878.313	23113
878.441	23105
878.568	23075
878.696	23197
878.824	23223
878.951	23189
879.079	23288
879.206	23429
879.333	23448
879.461	23140
879.588	23269
879.715	23345
879.842	23490
879.97	23235
880.097	23006
880.224	23018
880.351	22976
880.478	23071
880.605	22809
880.732	22987
880.859	23151
880.986	23109
881.112	22927
881.239	22767
881.366	22702
881.493	22706
881.619	22546
881.746	22607
881.872	22561
881.999	22382
882.125	22474
882.252	22561
882.378	22447
882.505	22497
882.631	22447
882.757	22147
882.883	22272
883.01	22295
883.136	22211
883.262	22059
883.388	22040
883.514	22109
883.64	22341
883.766	22150
883.892	21968
884.018	22101
884.143	22291
884.269	22249
884.395	22010
884.52	21857
884.646	21766
884.772	21759
884.897	21728
885.023	21816
885.148	21918
885.274	21972
885.399	21930
885.524	21876
885.65	21770
885.775	21953
885.9	21854
886.025	22051
886.15	21892
886.275	21789
886.4	21739
886.525	21774
886.65	21793
886.775	21808
886.9	21895
887.025	22086
887.149	21747
887.274	21648
887.399	21545
887.523	21595
887.648	21591
887.773	21553
887.897	21519
888.021	21644
888.146	21606
888.27	21728
888.395	21686
888.519	21663
888.643	21583
888.767	21652
888.891	21420
889.015	21321
889.139	21515
889.263	21443
889.387	21530
889.511	21652
889.635	21523
889.759	21382
889.883	21355
890.006	21412
890.13	21561
890.254	21283
890.377	21355
890.501	21161
890.624	21154
890.748	21157
890.871	20982
890.995	20887
891.118	20944
891.241	21043
891.364	21024
891.488	21013
891.611	21066
891.734	20933
891.857	20990
891.98	20986
892.103	20902
892.226	21005
892.349	20899
892.471	20720
892.594	20792
892.717	20910
892.839	20895
892.962	20918
893.085	20872
893.207	20796
893.33	20678
893.452	20785
893.575	20857
893.697	20838
893.819	20952
893.941	21036
894.064	21017
894.186	20750
894.308	20762
894.43	20902
894.552	20895
894.674	20960
894.796	20792
894.918	20743
895.04	20716
895.161	20762
895.283	20853
895.405	20792
895.526	20929
895.648	20864
895.769	20826
895.891	20921
896.012	20861
896.134	20849
896.255	20994
896.376	20826
896.498	20857
896.619	20864
896.74	20868
896.861	20902
896.982	21096
897.103	21188
897.224	21036
897.345	21028
897.466	20979
897.587	21020
897.708	21043
897.828	21161
897.949	21081
898.07	20773
898.19	20956
898.311	21112
898.431	21036
898.552	21013
898.672	21161
898.792	21119
898.913	21100
899.033	20823
899.153	20876
899.273	20629
899.393	20857
899.513	20758
899.633	20781
899.753	20815
899.873	20716
899.993	20864
900.113	20587
900.232	20785
900.352	20678
900.472	20674
900.591	20507
900.711	20575
900.83	20457
900.95	20621
901.069	20598
901.189	20374
901.308	20077
901.427	20168
901.546	20172
901.665	20191
901.784	20134
901.904	20077
902.023	19864
902.141	19734
902.26	19582
902.379	19811
902.498	19666
902.617	19548
902.735	19666
902.854	19651
902.973	19556
903.091	19453
903.21	19339
903.328	19331
903.446	19190
903.565	19141
903.683	19148
903.801	18966
903.919	19050
904.038	19027
904.156	18757
904.274	18932
904.392	18696
904.51	18791
904.627	18825
904.745	18848
904.863	18764
904.981	18612
905.098	18441
905.216	18544
905.334	18467
905.451	18513
905.569	18426
905.686	18528
905.803	18479
905.921	18353
906.038	18483
906.155	18319
906.272	18266
906.389	18216
906.506	18030
906.623	18057
906.74	18060
906.857	17885
906.974	17866
907.091	18121
907.208	18117
907.324	18026
907.441	17973
907.557	17824
907.674	17729
907.79	17771
907.907	17786
908.023	17699
908.139	17809
908.256	17649
908.372	17611
908.488	17604
908.604	17482
908.72	17532
908.836	17474
908.952	17376
909.068	17493
909.184	17570
909.3	17509
909.415	17524
909.531	17421
909.647	17174
909.762	17109
909.878	17185
909.993	17174
910.108	17090
910.224	17105
910.339	17140
910.454	17029
910.57	16923
910.685	16843
910.8	17200
910.915	17022
911.03	17075
911.145	16812
911.259	16702
911.374	16778
911.489	16744
911.604	16656
911.718	16436
911.833	16603
911.947	16379
912.062	16341
912.176	16558
912.291	16516
912.405	16485
912.519	16558
912.633	16748
912.748	16618
912.862	16421
912.976	16265
913.09	16200
913.204	16291
913.318	16249
913.431	16382
913.545	16356
913.659	16402
913.772	16386
913.886	16105
914	16169
914.113	16200
914.226	16162
914.34	16215
914.453	15911
914.566	16025
914.68	15979
914.793	15884
914.906	15728
915.019	15739
915.132	15595
915.245	15667
915.358	15732
915.47	15717
915.583	15701
915.696	15667
915.809	15793
915.921	15846
916.034	15591
916.146	15568
916.259	15591
916.371	15610
916.483	15622
916.595	15515
916.708	15515
916.82	15595
916.932	15466
917.044	15340
917.156	15367
917.268	15389
917.38	15439
917.491	15256
917.603	15291
917.715	15325
917.826	15313
917.938	15268
918.049	15131
918.161	15188
918.272	15363
918.384	15351
918.495	15199
918.606	15017
918.717	14975
918.828	15081
918.939	15100
919.05	14975
919.161	14963
919.272	14857
919.383	14925
919.494	15062
919.604	15233
919.715	15001
919.826	14902
919.936	14975
920.047	15062
920.157	15047
920.267	15135
920.378	15074
920.488	14872
920.598	15047
920.708	15355
920.818	15184
920.928	15127
921.038	15272
921.148	15180
921.258	14975
921.368	14842
921.477	14716
921.587	14693
921.697	14495
921.806	14731
921.916	14594
922.025	14484
922.134	14393
922.244	14256
922.353	14393
922.462	14240
922.571	14206
922.68	14005
922.789	14077
922.898	13997
923.007	14016
923.116	14020
923.224	14020
923.333	14039
923.442	13883
923.55	13811
923.659	13791
923.767	13947
923.876	13769
923.984	13799
924.092	13738
924.201	13826
924.309	13830
924.417	13719
924.525	13681
924.633	13628
924.741	14499
924.849	13422
924.956	13674
925.064	13430
925.172	13419
925.279	13320
925.387	13434
925.494	13358
925.602	13422
925.709	13441
925.816	13358
925.924	13381
926.031	13358
926.138	13240
926.245	13468
926.352	13278
926.459	13369
926.566	13453
926.673	13285
926.779	13149
926.886	13164
926.993	13019
927.099	12958
927.206	12890
927.312	12852
927.419	12981
927.525	12947
927.631	13000
927.737	12947
927.843	12719
927.95	12700
928.056	12791
928.162	12711
928.267	12802
928.373	13312
928.479	12779
928.585	12681
928.69	12715
928.796	12772
928.901	12635
929.007	12456
929.112	12601
929.218	12525
929.323	12521
929.428	12475
929.533	12642
929.638	12410
929.743	12479
929.848	12483
929.953	12407
930.058	12334
930.163	12182
930.267	12152
930.372	12361
930.477	12110
930.581	12323
930.685	12277
930.79	12068
930.894	12106
930.998	11992
931.103	12136
931.207	11752
931.311	11657
931.415	11634
931.519	11376
931.623	11433
