Data from test_V78500241_2915.txt Node
Date: Fri Mar 25 16:01:59 CST 2022
User: usil
Spectrometer: V785-0024
Trigger mode: 0
Integration Time (sec): 4.000000E-1
Scans to average: 1
Nonlinearity correction enabled: false
Boxcar width: 0
Storing dark spectrum: false
XAxis mode: Wavelengths
Number of Pixels in Spectrum: 1024
>>>>>Begin Spectral Data<<<<<
801.071	28778
801.214	28694
801.356	28504
801.499	28485
801.641	28318
801.783	28348
801.926	28462
802.068	28386
802.211	28299
802.353	28177
802.496	28116
802.638	28006
802.78	28147
802.923	27968
803.065	27922
803.208	28025
803.35	28082
803.492	28215
803.635	28143
803.777	28249
803.919	28169
804.061	28508
804.204	28322
804.346	28147
804.488	28230
804.63	28268
804.773	28181
804.915	28421
805.057	28421
805.199	28341
805.341	28409
805.483	28421
805.626	28382
805.768	28295
805.91	28421
806.052	28398
806.194	28394
806.336	28645
806.478	28401
806.62	28508
806.762	28687
806.904	28687
807.046	28900
807.188	28873
807.33	28820
807.472	28980
807.614	28824
807.756	28915
807.898	28771
808.04	28683
808.182	28618
808.324	28763
808.465	28790
808.607	29014
808.749	29254
808.891	29216
809.033	29402
809.174	29056
809.316	29178
809.458	29159
809.6	29117
809.741	29231
809.883	29303
810.025	29406
810.166	29421
810.308	29535
810.45	29322
810.591	29288
810.733	29189
810.875	29140
811.016	29132
811.158	29060
811.299	29128
811.441	29395
811.582	29265
811.724	29212
811.865	28987
812.007	29216
812.148	29269
812.29	29246
812.431	29417
812.573	29516
812.714	29505
812.855	29737
812.997	29695
813.138	29893
813.279	29817
813.421	29752
813.562	29611
813.703	29414
813.845	29315
813.986	29189
814.127	28968
814.268	28949
814.41	28919
814.551	28839
814.692	28968
814.833	28596
814.974	28744
815.115	28843
815.256	28759
815.397	28767
815.539	28736
815.68	28790
815.821	28588
815.962	28607
816.103	28645
816.244	28550
816.385	28451
816.526	28557
816.666	28306
816.807	28143
816.948	28120
817.089	28303
817.23	28284
817.371	28200
817.512	28207
817.653	28097
817.793	28128
817.934	28226
818.075	28124
818.216	28215
818.356	28109
818.497	28090
818.638	27926
818.778	28044
818.919	27964
819.06	28048
819.2	27975
819.341	28139
819.481	28291
819.622	28401
819.762	28592
819.903	28462
820.043	28398
820.184	28466
820.324	28188
820.465	28398
820.605	28310
820.746	28291
820.886	28268
821.026	28310
821.167	28322
821.307	28329
821.447	28360
821.588	28143
821.728	27983
821.868	27914
822.008	27838
822.149	27663
822.289	27663
822.429	27412
822.569	27427
822.709	27382
822.849	27066
822.99	27272
823.13	27070
823.27	27184
823.41	27032
823.55	26998
823.69	27039
823.83	27116
823.97	26952
824.11	26823
824.25	26743
824.389	26876
824.529	26788
824.669	27013
824.809	26929
824.949	26940
825.089	27001
825.228	26902
825.368	26644
825.508	26663
825.648	26735
825.787	26655
825.927	26773
826.067	26636
826.206	26765
826.346	26952
826.485	26792
826.625	26727
826.765	26830
826.904	26754
827.044	26453
827.183	26545
827.323	26415
827.462	26495
827.601	26469
827.741	26374
827.88	26457
828.02	26301
828.159	26511
828.298	26476
828.437	26400
828.577	26358
828.716	26492
828.855	26324
828.994	26134
829.134	26096
829.273	26073
829.412	26103
829.551	26077
829.69	26157
829.829	26119
829.968	26210
830.107	26237
830.246	26107
830.385	26039
830.524	26027
830.663	25906
830.802	25845
830.941	25666
831.08	25761
831.219	25833
831.357	25814
831.496	26016
831.635	25769
831.774	25499
831.913	25685
832.051	25552
832.19	25521
832.329	25571
832.467	25487
832.606	25369
832.744	25316
832.883	25381
833.022	25468
833.16	25350
833.299	25403
833.437	25373
833.576	25533
833.714	25453
833.852	25483
833.991	25472
834.129	25563
834.267	25464
834.406	25491
834.544	25346
834.682	25445
834.821	25483
834.959	25613
835.097	25346
835.235	25582
835.373	25411
835.511	25358
835.65	25312
835.788	25285
835.926	25198
836.064	24970
836.202	25069
836.34	25316
836.478	25430
836.615	25289
836.753	25301
836.891	25392
837.029	25274
837.167	25255
837.305	25259
837.443	25114
837.58	25285
837.718	25190
837.856	25137
837.993	25088
838.131	25171
838.269	24989
838.406	25103
838.544	24958
838.681	24669
838.819	24745
838.956	24692
839.094	24456
839.231	24669
839.369	24684
839.506	24840
839.643	24810
839.781	24620
839.918	24547
840.055	24559
840.193	24494
840.33	24536
840.467	24498
840.604	24460
840.742	24787
840.879	24399
841.016	24403
841.153	24342
841.29	24433
841.427	24517
841.564	24452
841.701	24494
841.838	24369
841.975	24323
842.112	24334
842.249	24327
842.385	24254
842.522	24456
842.659	24361
842.796	24186
842.933	24174
843.069	24235
843.206	24060
843.343	24365
843.479	24281
843.616	24228
843.752	23977
843.889	24079
844.025	24186
844.162	24045
844.298	24171
844.435	24091
844.571	24060
844.708	24041
844.844	24148
844.98	24171
845.117	24003
845.253	23920
845.389	23874
845.525	23912
845.661	23764
845.798	23805
845.934	23672
846.07	23649
846.206	23687
846.342	23722
846.478	23703
846.614	23547
846.75	23421
846.886	23448
847.022	23562
847.158	23448
847.294	23493
847.429	23680
847.565	23364
847.701	23722
847.837	23208
847.972	23044
848.108	23242
848.244	23265
848.379	23204
848.515	23060
848.65	22927
848.786	23025
848.921	23094
849.057	23064
849.192	23102
849.328	23147
849.463	23200
849.598	23025
849.734	22946
849.869	22774
850.004	22938
850.14	22896
850.275	22812
850.41	22755
850.545	22790
850.68	22881
850.815	22980
850.95	22698
851.085	23071
851.22	23044
851.355	22786
851.49	22816
851.625	22889
851.76	22755
851.895	22782
852.03	22847
852.165	22774
852.299	22904
852.434	22881
852.569	22877
852.703	22835
852.838	22892
852.973	22980
853.107	22995
853.242	22828
853.376	22721
853.511	22519
853.645	22675
853.78	22782
853.914	22733
854.048	22698
854.183	22672
854.317	22744
854.451	22866
854.585	22755
854.72	22706
854.854	22820
854.988	22573
855.122	22645
855.256	22523
855.39	22637
855.524	22675
855.658	22801
855.792	22736
855.926	22710
856.06	22725
856.194	22763
856.327	22630
856.461	22577
856.595	22641
856.729	22717
856.862	22812
856.996	22694
857.13	22748
857.263	22748
857.397	22782
857.53	22759
857.664	22660
857.797	22683
857.931	22725
858.064	22679
858.197	22816
858.331	22622
858.464	22656
858.597	22634
858.731	22645
858.864	22694
858.997	22672
859.13	22717
859.263	22664
859.396	22778
859.529	22653
859.662	22672
859.795	22664
859.928	22580
860.061	22801
860.194	22908
860.327	22797
860.46	22706
860.592	22828
860.725	22812
860.858	22744
860.99	22668
861.123	22599
861.256	22664
861.388	22710
861.521	23406
861.653	22550
861.786	22405
861.918	22462
862.05	22637
862.183	22542
862.315	22508
862.447	22641
862.58	22588
862.712	22375
862.844	22371
862.976	22485
863.108	22554
863.24	22889
863.372	22344
863.504	22371
863.636	22497
863.768	22535
863.9	22284
864.032	22333
864.164	22318
864.296	22417
864.428	22451
864.559	22379
864.691	22402
864.823	22325
864.954	22360
865.086	22348
865.217	22207
865.349	22147
865.48	22196
865.612	22223
865.743	22367
865.875	22291
866.006	22238
866.137	22246
866.269	22329
866.4	22158
866.531	22322
866.662	22188
866.793	22226
866.924	22162
867.055	22097
867.186	22143
867.317	22070
867.448	22124
867.579	22158
867.71	22173
867.841	22242
867.972	22196
868.103	22074
868.233	22257
868.364	22280
868.495	22303
868.625	22440
868.756	22531
868.886	22310
869.017	22531
869.147	22607
869.278	22523
869.408	22493
869.539	22447
869.669	22424
869.799	22443
869.929	22443
870.06	22504
870.19	22759
870.32	22717
870.45	22733
870.58	22805
870.71	22881
870.84	22923
870.97	22797
871.1	22885
871.23	22938
871.36	22957
871.489	22847
871.619	22938
871.749	22972
871.879	23162
872.008	23064
872.138	23109
872.267	22885
872.397	23022
872.526	22892
872.656	22896
872.785	22850
872.915	23067
873.044	23090
873.173	23060
873.303	23025
873.432	23143
873.561	23193
873.69	23067
873.819	23117
873.948	23094
874.077	22976
874.206	22991
874.335	23029
874.464	23086
874.593	23292
874.722	23284
874.851	23299
874.979	23273
875.108	23242
875.237	23189
875.365	23189
875.494	23143
875.623	23337
875.751	23220
875.88	23220
876.008	23395
876.136	23452
876.265	23581
876.393	23756
876.521	23691
876.65	23672
876.778	23589
876.906	23558
877.034	23433
877.162	23726
877.29	23493
877.418	23585
877.546	23630
877.674	23592
877.802	23531
877.93	23630
878.058	23554
878.185	23410
878.313	23493
878.441	23455
878.568	23349
878.696	23592
878.824	23653
878.951	23562
879.079	23741
879.206	23882
879.333	23764
879.461	23627
879.588	23779
879.715	23920
879.842	23828
879.97	23752
880.097	23440
880.224	23551
880.351	23379
880.478	23387
880.605	23288
880.732	23387
880.859	23691
880.986	23372
881.112	23345
881.239	23242
881.366	23181
881.493	23075
881.619	23010
881.746	23048
881.872	22957
881.999	22923
882.125	22885
882.252	22972
882.378	22999
882.505	22957
882.631	22771
882.757	22550
882.883	22782
883.01	22580
883.136	22588
883.262	22538
883.388	22519
883.514	22755
883.64	22554
883.766	22481
883.892	22318
884.018	22341
884.143	22588
884.269	22641
884.395	22223
884.52	22150
884.646	22230
884.772	22207
884.897	22177
885.023	22352
885.148	22272
885.274	22436
885.399	22291
885.524	22303
885.65	22226
885.775	22356
885.9	22188
886.025	22394
886.15	22314
886.275	22246
886.4	22249
886.525	22219
886.65	22063
886.775	22131
886.9	22398
887.025	22402
887.149	22173
887.274	22196
887.399	21991
887.523	21915
887.648	22086
887.773	21903
887.897	22143
888.021	22017
888.146	21884
888.27	22017
888.395	22181
888.519	22063
888.643	22002
888.767	22116
888.891	21964
889.015	21808
889.139	21751
889.263	21701
889.387	21766
889.511	22051
889.635	21964
889.759	21759
889.883	21667
890.006	21865
890.13	21892
890.254	21713
890.377	21656
890.501	21591
890.624	21610
890.748	21660
890.871	21504
890.995	21344
891.118	21348
891.241	21340
891.364	21389
891.488	21412
891.611	21397
891.734	21454
891.857	21477
891.98	21351
892.103	21363
892.226	21370
892.349	21310
892.471	21241
892.594	21405
892.717	21329
892.839	21150
892.962	21161
893.085	21321
893.207	21161
893.33	21070
893.452	21226
893.575	21176
893.697	21256
893.819	21336
893.941	21416
894.064	21302
894.186	21161
894.308	21093
894.43	21298
894.552	21424
894.674	21287
894.796	21188
894.918	21268
895.04	21222
895.161	21298
895.283	21382
895.405	21207
895.526	21272
895.648	21100
895.769	21283
895.891	21348
896.012	21260
896.134	21287
896.255	21138
896.376	21104
896.498	21233
896.619	21199
896.74	21150
896.861	21241
896.982	21473
897.103	21686
897.224	21523
897.345	21370
897.466	21348
897.587	21526
897.708	21583
897.828	21515
897.949	21367
898.07	21218
898.19	21329
898.311	21382
898.431	21408
898.552	21367
898.672	21454
898.792	21420
898.913	21310
899.033	21317
899.153	21116
899.273	21047
899.393	21131
899.513	21203
899.633	21180
899.753	21123
899.873	21108
899.993	21146
900.113	21062
900.232	21112
900.352	21112
900.472	20967
900.591	20830
900.711	21089
900.83	20887
900.95	20990
901.069	21100
901.189	20804
901.308	20556
901.427	20533
901.546	20419
901.665	20495
901.784	20423
901.904	20191
902.023	20305
902.141	20100
902.26	19970
902.379	20164
902.498	20008
902.617	19986
902.735	19993
902.854	19940
902.973	19936
903.091	19662
903.21	19651
903.328	19658
903.446	19495
903.565	19502
903.683	19457
903.801	19297
903.919	19331
904.038	19346
904.156	19171
904.274	19343
904.392	19187
904.51	19183
904.627	19255
904.745	19171
904.863	19244
904.981	18993
905.098	18848
905.216	18844
905.334	18856
905.451	18939
905.569	18779
905.686	18821
905.803	18776
905.921	18681
906.038	18802
906.155	18681
906.272	18696
906.389	18654
906.506	18433
906.623	18445
906.74	18315
906.857	18243
906.974	18216
907.091	18407
907.208	18391
907.324	18467
907.441	18224
907.557	18235
907.674	18106
907.79	18072
907.907	18091
908.023	18026
908.139	18076
908.256	18007
908.372	17904
908.488	17931
908.604	17866
908.72	17832
908.836	17859
908.952	17775
909.068	17847
909.184	17802
909.3	17745
909.415	17775
909.531	17748
909.647	17543
909.762	17516
909.878	17463
909.993	17551
910.108	17478
910.224	17490
910.339	17410
910.454	17364
910.57	17345
910.685	17113
910.8	17463
910.915	17433
911.03	17239
911.145	17098
911.259	17094
911.374	17109
911.489	16984
911.604	16847
911.718	16809
911.833	16790
911.947	16733
912.062	16725
912.176	16774
912.291	16790
912.405	16885
912.519	16911
912.633	17022
912.748	16877
912.862	16771
912.976	16592
913.09	16592
913.204	16588
913.318	16694
913.431	16713
913.545	16656
913.659	16683
913.772	16535
913.886	16489
914	16428
914.113	16512
914.226	16519
914.34	16497
914.453	16371
914.566	16436
914.68	16200
914.793	16192
914.906	16128
915.019	16101
915.132	16010
915.245	15831
915.358	16002
915.47	16032
915.583	16021
915.696	15998
915.809	16097
915.921	16207
916.034	15949
916.146	15838
916.259	15922
916.371	15991
916.483	15953
916.595	15759
916.708	15770
916.82	15827
916.932	15724
917.044	15808
917.156	15747
917.268	15751
917.38	15610
917.491	15526
917.603	15591
917.715	15797
917.826	15762
917.938	15542
918.049	15382
918.161	15610
918.272	15698
918.384	15671
918.495	15485
918.606	15374
918.717	15340
918.828	15523
918.939	15488
919.05	15363
919.161	15325
919.272	15104
919.383	15241
919.494	15287
919.604	15526
919.715	15389
919.826	15272
919.936	15256
920.047	15374
920.157	15298
920.267	15485
920.378	15329
920.488	15310
920.598	15477
920.708	15591
920.818	15454
920.928	15492
921.038	15557
921.148	15599
921.258	15211
921.368	15264
921.477	15058
921.587	15005
921.697	14990
921.806	15116
921.916	14891
922.025	14678
922.134	14773
922.244	14674
922.353	14693
922.462	14602
922.571	14457
922.68	14339
922.789	14343
922.898	14434
923.007	14259
923.116	14290
923.224	14332
923.333	14225
923.442	14107
923.55	14077
923.659	14123
923.767	14225
923.876	14084
923.984	14164
924.092	13963
924.201	14008
924.309	14008
924.417	14008
924.525	14058
924.633	13986
924.741	14853
924.849	13700
924.956	13875
925.064	13643
925.172	13628
925.279	13685
925.387	13719
925.494	13620
925.602	13723
925.709	13772
925.816	13590
925.924	13586
926.031	13624
926.138	13662
926.245	13677
926.352	13483
926.459	13757
926.566	13715
926.673	13563
926.779	13392
926.886	13377
926.993	13320
927.099	13251
927.206	13175
927.312	13190
927.419	13236
927.525	13152
927.631	13255
927.737	13126
927.843	13008
927.95	13004
928.056	13095
928.162	13015
928.267	13050
928.373	13655
928.479	13091
928.585	12798
928.69	12993
928.796	13050
928.901	12890
929.007	12738
929.112	12928
929.218	12875
929.323	12768
929.428	12681
929.533	12791
929.638	12597
929.743	12734
929.848	12620
929.953	12726
930.058	12601
930.163	12388
930.267	12429
930.372	12563
930.477	12380
930.581	12627
930.685	12544
930.79	12327
930.894	12266
930.998	12289
931.103	12369
931.207	12068
931.311	11870
931.415	11851
931.519	11718
931.623	11642
