Data from test_V78500241_2825.txt Node
Date: Fri Mar 25 16:01:22 CST 2022
User: usil
Spectrometer: V785-0024
Trigger mode: 0
Integration Time (sec): 4.000000E-1
Scans to average: 1
Nonlinearity correction enabled: false
Boxcar width: 0
Storing dark spectrum: false
XAxis mode: Wavelengths
Number of Pixels in Spectrum: 1024
>>>>>Begin Spectral Data<<<<<
801.071	29037
801.214	29071
801.356	28618
801.499	28706
801.641	28527
801.783	28653
801.926	28615
802.068	28542
802.211	28504
802.353	28401
802.496	28390
802.638	28287
802.78	28424
802.923	28246
803.065	28284
803.208	28234
803.35	28344
803.492	28622
803.635	28478
803.777	28478
803.919	28679
804.061	28862
804.204	28554
804.346	28523
804.488	28451
804.63	28508
804.773	28481
804.915	28538
805.057	28592
805.199	28546
805.341	28771
805.483	28797
805.626	28645
805.768	28641
805.91	28691
806.052	28675
806.194	28702
806.336	28843
806.478	28698
806.62	28687
806.762	28805
806.904	28866
807.046	29326
807.188	29155
807.33	29181
807.472	29258
807.614	29064
807.756	29071
807.898	29060
808.04	28854
808.182	29018
808.324	29006
808.465	29029
808.607	29421
808.749	29322
808.891	29429
809.033	29512
809.174	29478
809.316	29364
809.458	29353
809.6	29307
809.741	29505
809.883	29646
810.025	29668
810.166	29619
810.308	29687
810.45	29600
810.591	29581
810.733	29524
810.875	29436
811.016	29273
811.158	29353
811.299	29402
811.441	29604
811.582	29771
811.724	29383
811.865	29600
812.007	29337
812.148	29425
812.29	29493
812.431	29608
812.573	29684
812.714	29611
812.855	29893
812.997	30030
813.138	30083
813.279	29984
813.421	29980
813.562	29824
813.703	29642
813.845	29611
813.986	29269
814.127	29166
814.268	29006
814.41	29185
814.551	29140
814.692	29151
814.833	29189
814.974	29033
815.115	29064
815.256	28946
815.397	29010
815.539	29136
815.68	28957
815.821	28771
815.962	28987
816.103	28946
816.244	28915
816.385	28850
816.526	28607
816.666	28459
816.807	28538
816.948	28508
817.089	28432
817.23	28394
817.371	28470
817.512	28428
817.653	28451
817.793	28421
817.934	28398
818.075	28489
818.216	28466
818.356	28341
818.497	28333
818.638	28265
818.778	28234
818.919	28215
819.06	28375
819.2	28367
819.341	28333
819.481	28398
819.622	28523
819.762	28744
819.903	28733
820.043	28607
820.184	28592
820.324	28630
820.465	28679
820.605	28424
820.746	28618
820.886	28371
821.026	28592
821.167	28474
821.307	28451
821.447	28531
821.588	28325
821.728	28356
821.868	28067
822.008	27899
822.149	27941
822.289	28013
822.429	27755
822.569	27549
822.709	27652
822.849	27496
822.99	27606
823.13	27469
823.27	27378
823.41	27321
823.55	27180
823.69	27291
823.83	27382
823.97	27287
824.11	26979
824.25	27001
824.389	27116
824.529	27058
824.669	27100
824.809	27150
824.949	27131
825.089	27138
825.228	27058
825.368	26921
825.508	26956
825.648	27005
825.787	26918
825.927	26944
826.067	27039
826.206	26975
826.346	27108
826.485	26948
826.625	26864
826.765	27055
826.904	27058
827.044	26849
827.183	26902
827.323	26648
827.462	26762
827.601	26773
827.741	26579
827.88	26727
828.02	26640
828.159	26632
828.298	26682
828.437	26830
828.577	26689
828.716	26701
828.855	26629
828.994	26450
829.134	26415
829.273	26442
829.412	26324
829.551	26286
829.69	26290
829.829	26419
829.968	26518
830.107	26404
830.246	26396
830.385	26259
830.524	26366
830.663	26202
830.802	26199
830.941	25936
831.08	26065
831.219	26130
831.357	26062
831.496	26267
831.635	26050
831.774	26020
831.913	25833
832.051	25742
832.19	25932
832.329	25826
832.467	25689
832.606	25601
832.744	25594
832.883	25616
833.022	25590
833.16	25567
833.299	25731
833.437	25647
833.576	25746
833.714	25864
833.852	25689
833.991	25811
834.129	25845
834.267	25936
834.406	25795
834.544	25803
834.682	25704
834.821	25811
834.959	25902
835.097	25727
835.235	25746
835.373	25868
835.511	25632
835.65	25510
835.788	25483
835.926	25411
836.064	25274
836.202	25464
836.34	25548
836.478	25586
836.615	25613
836.753	25499
836.891	25651
837.029	25521
837.167	25479
837.305	25331
837.443	25430
837.58	25339
837.718	25362
837.856	25411
837.993	25346
838.131	25255
838.269	25335
838.406	25278
838.544	25225
838.681	24962
838.819	25034
838.956	24867
839.094	24856
839.231	25023
839.369	25000
839.506	25114
839.643	25088
839.781	24829
839.918	24791
840.055	24802
840.193	24764
840.33	24738
840.467	24810
840.604	24776
840.742	25069
840.879	24464
841.016	24597
841.153	24547
841.29	24886
841.427	24658
841.564	24783
841.701	24593
841.838	24631
841.975	24654
842.112	24623
842.249	24608
842.385	24616
842.522	24650
842.659	24559
842.796	24467
842.933	24521
843.069	24464
843.206	24467
843.343	24620
843.479	24475
843.616	24555
843.752	24277
843.889	24304
844.025	24502
844.162	24247
844.298	24224
844.435	24220
844.571	24228
844.708	24311
844.844	24334
844.98	24300
845.117	24395
845.253	24194
845.389	24117
845.525	24106
845.661	24007
845.798	23942
845.934	24022
846.07	24034
846.206	24117
846.342	24186
846.478	24022
846.614	23779
846.75	23729
846.886	23813
847.022	23745
847.158	23802
847.294	23729
847.429	23604
847.565	23790
847.701	23893
847.837	23410
847.972	23402
848.108	23516
848.244	23589
848.379	23372
848.515	23254
848.65	23231
848.786	23254
848.921	23273
849.057	23364
849.192	23315
849.328	23292
849.463	23356
849.598	23220
849.734	23242
849.869	23113
850.004	22965
850.14	23086
850.275	22980
850.41	23056
850.545	23029
850.68	23048
850.815	23113
850.95	23151
851.085	23239
851.22	23254
851.355	23094
851.49	22987
851.625	23010
851.76	23044
851.895	22938
852.03	23033
852.165	23098
852.299	23140
852.434	23098
852.569	22995
852.703	23044
852.838	23105
852.973	23193
853.107	23174
853.242	23003
853.376	22953
853.511	22820
853.645	22961
853.78	22869
853.914	22786
854.048	22904
854.183	22858
854.317	22790
854.451	23010
854.585	22850
854.72	22820
854.854	22976
854.988	23010
855.122	22968
855.256	22717
855.39	22809
855.524	22972
855.658	23029
855.792	22896
855.926	22744
856.06	22927
856.194	22949
856.327	22816
856.461	22706
856.595	22896
856.729	22885
856.862	22972
856.996	22896
857.13	22904
857.263	22942
857.397	22987
857.53	22850
857.664	22828
857.797	22938
857.931	22987
858.064	22854
858.197	23098
858.331	22858
858.464	22790
858.597	22858
858.731	22824
858.864	22839
858.997	22672
859.13	22892
859.263	22892
859.396	23003
859.529	22854
859.662	22809
859.795	22824
859.928	22854
860.061	22961
860.194	23204
860.327	23006
860.46	22938
860.592	23056
860.725	23048
860.858	23029
860.99	22892
861.123	22778
861.256	22653
861.388	22889
861.521	23505
861.653	22797
861.786	22607
861.918	22618
862.05	22824
862.183	22668
862.315	22778
862.447	22881
862.58	22858
862.712	22577
862.844	22577
862.976	22782
863.108	22725
863.24	22942
863.372	22557
863.504	22569
863.636	22546
863.768	22584
863.9	22645
864.032	22516
864.164	22523
864.296	22683
864.428	22615
864.559	22717
864.691	22641
864.823	22550
864.954	22428
865.086	22546
865.217	22478
865.349	22375
865.48	22550
865.612	22451
865.743	22519
865.875	22447
866.006	22291
866.137	22451
866.269	22379
866.4	22447
866.531	22432
866.662	22360
866.793	22409
866.924	22402
867.055	22428
867.186	22363
867.317	22303
867.448	22310
867.579	22276
867.71	22382
867.841	22253
867.972	22325
868.103	22348
868.233	22599
868.364	22398
868.495	22592
868.625	22656
868.756	22713
868.886	22573
869.017	22748
869.147	22725
869.278	22774
869.408	22702
869.539	22523
869.669	22881
869.799	22687
869.929	22767
870.06	22630
870.19	22835
870.32	22835
870.45	22900
870.58	22949
870.71	23124
870.84	23143
870.97	22942
871.1	23079
871.23	23227
871.36	23193
871.489	23128
871.619	23254
871.749	23128
871.879	23200
872.008	23261
872.138	23200
872.267	23337
872.397	23128
872.526	23151
872.656	23041
872.785	23067
872.915	23395
873.044	23292
873.173	23246
873.303	23364
873.432	23318
873.561	23372
873.69	23269
873.819	23216
873.948	23326
874.077	23246
874.206	23124
874.335	23159
874.464	23296
874.593	23528
874.722	23410
874.851	23455
874.979	23554
875.108	23512
875.237	23471
875.365	23307
875.494	23417
875.623	23486
875.751	23429
875.88	23600
876.008	23570
876.136	23668
876.265	23855
876.393	23923
876.521	23939
876.65	23847
876.778	23843
876.906	23703
877.034	23832
877.162	23794
877.29	23722
877.418	23764
877.546	23828
877.674	23764
877.802	23684
877.93	23802
878.058	23824
878.185	23703
878.313	23630
878.441	23710
878.568	23566
878.696	23779
878.824	23760
878.951	23893
879.079	23923
879.206	24038
879.333	23843
879.461	23672
879.588	23874
879.715	23847
879.842	24125
879.97	23885
880.097	23573
880.224	23554
880.351	23642
880.478	23771
880.605	23665
880.732	23627
880.859	23748
880.986	23638
881.112	23608
881.239	23425
881.366	23425
881.493	23140
881.619	23067
881.746	23079
881.872	23254
881.999	23121
882.125	23075
882.252	23037
882.378	23052
882.505	23128
882.631	23105
882.757	22805
882.883	22965
883.01	22866
883.136	22702
883.262	22656
883.388	22557
883.514	22805
883.64	22831
883.766	22809
883.892	22584
884.018	22565
884.143	22744
884.269	22862
884.395	22618
884.52	22554
884.646	22527
884.772	22295
884.897	22295
885.023	22462
885.148	22478
885.274	22656
885.399	22489
885.524	22432
885.65	22462
885.775	22500
885.9	22379
886.025	22573
886.15	22413
886.275	22382
886.4	22348
886.525	22436
886.65	22226
886.775	22287
886.9	22481
887.025	22607
887.149	22356
887.274	22207
887.399	22234
887.523	22147
887.648	22173
887.773	22032
887.897	22230
888.021	22253
888.146	22147
888.27	22234
888.395	22299
888.519	22207
888.643	22215
888.767	22188
888.891	22059
889.015	21983
889.139	22044
889.263	21941
889.387	21987
889.511	22147
889.635	22021
889.759	21987
889.883	21922
890.006	21968
890.13	21968
890.254	21937
890.377	21979
890.501	21838
890.624	21637
890.748	21823
890.871	21663
890.995	21530
891.118	21469
891.241	21477
891.364	21523
891.488	21595
891.611	21439
891.734	21606
891.857	21534
891.98	21526
892.103	21671
892.226	21488
892.349	21325
892.471	21279
892.594	21424
892.717	21496
892.839	21355
892.962	21393
893.085	21462
893.207	21378
893.33	21230
893.452	21336
893.575	21454
893.697	21439
893.819	21526
893.941	21564
894.064	21618
894.186	21401
894.308	21287
894.43	21526
894.552	21504
894.674	21408
894.796	21397
894.918	21397
895.04	21363
895.161	21370
895.283	21428
895.405	21283
895.526	21344
895.648	21374
895.769	21412
895.891	21256
896.012	21557
896.134	21523
896.255	21450
896.376	21431
896.498	21245
896.619	21450
896.74	21435
896.861	21424
896.982	21637
897.103	21717
897.224	21625
897.345	21591
897.466	21454
897.587	21507
897.708	21671
897.828	21519
897.949	21526
898.07	21424
898.19	21492
898.311	21561
898.431	21526
898.552	21641
898.672	21523
898.792	21591
898.913	21473
899.033	21397
899.153	21408
899.273	21214
899.393	21256
899.513	21310
899.633	21386
899.753	21367
899.873	21195
899.993	21348
900.113	21180
900.232	21256
900.352	21298
900.472	21116
900.591	21093
900.711	21108
900.83	21047
900.95	21173
901.069	21013
901.189	20918
901.308	20640
901.427	20579
901.546	20621
901.665	20644
901.784	20659
901.904	20488
902.023	20408
902.141	20252
902.26	20206
902.379	20202
902.498	20122
902.617	20130
902.735	20138
902.854	20157
902.973	20031
903.091	19902
903.21	19731
903.328	19887
903.446	19723
903.565	19575
903.683	19643
903.801	19453
903.919	19426
904.038	19403
904.156	19285
904.274	19384
904.392	19377
904.51	19285
904.627	19419
904.745	19384
904.863	19354
904.981	19209
905.098	19038
905.216	19057
905.334	19095
905.451	19061
905.569	18867
905.686	19019
905.803	18954
905.921	18795
906.038	18734
906.155	18901
906.272	18578
906.389	18681
906.506	18547
906.623	18544
906.74	18544
906.857	18410
906.974	18441
907.091	18578
907.208	18635
907.324	18490
907.441	18475
907.557	18174
907.674	18292
907.79	18213
907.907	18220
908.023	18205
908.139	18232
908.256	18087
908.372	18121
908.488	18106
908.604	17999
908.72	17954
908.836	17980
908.952	17973
909.068	18083
909.184	18110
909.3	17984
909.415	17969
909.531	17832
909.647	17786
909.762	17600
909.878	17528
909.993	17581
910.108	17501
910.224	17581
910.339	17482
910.454	17604
910.57	17391
910.685	17356
910.8	17630
910.915	17532
911.03	17379
911.145	17220
911.259	17239
911.374	17235
911.489	17094
911.604	17029
911.718	16930
911.833	16957
911.947	16881
912.062	16744
912.176	16968
912.291	16980
912.405	16934
912.519	17155
912.633	17117
912.748	16953
912.862	16831
912.976	16797
913.09	16634
913.204	16691
913.318	16706
913.431	16968
913.545	16805
913.659	16866
913.772	16645
913.886	16637
914	16428
914.113	16535
914.226	16683
914.34	16523
914.453	16379
914.566	16519
914.68	16386
914.793	16402
914.906	16162
915.019	16112
915.132	16055
915.245	16105
915.358	16166
915.47	16078
915.583	16093
915.696	16192
915.809	16162
915.921	16177
916.034	16044
916.146	15979
916.259	15994
916.371	16006
916.483	16063
916.595	15941
916.708	15926
916.82	15854
916.932	15930
917.044	15937
917.156	15827
917.268	15644
917.38	15762
917.491	15648
917.603	15637
917.715	15679
917.826	15743
917.938	15701
918.049	15526
918.161	15652
918.272	15736
918.384	15766
918.495	15656
918.606	15591
918.717	15355
918.828	15378
918.939	15469
919.05	15386
919.161	15370
919.272	15329
919.383	15306
919.494	15443
919.604	15652
919.715	15389
919.826	15386
919.936	15389
920.047	15485
920.157	15420
920.267	15625
920.378	15454
920.488	15428
920.598	15580
920.708	15701
920.818	15485
920.928	15523
921.038	15614
921.148	15576
921.258	15344
921.368	15157
921.477	15062
921.587	15157
921.697	14967
921.806	15123
921.916	14937
922.025	14838
922.134	14830
922.244	14762
922.353	14800
922.462	14560
922.571	14552
922.68	14400
922.789	14381
922.898	14450
923.007	14381
923.116	14320
923.224	14301
923.333	14301
923.442	14309
923.55	14199
923.659	14168
923.767	14339
923.876	14035
923.984	14180
924.092	14035
924.201	14168
924.309	14001
924.417	13974
924.525	14058
924.633	13959
924.741	14990
924.849	13811
924.956	13944
925.064	13837
925.172	13666
925.279	13734
925.387	13723
925.494	13704
925.602	13871
925.709	13658
925.816	13605
925.924	13658
926.031	13750
926.138	13723
926.245	13795
926.352	13575
926.459	13757
926.566	13700
926.673	13620
926.779	13476
926.886	13453
926.993	13346
927.099	13320
927.206	13221
927.312	13190
927.419	13209
927.525	13289
927.631	13301
927.737	13190
927.843	13168
927.95	13061
928.056	13141
928.162	13152
928.267	13217
928.373	13734
928.479	13209
928.585	12924
928.69	13027
928.796	13053
928.901	12924
929.007	12852
929.112	12837
929.218	12985
929.323	12802
929.428	12821
929.533	12973
929.638	12700
929.743	12726
929.848	12798
929.953	12757
930.058	12597
930.163	12460
930.267	12555
930.372	12570
930.477	12475
930.581	12608
930.685	12555
930.79	12323
930.894	12296
930.998	12258
931.103	12513
931.207	12144
931.311	12003
931.415	11908
931.519	11642
931.623	11638
