Data from test_V78500241_3108.txt Node
Date: Fri Mar 25 16:03:19 CST 2022
User: usil
Spectrometer: V785-0024
Trigger mode: 0
Integration Time (sec): 4.000000E-1
Scans to average: 1
Nonlinearity correction enabled: false
Boxcar width: 0
Storing dark spectrum: false
XAxis mode: Wavelengths
Number of Pixels in Spectrum: 1024
>>>>>Begin Spectral Data<<<<<
801.071	28253
801.214	28147
801.356	28093
801.499	28021
801.641	27884
801.783	27903
801.926	28025
802.068	27941
802.211	27804
802.353	27831
802.496	27663
802.638	27648
802.78	27667
802.923	27481
803.065	27523
803.208	27504
803.35	27629
803.492	27675
803.635	27774
803.777	27793
803.919	27831
804.061	28070
804.204	27770
804.346	27694
804.488	27629
804.63	27842
804.773	27800
804.915	27865
805.057	27914
805.199	27846
805.341	27778
805.483	27975
805.626	27979
805.768	27789
805.91	27983
806.052	27888
806.194	27937
806.336	28063
806.478	27918
806.62	27846
806.762	28093
806.904	28154
807.046	28527
807.188	28291
807.33	28371
807.472	28573
807.614	28390
807.756	28451
807.898	28219
808.04	28207
808.182	28059
808.324	28337
808.465	28109
808.607	28398
808.749	28607
808.891	28706
809.033	28790
809.174	28744
809.316	28641
809.458	28653
809.6	28542
809.741	28713
809.883	28809
810.025	28816
810.166	29014
810.308	28949
810.45	28911
810.591	28668
810.733	28675
810.875	28573
811.016	28493
811.158	28527
811.299	28660
811.441	28782
811.582	28767
811.724	28687
811.865	28615
812.007	28512
812.148	28691
812.29	28588
812.431	28797
812.573	29037
812.714	28991
812.855	29143
812.997	29151
813.138	29341
813.279	29212
813.421	29231
813.562	29022
813.703	28980
813.845	28934
813.986	28508
814.127	28459
814.268	28265
814.41	28462
814.551	28299
814.692	28436
814.833	28337
814.974	28215
815.115	28268
815.256	28200
815.397	28185
815.539	28200
815.68	28154
815.821	28219
815.962	28204
816.103	28067
816.244	27953
816.385	27964
816.526	27812
816.666	27701
816.807	27682
816.948	27800
817.089	27766
817.23	27576
817.371	27530
817.512	27625
817.653	27778
817.793	27507
817.934	27603
818.075	27667
818.216	27774
818.356	27519
818.497	27515
818.638	27252
818.778	27416
818.919	27370
819.06	27427
819.2	27538
819.341	27557
819.481	27545
819.622	27816
819.762	27994
819.903	27831
820.043	27816
820.184	27739
820.324	27705
820.465	27922
820.605	27778
820.746	27880
820.886	27610
821.026	27656
821.167	27789
821.307	27690
821.447	27675
821.588	27538
821.728	27667
821.868	27306
822.008	27135
822.149	27123
822.289	27096
822.429	26895
822.569	26830
822.709	26785
822.849	26541
822.99	26606
823.13	26514
823.27	26560
823.41	26412
823.55	26267
823.69	26427
823.83	26438
823.97	26393
824.11	26351
824.25	26107
824.389	26294
824.529	26339
824.669	26324
824.809	26298
824.949	26305
825.089	26355
825.228	26233
825.368	26096
825.508	26008
825.648	26149
825.787	26195
825.927	26210
826.067	26282
826.206	26107
826.346	26111
826.485	26103
826.625	26081
826.765	26256
826.904	26088
827.044	25883
827.183	25769
827.323	25772
827.462	26001
827.601	25894
827.741	25837
827.88	25925
828.02	25795
828.159	25868
828.298	25921
828.437	25902
828.577	25757
828.716	25898
828.855	25849
828.994	25514
829.134	25643
829.273	25613
829.412	25483
829.551	25476
829.69	25510
829.829	25567
829.968	25559
830.107	25704
830.246	25559
830.385	25479
830.524	25460
830.663	25430
830.802	25270
830.941	25247
831.08	25156
831.219	25190
831.357	25091
831.496	25392
831.635	25118
831.774	25091
831.913	25084
832.051	25008
832.19	24924
832.329	24890
832.467	24894
832.606	24703
832.744	24817
832.883	24928
833.022	24658
833.16	24795
833.299	24840
833.437	24901
833.576	24958
833.714	24814
833.852	24947
833.991	24901
834.129	24981
834.267	24951
834.406	24768
834.544	24913
834.682	24848
834.821	24837
834.959	25091
835.097	24875
835.235	24966
835.373	24825
835.511	24916
835.65	24817
835.788	24814
835.926	24517
836.064	24528
836.202	24536
836.34	24711
836.478	24654
836.615	24582
836.753	24741
836.891	24692
837.029	24623
837.167	24696
837.305	24597
837.443	24566
837.58	24467
837.718	24544
837.856	24673
837.993	24673
838.131	24570
838.269	24437
838.406	24289
838.544	24422
838.681	24171
838.819	24277
838.956	23996
839.094	23942
839.231	23965
839.369	24129
839.506	24445
839.643	24216
839.781	24015
839.918	23977
840.055	23912
840.193	23946
840.33	23965
840.467	23969
840.604	23897
840.742	24243
840.879	23737
841.016	23828
841.153	23809
841.29	24121
841.427	23824
841.564	24133
841.701	23874
841.838	23843
841.975	23855
842.112	23760
842.249	23764
842.385	23619
842.522	23931
842.659	23608
842.796	23707
842.933	23566
843.069	23649
843.206	23558
843.343	23691
843.479	23611
843.616	23577
843.752	23440
843.889	23467
844.025	23623
844.162	23474
844.298	23646
844.435	23509
844.571	23322
844.708	23543
844.844	23619
844.98	23653
845.117	23474
845.253	23383
845.389	23273
845.525	23353
845.661	23185
845.798	23098
845.934	23265
846.07	23071
846.206	23242
846.342	23242
846.478	23124
846.614	23041
846.75	22793
846.886	22881
847.022	23025
847.158	22831
847.294	23029
847.429	22892
847.565	22877
847.701	23079
847.837	22672
847.972	22599
848.108	22824
848.244	22653
848.379	22390
848.515	22421
848.65	22417
848.786	22447
848.921	22531
849.057	22603
849.192	22569
849.328	22542
849.463	22382
849.598	22291
849.734	22409
849.869	22379
850.004	22329
850.14	22303
850.275	22322
850.41	22200
850.545	22238
850.68	22219
850.815	22211
850.95	22356
851.085	22295
851.22	22421
851.355	22246
851.49	22124
851.625	22246
851.76	22150
851.895	22162
852.03	22268
852.165	22257
852.299	22230
852.434	22272
852.569	22207
852.703	22268
852.838	22150
852.973	22337
853.107	22310
853.242	22207
853.376	22147
853.511	21987
853.645	21907
853.78	22215
853.914	22013
854.048	21994
854.183	22002
854.317	22093
854.451	22238
854.585	22002
854.72	22013
854.854	22185
854.988	21964
855.122	22109
855.256	21850
855.39	22017
855.524	22169
855.658	22051
855.792	22162
855.926	22101
856.06	22154
856.194	22177
856.327	22143
856.461	21861
856.595	22074
856.729	21953
856.862	22120
856.996	22135
857.13	22135
857.263	22143
857.397	22147
857.53	22128
857.664	22059
857.797	22032
857.931	22185
858.064	22082
858.197	22204
858.331	22143
858.464	22074
858.597	21861
858.731	21998
858.864	22017
858.997	22082
859.13	22249
859.263	22120
859.396	22059
859.529	22048
859.662	22013
859.795	22093
859.928	22188
860.061	22196
860.194	22325
860.327	22158
860.46	22112
860.592	22173
860.725	22150
860.858	22291
860.99	22090
861.123	22082
861.256	22067
861.388	22013
861.521	22721
861.653	21945
861.786	21945
861.918	21800
862.05	22006
862.183	22010
862.315	22006
862.447	22070
862.58	21926
862.712	21797
862.844	21743
862.976	21979
863.108	21808
863.24	22192
863.372	21770
863.504	21759
863.636	21705
863.768	21755
863.9	21770
864.032	21808
864.164	21785
864.296	21823
864.428	21835
864.559	21759
864.691	21991
864.823	21804
864.954	21850
865.086	21732
865.217	21682
865.349	21587
865.48	21736
865.612	21759
865.743	21823
865.875	21682
866.006	21568
866.137	21603
866.269	21595
866.4	21679
866.531	21603
866.662	21507
866.793	21625
866.924	21553
867.055	21583
867.186	21618
867.317	21603
867.448	21507
867.579	21526
867.71	21507
867.841	21496
867.972	21629
868.103	21561
868.233	21644
868.364	21595
868.495	21739
868.625	21888
868.756	21781
868.886	21755
869.017	21812
869.147	21930
869.278	21918
869.408	21857
869.539	21861
869.669	21953
869.799	21918
869.929	21994
870.06	21930
870.19	22219
870.32	22105
870.45	22116
870.58	22192
870.71	22398
870.84	22504
870.97	22223
871.1	22135
871.23	22356
871.36	22398
871.489	22398
871.619	22459
871.749	22398
871.879	22432
872.008	22542
872.138	22318
872.267	22417
872.397	22268
872.526	22310
872.656	22386
872.785	22177
872.915	22512
873.044	22561
873.173	22519
873.303	22405
873.432	22497
873.561	22497
873.69	22474
873.819	22459
873.948	22504
874.077	22497
874.206	22242
874.335	22451
874.464	22538
874.593	22611
874.722	22508
874.851	22584
874.979	22793
875.108	22683
875.237	22618
875.365	22538
875.494	22626
875.623	22816
875.751	22645
875.88	22683
876.008	22812
876.136	22946
876.265	23083
876.393	23204
876.521	23208
876.65	23128
876.778	23064
876.906	22923
877.034	22949
877.162	23041
877.29	23018
877.418	23174
877.546	23052
877.674	22991
877.802	22999
877.93	22976
878.058	22987
878.185	22889
878.313	22908
878.441	22892
878.568	22877
878.696	22999
878.824	23006
878.951	23083
879.079	23189
879.206	23368
879.333	23261
879.461	23064
879.588	23212
879.715	23132
879.842	23246
879.97	23060
880.097	22896
880.224	22767
880.351	23003
880.478	22839
880.605	22869
880.732	22828
880.859	23056
880.986	22778
881.112	22968
881.239	22748
881.366	22584
881.493	22512
881.619	22443
881.746	22527
881.872	22382
881.999	22394
882.125	22367
882.252	22489
882.378	22341
882.505	22462
882.631	22253
882.757	22131
882.883	22200
883.01	22006
883.136	22101
883.262	21892
883.388	21960
883.514	22101
883.64	22131
883.766	22128
883.892	21884
884.018	21819
884.143	22090
884.269	22177
884.395	21899
884.52	21755
884.646	21694
884.772	21595
884.897	21629
885.023	21728
885.148	21816
885.274	21922
885.399	21717
885.524	21637
885.65	21759
885.775	21759
885.9	21675
886.025	21774
886.15	21743
886.275	21736
886.4	21633
886.525	21816
886.65	21679
886.775	21713
886.9	21903
887.025	21789
887.149	21755
887.274	21481
887.399	21378
887.523	21443
887.648	21466
887.773	21473
887.897	21557
888.021	21568
888.146	21443
888.27	21424
888.395	21545
888.519	21496
888.643	21519
888.767	21488
888.891	21458
889.015	21294
889.139	21233
889.263	21332
889.387	21424
889.511	21443
889.635	21382
889.759	21332
889.883	21275
890.006	21336
890.13	21321
890.254	21252
890.377	21222
890.501	21077
890.624	21085
890.748	21112
890.871	21005
890.995	20826
891.118	20804
891.241	20735
891.364	20918
891.488	20971
891.611	20899
891.734	20807
891.857	20880
891.98	20864
892.103	20937
892.226	20845
892.349	20804
892.471	20594
892.594	20823
892.717	20792
892.839	20743
892.962	20693
893.085	20853
893.207	20693
893.33	20636
893.452	20678
893.575	20811
893.697	20689
893.819	20918
893.941	20914
894.064	20895
894.186	20701
894.308	20724
894.43	20746
894.552	20857
894.674	20705
894.796	20617
894.918	20777
895.04	20659
895.161	20826
895.283	20712
895.405	20708
895.526	20651
895.648	20716
895.769	20765
895.891	20773
896.012	20765
896.134	20758
896.255	20708
896.376	20503
896.498	20682
896.619	20880
896.74	20724
896.861	20781
896.982	21047
897.103	21237
897.224	20967
897.345	21013
897.466	20906
897.587	20880
897.708	20994
897.828	20960
897.949	20990
898.07	20838
898.19	20815
898.311	21039
898.431	20918
898.552	20941
898.672	20929
898.792	20956
898.913	20914
899.033	20887
899.153	20788
899.273	20708
899.393	20629
899.513	20739
899.633	20697
899.753	20598
899.873	20606
899.993	20712
900.113	20571
900.232	20678
900.352	20674
900.472	20442
900.591	20461
900.711	20476
900.83	20469
900.95	20625
901.069	20663
901.189	20320
901.308	20115
901.427	20005
901.546	20062
901.665	20043
901.784	19917
901.904	19830
902.023	19852
902.141	19655
902.26	19616
902.379	19594
902.498	19491
902.617	19540
902.735	19586
902.854	19476
902.973	19460
903.091	19122
903.21	19183
903.328	19202
903.446	19114
903.565	19034
903.683	19000
903.801	18871
903.919	18981
904.038	18871
904.156	18745
904.274	18745
904.392	18764
904.51	18589
904.627	18817
904.745	18783
904.863	18783
904.981	18525
905.098	18437
905.216	18346
905.334	18471
905.451	18448
905.569	18448
905.686	18433
905.803	18334
905.921	18289
906.038	18327
906.155	18117
906.272	18102
906.389	18068
906.506	17946
906.623	17988
906.74	17923
906.857	17859
906.974	17878
907.091	17851
907.208	18064
907.324	17950
907.441	17775
907.557	17668
907.674	17722
907.79	17672
907.907	17668
908.023	17638
908.139	17676
908.256	17592
908.372	17547
908.488	17467
908.604	17402
908.72	17337
908.836	17425
908.952	17364
909.068	17334
909.184	17448
909.3	17478
909.415	17410
909.531	17364
909.647	17170
909.762	17037
909.878	17064
909.993	17143
910.108	17060
910.224	17041
910.339	16946
910.454	16793
910.57	16809
910.685	16805
910.8	17003
910.915	16938
911.03	16824
911.145	16755
911.259	16618
911.374	16809
911.489	16558
911.604	16527
911.718	16424
911.833	16318
911.947	16348
912.062	16215
912.176	16371
912.291	16436
912.405	16409
912.519	16592
912.633	16512
912.748	16474
912.862	16367
912.976	16181
913.09	16074
913.204	16219
913.318	16223
913.431	16363
913.545	16196
913.659	16303
913.772	16112
913.886	16086
914	16006
914.113	16074
914.226	16128
914.34	16135
914.453	15857
914.566	15964
914.68	15850
914.793	15823
914.906	15739
915.019	15705
915.132	15553
915.245	15523
915.358	15595
915.47	15660
915.583	15595
915.696	15644
915.809	15587
915.921	15751
916.034	15599
916.146	15462
916.259	15561
916.371	15530
916.483	15534
916.595	15458
916.708	15458
916.82	15412
916.932	15329
917.044	15382
917.156	15249
917.268	15165
917.38	15332
917.491	15165
917.603	15157
917.715	15325
917.826	15348
917.938	15180
918.049	15150
918.161	15119
918.272	15340
918.384	15214
918.495	15199
918.606	15047
918.717	14933
918.828	15066
918.939	15017
919.05	14872
919.161	14895
919.272	14773
919.383	14777
919.494	15001
919.604	15192
919.715	15093
919.826	14842
919.936	14925
920.047	14986
920.157	14910
920.267	15112
920.378	14925
920.488	14937
920.598	15005
920.708	15218
920.818	15116
920.928	15043
921.038	15188
921.148	15108
921.258	14956
921.368	14842
921.477	14727
921.587	14583
921.697	14571
921.806	14636
921.916	14533
922.025	14301
922.134	14294
922.244	14240
922.353	14267
922.462	14202
922.571	14145
922.68	13982
922.789	13928
922.898	13970
923.007	13791
923.116	13913
923.224	13925
923.333	13898
923.442	13715
923.55	13769
923.659	13807
923.767	13814
923.876	13811
923.984	13704
924.092	13662
924.201	13700
924.309	13628
924.417	13704
924.525	13556
924.633	13632
924.741	14362
924.849	13468
924.956	13529
925.064	13339
925.172	13301
925.279	13358
925.387	13316
925.494	13346
925.602	13491
925.709	13327
925.816	13270
925.924	13297
926.031	13331
926.138	13266
926.245	13278
926.352	13217
926.459	13362
926.566	13358
926.673	13194
926.779	13099
926.886	13080
926.993	12973
927.099	12947
927.206	12882
927.312	12795
927.419	12954
927.525	12806
927.631	12920
927.737	12753
927.843	12665
927.95	12658
928.056	12707
928.162	12726
928.267	12795
928.373	13487
928.479	12825
928.585	12506
928.69	12650
928.796	12677
928.901	12593
929.007	12361
929.112	12509
929.218	12509
929.323	12426
929.428	12429
929.533	12547
929.638	12380
929.743	12490
929.848	12350
929.953	12376
930.058	12327
930.163	12076
930.267	12114
930.372	12159
930.477	12045
930.581	12171
930.685	12095
930.79	11958
930.894	11965
930.998	12011
931.103	12121
931.207	11741
931.311	11573
931.415	11509
931.519	11307
931.623	11387
