Data from test_V78500241_2848.txt Node
Date: Fri Mar 25 16:01:31 CST 2022
User: usil
Spectrometer: V785-0024
Trigger mode: 0
Integration Time (sec): 4.000000E-1
Scans to average: 1
Nonlinearity correction enabled: false
Boxcar width: 0
Storing dark spectrum: false
XAxis mode: Wavelengths
Number of Pixels in Spectrum: 1024
>>>>>Begin Spectral Data<<<<<
801.071	29052
801.214	28877
801.356	28637
801.499	28656
801.641	28713
801.783	28641
801.926	28573
802.068	28550
802.211	28630
802.353	28375
802.496	28398
802.638	28363
802.78	28181
802.923	28234
803.065	28147
803.208	28329
803.35	28333
803.492	28470
803.635	28432
803.777	28356
803.919	28542
804.061	28786
804.204	28519
804.346	28546
804.488	28417
804.63	28455
804.773	28436
804.915	28611
805.057	28729
805.199	28557
805.341	28710
805.483	28687
805.626	28634
805.768	28615
805.91	28755
806.052	28831
806.194	28679
806.336	28869
806.478	28786
806.62	28717
806.762	28885
806.904	28877
807.046	29239
807.188	29044
807.33	29147
807.472	29128
807.614	29140
807.756	29208
807.898	29067
808.04	29029
808.182	28995
808.324	28991
808.465	29128
808.607	29299
808.749	29509
808.891	29528
809.033	29398
809.174	29398
809.316	29528
809.458	29364
809.6	29353
809.741	29493
809.883	29596
810.025	29802
810.166	29809
810.308	29699
810.45	29642
810.591	29600
810.733	29421
810.875	29509
811.016	29341
811.158	29265
811.299	29566
811.441	29573
811.582	29695
811.724	29509
811.865	29356
812.007	29414
812.148	29364
812.29	29551
812.431	29638
812.573	29786
812.714	29836
812.855	30064
812.997	30060
813.138	30304
813.279	30068
813.421	30030
813.562	29847
813.703	29714
813.845	29726
813.986	29448
814.127	29220
814.268	29166
814.41	29299
814.551	29113
814.692	29151
814.833	29071
814.974	29121
815.115	29064
815.256	29105
815.397	29147
815.539	29086
815.68	28999
815.821	28976
815.962	28938
816.103	28873
816.244	28930
816.385	28843
816.526	28710
816.666	28573
816.807	28405
816.948	28424
817.089	28424
817.23	28546
817.371	28500
817.512	28375
817.653	28356
817.793	28443
817.934	28462
818.075	28424
818.216	28447
818.356	28455
818.497	28333
818.638	28169
818.778	28310
818.919	28314
819.06	28284
819.2	28436
819.341	28512
819.481	28405
819.622	28584
819.762	28896
819.903	28721
820.043	28729
820.184	28645
820.324	28618
820.465	28668
820.605	28626
820.746	28535
820.886	28356
821.026	28607
821.167	28580
821.307	28656
821.447	28519
821.588	28386
821.728	28295
821.868	28101
822.008	28055
822.149	27888
822.289	28025
822.429	27713
822.569	27599
822.709	27720
822.849	27443
822.99	27504
823.13	27473
823.27	27515
823.41	27336
823.55	27203
823.69	27329
823.83	27374
823.97	27203
824.11	27112
824.25	27100
824.389	27146
824.529	27233
824.669	27066
824.809	27230
824.949	27135
825.089	27058
825.228	27272
825.368	26849
825.508	26891
825.648	27013
825.787	27100
825.927	27070
826.067	26975
826.206	26918
826.346	27195
826.485	27005
826.625	26940
826.765	27104
826.904	27085
827.044	26724
827.183	26883
827.323	26773
827.462	26823
827.601	26720
827.741	26716
827.88	26792
828.02	26613
828.159	26590
828.298	26781
828.437	26777
828.577	26720
828.716	26785
828.855	26602
828.994	26347
829.134	26461
829.273	26427
829.412	26298
829.551	26473
829.69	26419
829.829	26389
829.968	26511
830.107	26457
830.246	26305
830.385	26305
830.524	26358
830.663	26309
830.802	26145
830.941	26016
831.08	26020
831.219	26046
831.357	26081
831.496	26161
831.635	25959
831.774	25936
831.913	25849
832.051	25894
832.19	25898
832.329	25791
832.467	25871
832.606	25544
832.744	25655
832.883	25723
833.022	25696
833.16	25708
833.299	25647
833.437	25689
833.576	25772
833.714	25700
833.852	25727
833.991	25852
834.129	25864
834.267	25909
834.406	25746
834.544	25826
834.682	25845
834.821	25708
834.959	25906
835.097	25670
835.235	25734
835.373	25761
835.511	25643
835.65	25624
835.788	25495
835.926	25552
836.064	25407
836.202	25403
836.34	25670
836.478	25521
836.615	25586
836.753	25609
836.891	25544
837.029	25544
837.167	25548
837.305	25312
837.443	25457
837.58	25476
837.718	25365
837.856	25301
837.993	25381
838.131	25487
838.269	25274
838.406	25228
838.544	25133
838.681	25027
838.819	25038
838.956	25000
839.094	24783
839.231	24954
839.369	24970
839.506	25171
839.643	25122
839.781	24821
839.918	24722
840.055	24814
840.193	24859
840.33	24776
840.467	24916
840.604	24741
840.742	25076
840.879	24517
841.016	24760
841.153	24604
841.29	24779
841.427	24661
841.564	24741
841.701	24719
841.838	24760
841.975	24555
842.112	24715
842.249	24555
842.385	24437
842.522	24753
842.659	24448
842.796	24559
842.933	24467
843.069	24456
843.206	24452
843.343	24509
843.479	24441
843.616	24407
843.752	24273
843.889	24285
844.025	24437
844.162	24281
844.298	24346
844.435	24232
844.571	24273
844.708	24296
844.844	24365
844.98	24467
845.117	24380
845.253	24133
845.389	24060
845.525	24095
845.661	24144
845.798	23923
845.934	24022
846.07	23897
846.206	24076
846.342	24110
846.478	23939
846.614	23946
846.75	23630
846.886	23729
847.022	23699
847.158	23756
847.294	23649
847.429	23760
847.565	23707
847.701	23775
847.837	23463
847.972	23448
848.108	23512
848.244	23520
848.379	23284
848.515	23269
848.65	23440
848.786	23372
848.921	23349
849.057	23429
849.192	23417
849.328	23337
849.463	23379
849.598	23341
849.734	23261
849.869	23166
850.004	23041
850.14	23117
850.275	23117
850.41	23006
850.545	23064
850.68	23044
850.815	23102
850.95	23185
851.085	23162
851.22	23208
851.355	23083
851.49	23143
851.625	22987
851.76	23037
851.895	22915
852.03	22980
852.165	22987
852.299	23083
852.434	23239
852.569	23067
852.703	23033
852.838	23079
852.973	23098
853.107	23174
853.242	23037
853.376	22885
853.511	22786
853.645	22824
853.78	22942
853.914	22911
854.048	22961
854.183	22984
854.317	22847
854.451	23075
854.585	22957
854.72	22900
854.854	22949
854.988	22824
855.122	22816
855.256	22839
855.39	22850
855.524	22942
855.658	22919
855.792	22923
855.926	22873
856.06	22911
856.194	22942
856.327	22900
856.461	22778
856.595	22900
856.729	22812
856.862	23029
856.996	22965
857.13	22911
857.263	22984
857.397	22938
857.53	22858
857.664	22965
857.797	22938
857.931	23132
858.064	22896
858.197	22942
858.331	22889
858.464	22854
858.597	22763
858.731	22873
858.864	22771
858.997	22965
859.13	22968
859.263	22828
859.396	23022
859.529	22873
859.662	22919
859.795	22923
859.928	22961
860.061	23098
860.194	22957
860.327	22911
860.46	22965
860.592	22991
860.725	22968
860.858	23044
860.99	22942
861.123	22839
861.256	22809
861.388	22900
861.521	23627
861.653	22736
861.786	22767
861.918	22729
862.05	22786
862.183	22858
862.315	22744
862.447	22957
862.58	22854
862.712	22717
862.844	22569
862.976	22721
863.108	22683
863.24	22995
863.372	22550
863.504	22519
863.636	22554
863.768	22611
863.9	22519
864.032	22470
864.164	22577
864.296	22618
864.428	22656
864.559	22599
864.691	22691
864.823	22603
864.954	22519
865.086	22485
865.217	22417
865.349	22440
865.48	22493
865.612	22489
865.743	22622
865.875	22459
866.006	22489
866.137	22512
866.269	22470
866.4	22504
866.531	22417
866.662	22295
866.793	22409
866.924	22398
867.055	22481
867.186	22333
867.317	22200
867.448	22303
867.579	22405
867.71	22265
867.841	22246
867.972	22398
868.103	22443
868.233	22516
868.364	22314
868.495	22493
868.625	22637
868.756	22725
868.886	22462
869.017	22573
869.147	22740
869.278	22733
869.408	22713
869.539	22645
869.669	22733
869.799	22702
869.929	22717
870.06	22847
870.19	22881
870.32	22805
870.45	22984
870.58	23037
870.71	23075
870.84	23052
870.97	22968
871.1	23098
871.23	23280
871.36	23330
871.489	23208
871.619	23090
871.749	23189
871.879	23345
872.008	23455
872.138	23296
872.267	23242
872.397	23189
872.526	23109
872.656	22972
872.785	23105
872.915	23341
873.044	23356
873.173	23212
873.303	23360
873.432	23349
873.561	23383
873.69	23265
873.819	23261
873.948	23261
874.077	23140
874.206	23200
874.335	23356
874.464	23204
874.593	23417
874.722	23383
874.851	23539
874.979	23554
875.108	23516
875.237	23341
875.365	23349
875.494	23410
875.623	23562
875.751	23364
875.88	23414
876.008	23600
876.136	23585
876.265	23847
876.393	23984
876.521	24003
876.65	23847
876.778	23866
876.906	24015
877.034	23809
877.162	23866
877.29	23718
877.418	23817
877.546	23695
877.674	23661
877.802	23813
877.93	23805
878.058	23745
878.185	23581
878.313	23805
878.441	23733
878.568	23638
878.696	23737
878.824	23771
878.951	23760
879.079	23855
879.206	24201
879.333	24049
879.461	23977
879.588	23817
879.715	23794
879.842	24114
879.97	23863
880.097	23665
880.224	23581
880.351	23672
880.478	23691
880.605	23573
880.732	23630
880.859	23939
880.986	23665
881.112	23547
881.239	23311
881.366	23516
881.493	23284
881.619	23231
881.746	23212
881.872	23178
881.999	23071
882.125	23086
882.252	23166
882.378	23155
882.505	23250
882.631	23033
882.757	22885
882.883	22953
883.01	22885
883.136	22755
883.262	22721
883.388	22668
883.514	22946
883.64	22854
883.766	22782
883.892	22596
884.018	22618
884.143	22782
884.269	22816
884.395	22569
884.52	22424
884.646	22390
884.772	22352
884.897	22329
885.023	22497
885.148	22474
885.274	22664
885.399	22603
885.524	22447
885.65	22455
885.775	22508
885.9	22413
886.025	22557
886.15	22440
886.275	22417
886.4	22371
886.525	22360
886.65	22394
886.775	22390
886.9	22428
887.025	22596
887.149	22341
887.274	22185
887.399	22219
887.523	22272
887.648	22196
887.773	22116
887.897	22280
888.021	22299
888.146	22006
888.27	22169
888.395	22360
888.519	22219
888.643	22287
888.767	22417
888.891	22169
889.015	22067
889.139	22093
889.263	21956
889.387	22120
889.511	22074
889.635	21979
889.759	22044
889.883	22074
890.006	21941
890.13	22093
890.254	21934
890.377	21903
890.501	21819
890.624	21667
890.748	21717
890.871	21633
890.995	21618
891.118	21568
891.241	21469
891.364	21450
891.488	21618
891.611	21660
891.734	21557
891.857	21572
891.98	21469
892.103	21618
892.226	21553
892.349	21576
892.471	21287
892.594	21504
892.717	21447
892.839	21466
892.962	21466
893.085	21542
893.207	21393
893.33	21313
893.452	21306
893.575	21580
893.697	21526
893.819	21507
893.941	21507
894.064	21553
894.186	21363
894.308	21291
894.43	21519
894.552	21553
894.674	21511
894.796	21485
894.918	21294
895.04	21450
895.161	21405
895.283	21428
895.405	21351
895.526	21462
895.648	21279
895.769	21416
895.891	21469
896.012	21416
896.134	21336
896.255	21466
896.376	21214
896.498	21393
896.619	21523
896.74	21370
896.861	21458
896.982	21819
897.103	21762
897.224	21663
897.345	21561
897.466	21572
897.587	21561
897.708	21644
897.828	21603
897.949	21515
898.07	21439
898.19	21561
898.311	21583
898.431	21549
898.552	21736
898.672	21671
898.792	21675
898.913	21622
899.033	21500
899.153	21378
899.273	21321
899.393	21272
899.513	21302
899.633	21469
899.753	21363
899.873	21313
899.993	21329
900.113	21294
900.232	21287
900.352	21367
900.472	21222
900.591	21081
900.711	21112
900.83	21051
900.95	21226
901.069	21173
901.189	20952
901.308	20667
901.427	20655
901.546	20667
901.665	20708
901.784	20678
901.904	20571
902.023	20412
902.141	20218
902.26	20225
902.379	20168
902.498	20153
902.617	20111
902.735	20176
902.854	20256
902.973	20107
903.091	19974
903.21	19830
903.328	19951
903.446	19723
903.565	19658
903.683	19552
903.801	19506
903.919	19525
904.038	19575
904.156	19324
904.274	19460
904.392	19312
904.51	19187
904.627	19213
904.745	19343
904.863	19362
904.981	19179
905.098	18989
905.216	18996
905.334	19004
905.451	19114
905.569	19050
905.686	19034
905.803	19221
905.921	18901
906.038	18806
906.155	18856
906.272	18684
906.389	18700
906.506	18661
906.623	18593
906.74	18570
906.857	18464
906.974	18536
907.091	18544
907.208	18608
907.324	18650
907.441	18437
907.557	18338
907.674	18357
907.79	18201
907.907	18117
908.023	18277
908.139	18281
908.256	18254
908.372	18232
908.488	18133
908.604	17992
908.72	17942
908.836	18068
908.952	17885
909.068	17870
909.184	17961
909.3	17958
909.415	17908
909.531	17988
909.647	17790
909.762	17684
909.878	17680
909.993	17638
910.108	17570
910.224	17558
910.339	17592
910.454	17471
910.57	17429
910.685	17356
910.8	17600
910.915	17497
911.03	17391
911.145	17288
911.259	17242
911.374	17311
911.489	17204
911.604	17109
911.718	17022
911.833	16835
911.947	16900
912.062	16843
912.176	16984
912.291	16942
912.405	16968
912.519	17136
912.633	17159
912.748	16885
912.862	16904
912.976	16771
913.09	16778
913.204	16805
913.318	16805
913.431	16896
913.545	16793
913.659	16797
913.772	16847
913.886	16622
914	16668
914.113	16558
914.226	16622
914.34	16573
914.453	16428
914.566	16531
914.68	16432
914.793	16402
914.906	16257
915.019	16040
915.132	16128
915.245	16131
915.358	16173
915.47	16185
915.583	16124
915.696	16188
915.809	16219
915.921	16314
916.034	16036
916.146	15968
916.259	16105
916.371	16044
916.483	15918
916.595	16051
916.708	15930
916.82	15934
916.932	15861
917.044	15823
917.156	15831
917.268	15755
917.38	15705
917.491	15854
917.603	15701
917.715	15789
917.826	15808
917.938	15743
918.049	15553
918.161	15595
918.272	15873
918.384	15846
918.495	15667
918.606	15519
918.717	15428
918.828	15431
918.939	15496
919.05	15344
919.161	15428
919.272	15283
919.383	15302
919.494	15458
919.604	15603
919.715	15412
919.826	15447
919.936	15363
920.047	15564
920.157	15386
920.267	15511
920.378	15291
920.488	15367
920.598	15557
920.708	15637
920.818	15466
920.928	15519
921.038	15675
921.148	15644
921.258	15325
921.368	15233
921.477	15146
921.587	15157
921.697	15036
921.806	15233
921.916	15032
922.025	14804
922.134	14758
922.244	14674
922.353	14800
922.462	14769
922.571	14594
922.68	14499
922.789	14366
922.898	14442
923.007	14442
923.116	14362
923.224	14339
923.333	14305
923.442	14324
923.55	14206
923.659	14210
923.767	14256
923.876	14142
923.984	14210
924.092	14157
924.201	14157
924.309	14065
924.417	14153
924.525	14050
924.633	14069
924.741	14967
924.849	13818
924.956	14043
925.064	13833
925.172	13723
925.279	13727
925.387	13803
925.494	13826
925.602	13826
925.709	13769
925.816	13636
925.924	13628
926.031	13841
926.138	13788
926.245	13776
926.352	13605
926.459	13780
926.566	13765
926.673	13681
926.779	13533
926.886	13445
926.993	13400
927.099	13244
927.206	13293
927.312	13236
927.419	13312
927.525	13274
927.631	13312
927.737	13171
927.843	13206
927.95	12989
928.056	13084
928.162	13095
928.267	13198
928.373	13791
928.479	13175
928.585	12897
928.69	13057
928.796	12905
928.901	12905
929.007	12760
929.112	12966
929.218	12939
929.323	12825
929.428	12829
929.533	12878
929.638	12749
929.743	12715
929.848	12840
929.953	12688
930.058	12677
930.163	12528
930.267	12395
930.372	12608
930.477	12460
930.581	12707
930.685	12483
930.79	12372
930.894	12388
930.998	12372
931.103	12452
931.207	12106
931.311	11992
931.415	11942
931.519	11775
931.623	11718
