Data from test_V78500241_1641.txt Node
Date: Fri Mar 25 15:53:10 CST 2022
User: usil
Spectrometer: V785-0024
Trigger mode: 0
Integration Time (sec): 4.000000E-1
Scans to average: 1
Nonlinearity correction enabled: false
Boxcar width: 0
Storing dark spectrum: false
XAxis mode: Wavelengths
Number of Pixels in Spectrum: 1024
>>>>>Begin Spectral Data<<<<<
801.071	27785
801.214	27899
801.356	27660
801.499	27389
801.641	27313
801.783	27230
801.926	27431
802.068	27313
802.211	27306
802.353	27203
802.496	27112
802.638	27017
802.78	27039
802.923	26933
803.065	26944
803.208	26868
803.35	27020
803.492	27184
803.635	27096
803.777	26986
803.919	27150
804.061	27443
804.204	27317
804.346	27226
804.488	27039
804.63	27313
804.773	27173
804.915	27241
805.057	27424
805.199	27291
805.341	27214
805.483	27344
805.626	27340
805.768	27184
805.91	27260
806.052	27431
806.194	27173
806.336	27469
806.478	27374
806.62	27359
806.762	27332
806.904	27614
807.046	27823
807.188	27732
807.33	27682
807.472	27812
807.614	27679
807.756	27603
807.898	27675
808.04	27488
808.182	27561
808.324	27713
808.465	27717
808.607	27926
808.749	28067
808.891	28109
809.033	28158
809.174	28029
809.316	27968
809.458	28029
809.6	28078
809.741	28090
809.883	28120
810.025	28405
810.166	28230
810.308	28329
810.45	28169
810.591	28112
810.733	27964
810.875	27934
811.016	27937
811.158	27819
811.299	28090
811.441	28025
811.582	28082
811.724	27888
811.865	27918
812.007	27876
812.148	27941
812.29	27755
812.431	28268
812.573	28242
812.714	28421
812.855	28493
812.997	28641
813.138	28641
813.279	28698
813.421	28599
813.562	28360
813.703	28207
813.845	28105
813.986	27861
814.127	27694
814.268	27724
814.41	27622
814.551	27603
814.692	27629
814.833	27545
814.974	27504
815.115	27682
815.256	27549
815.397	27435
815.539	27485
815.68	27504
815.821	27302
815.962	27481
816.103	27340
816.244	27272
816.385	27252
816.526	27283
816.666	27066
816.807	26895
816.948	26925
817.089	26925
817.23	26845
817.371	26975
817.512	26986
817.653	26857
817.793	26940
817.934	26887
818.075	26975
818.216	26982
818.356	26857
818.497	26765
818.638	26568
818.778	26762
818.919	26636
819.06	26804
819.2	26762
819.341	26990
819.481	26830
819.622	27154
819.762	27302
819.903	27207
820.043	27005
820.184	27062
820.324	27036
820.465	27062
820.605	27005
820.746	26960
820.886	26845
821.026	27032
821.167	26952
821.307	27013
821.447	26994
821.588	26845
821.728	26663
821.868	26434
822.008	26412
822.149	26377
822.289	26446
822.429	26164
822.569	26024
822.709	25978
822.849	25864
822.99	25940
823.13	25826
823.27	25841
823.41	25647
823.55	25597
823.69	25700
823.83	25670
823.97	25635
824.11	25514
824.25	25392
824.389	25533
824.529	25704
824.669	25510
824.809	25609
824.949	25651
825.089	25655
825.228	25677
825.368	25346
825.508	25354
825.648	25327
825.787	25388
825.927	25529
826.067	25301
826.206	25483
826.346	25472
826.485	25407
826.625	25327
826.765	25499
826.904	25430
827.044	25194
827.183	25118
827.323	25152
827.462	25110
827.601	25209
827.741	25145
827.88	25202
828.02	25114
828.159	25023
828.298	25031
828.437	25118
828.577	25034
828.716	25179
828.855	25084
828.994	24871
829.134	24856
829.273	24863
829.412	24837
829.551	24791
829.69	24791
829.829	24973
829.968	24920
830.107	24791
830.246	24772
830.385	24764
830.524	24768
830.663	24650
830.802	24467
830.941	24437
831.08	24365
831.219	24448
831.357	24388
831.496	24597
831.635	24342
831.774	24319
831.913	24311
832.051	24281
832.19	24220
832.329	24209
832.467	24034
832.606	23946
832.744	23996
832.883	23942
833.022	23931
833.16	24072
833.299	24076
833.437	24079
833.576	24190
833.714	24140
833.852	24209
833.991	24076
834.129	24277
834.267	24167
834.406	24171
834.544	24148
834.682	24026
834.821	24121
834.959	24095
835.097	23984
835.235	24140
835.373	24083
835.511	24045
835.65	23958
835.788	23984
835.926	23813
836.064	23817
836.202	23813
836.34	23828
836.478	24064
836.615	24007
836.753	23988
836.891	23999
837.029	23931
837.167	23882
837.305	23805
837.443	23798
837.58	23775
837.718	23851
837.856	23859
837.993	23707
838.131	23703
838.269	23680
838.406	23752
838.544	23691
838.681	23360
838.819	23425
838.956	23265
839.094	23231
839.231	23353
839.369	23395
839.506	23786
839.643	23638
839.781	23265
839.918	23204
840.055	23189
840.193	23235
840.33	23170
840.467	23261
840.604	23292
840.742	23501
840.879	23003
841.016	23010
841.153	23098
841.29	23402
841.427	23208
841.564	23029
841.701	23105
841.838	23056
841.975	23178
842.112	23208
842.249	22999
842.385	22957
842.522	23136
842.659	22972
842.796	22965
842.933	22934
843.069	22854
843.206	22968
843.343	22858
843.479	22953
843.616	22900
843.752	22691
843.889	22729
844.025	22824
844.162	22683
844.298	22930
844.435	22721
844.571	22679
844.708	22702
844.844	22809
844.98	22725
845.117	22740
845.253	22698
845.389	22622
845.525	22607
845.661	22588
845.798	22538
845.934	22577
846.07	22516
846.206	22451
846.342	22519
846.478	22481
846.614	22249
846.75	22105
846.886	22196
847.022	22185
847.158	22173
847.294	22135
847.429	22211
847.565	22230
847.701	22421
847.837	21827
847.972	21926
848.108	21945
848.244	22010
848.379	21793
848.515	21724
848.65	21797
848.786	21869
848.921	21732
849.057	21842
849.192	21873
849.328	21861
849.463	21781
849.598	21675
849.734	21759
849.869	21568
850.004	21553
850.14	21568
850.275	21641
850.41	21462
850.545	21549
850.68	21477
850.815	21606
850.95	21625
851.085	21709
851.22	21648
851.355	21477
851.49	21595
851.625	21519
851.76	21523
851.895	21389
852.03	21294
852.165	21526
852.299	21595
852.434	21637
852.569	21660
852.703	21580
852.838	21633
852.973	21648
853.107	21690
853.242	21408
853.376	21450
853.511	21336
853.645	21367
853.78	21614
853.914	21447
854.048	21294
854.183	21363
854.317	21507
854.451	21526
854.585	21416
854.72	21355
854.854	21488
854.988	21313
855.122	21454
855.256	21287
855.39	21294
855.524	21568
855.658	21454
855.792	21302
855.926	21401
856.06	21405
856.194	21488
856.327	21378
856.461	21363
856.595	21226
856.729	21298
856.862	21447
856.996	21462
857.13	21542
857.263	21576
857.397	21401
857.53	21367
857.664	21523
857.797	21466
857.931	21523
858.064	21359
858.197	21538
858.331	21332
858.464	21260
858.597	21245
858.731	21466
858.864	21408
858.997	21428
859.13	21329
859.263	21454
859.396	21553
859.529	21245
859.662	21332
859.795	21416
859.928	21382
860.061	21587
860.194	21591
860.327	21435
860.46	21378
860.592	21557
860.725	21568
860.858	21534
860.99	21477
861.123	21294
861.256	21241
861.388	21298
861.521	22082
861.653	21264
861.786	21096
861.918	21237
862.05	21306
862.183	21214
862.315	21477
862.447	21462
862.58	21241
862.712	21009
862.844	21001
862.976	21138
863.108	21146
863.24	21511
863.372	21009
863.504	21062
863.636	21108
863.768	21218
863.9	20990
864.032	21017
864.164	21055
864.296	21039
864.428	21100
864.559	21176
864.691	21157
864.823	21154
864.954	21104
865.086	21116
865.217	20861
865.349	21055
865.48	21062
865.612	21028
865.743	21028
865.875	20967
866.006	20925
866.137	20944
866.269	20910
866.4	21074
866.531	21001
866.662	20849
866.793	20914
866.924	20944
867.055	20914
867.186	20960
867.317	20883
867.448	20861
867.579	20906
867.71	20906
867.841	20762
867.972	20952
868.103	20887
868.233	20899
868.364	20857
868.495	20956
868.625	21123
868.756	21138
868.886	21176
869.017	21188
869.147	21230
869.278	21310
869.408	21203
869.539	21272
869.669	21218
869.799	21184
869.929	21161
870.06	21222
870.19	21469
870.32	21504
870.45	21431
870.58	21625
870.71	21766
870.84	21568
870.97	21591
871.1	21694
871.23	21747
871.36	21945
871.489	21732
871.619	21637
871.749	21827
871.879	21625
872.008	21857
872.138	21755
872.267	21732
872.397	21686
872.526	21644
872.656	21675
872.785	21583
872.915	21751
873.044	21846
873.173	21808
873.303	21770
873.432	21854
873.561	21838
873.69	21671
873.819	21774
873.948	21793
874.077	21747
874.206	21793
874.335	21705
874.464	21956
874.593	21922
874.722	21994
874.851	22150
874.979	22013
875.108	22120
875.237	21987
875.365	21937
875.494	21972
875.623	22025
875.751	21911
875.88	22147
876.008	22082
876.136	22284
876.265	22538
876.393	22493
876.521	22428
876.65	22489
876.778	22428
876.906	22291
877.034	22424
877.162	22375
877.29	22207
877.418	22440
877.546	22474
877.674	22322
877.802	22417
877.93	22287
878.058	22360
878.185	22257
878.313	22192
878.441	22371
878.568	22204
878.696	22348
878.824	22310
878.951	22504
879.079	22497
879.206	22596
879.333	22481
879.461	22367
879.588	22375
879.715	22580
879.842	22687
879.97	22478
880.097	22162
880.224	22135
880.351	22249
880.478	22185
880.605	22105
880.732	22185
880.859	22485
880.986	22181
881.112	22124
881.239	22143
881.366	21998
881.493	21895
881.619	21751
881.746	21812
881.872	21759
881.999	21781
882.125	21644
882.252	21793
882.378	21759
882.505	21751
882.631	21633
882.757	21473
882.883	21561
883.01	21538
883.136	21412
883.262	21359
883.388	21218
883.514	21466
883.64	21618
883.766	21443
883.892	21237
884.018	21291
884.143	21564
884.269	21481
884.395	21135
884.52	21058
884.646	21127
884.772	20986
884.897	20914
885.023	21135
885.148	21146
885.274	21237
885.399	21199
885.524	21070
885.65	21150
885.775	21005
885.9	20979
886.025	21214
886.15	21176
886.275	21005
886.4	21058
886.525	21066
886.65	21001
886.775	21116
886.9	21100
887.025	21298
887.149	21104
887.274	20914
887.399	20781
887.523	20906
887.648	20857
887.773	20754
887.897	21001
888.021	20902
888.146	20857
888.27	20994
888.395	20819
888.519	20861
888.643	20906
888.767	20876
888.891	20655
889.015	20686
889.139	20762
889.263	20621
889.387	20796
889.511	20845
889.635	20678
889.759	20621
889.883	20545
890.006	20705
890.13	20777
890.254	20632
890.377	20575
890.501	20396
890.624	20317
890.748	20488
890.871	20347
890.995	20183
891.118	20134
891.241	20252
891.364	20267
891.488	20362
891.611	20275
891.734	20176
891.857	20275
891.98	20153
892.103	20278
892.226	20191
892.349	20122
892.471	20050
892.594	20233
892.717	20081
892.839	20183
892.962	20305
893.085	20206
893.207	20081
893.33	20012
893.452	19970
893.575	20172
893.697	20092
893.819	20309
893.941	20404
894.064	20282
894.186	20084
894.308	20020
894.43	20107
894.552	20317
894.674	20252
894.796	19967
894.918	20180
895.04	20039
895.161	20115
895.283	20168
895.405	20084
895.526	20046
895.648	20020
895.769	20267
895.891	20187
896.012	20142
896.134	20214
896.255	20183
896.376	20031
896.498	20183
896.619	20202
896.74	20145
896.861	20180
896.982	20362
897.103	20697
897.224	20347
897.345	20381
897.466	20328
897.587	20442
897.708	20492
897.828	20442
897.949	20320
898.07	20206
898.19	20290
898.311	20419
898.431	20343
898.552	20393
898.672	20431
898.792	20442
898.913	20362
899.033	20252
899.153	20324
899.273	20138
899.393	20001
899.513	20145
899.633	20142
899.753	20187
899.873	19959
899.993	20126
900.113	20115
900.232	20050
900.352	20138
900.472	19928
900.591	19837
900.711	19849
900.83	19750
900.95	19898
901.069	20119
901.189	19803
901.308	19537
901.427	19590
901.546	19502
901.665	19434
901.784	19438
901.904	19308
902.023	19209
902.141	18958
902.26	18973
902.379	18981
902.498	18909
902.617	18920
902.735	19038
902.854	18875
902.973	18875
903.091	18749
903.21	18650
903.328	18642
903.446	18540
903.565	18346
903.683	18559
903.801	18232
903.919	18422
904.038	18433
904.156	18182
904.274	18197
904.392	18163
904.51	18098
904.627	18182
904.745	18235
904.863	18327
904.981	18034
905.098	17851
905.216	18003
905.334	17950
905.451	17843
905.569	17984
905.686	17946
905.803	17870
905.921	17745
906.038	17802
906.155	17665
906.272	17512
906.389	17577
906.506	17482
906.623	17547
906.74	17402
906.857	17307
906.974	17387
907.091	17490
907.208	17528
907.324	17493
907.441	17254
907.557	17185
907.674	17162
907.79	17090
907.907	17128
908.023	17147
908.139	17227
908.256	17098
908.372	16965
908.488	17022
908.604	16915
908.72	16843
908.836	16831
908.952	16812
909.068	16862
909.184	16946
909.3	16744
909.415	16900
909.531	16854
909.647	16656
909.762	16508
909.878	16615
909.993	16599
910.108	16516
910.224	16554
910.339	16516
910.454	16421
910.57	16424
910.685	16287
910.8	16546
910.915	16462
911.03	16287
911.145	16356
911.259	16166
911.374	16257
911.489	16135
911.604	16093
911.718	15854
911.833	15937
911.947	15854
912.062	15781
912.176	15934
912.291	15827
912.405	15915
912.519	16010
912.633	16071
912.748	15869
912.862	15884
912.976	15793
913.09	15713
913.204	15686
913.318	15629
913.431	15804
913.545	15751
913.659	15819
913.772	15641
913.886	15519
914	15530
914.113	15610
914.226	15686
914.34	15488
914.453	15397
914.566	15568
914.68	15405
914.793	15367
914.906	15089
915.019	15146
915.132	15108
915.245	15165
915.358	15127
915.47	15123
915.583	15207
915.696	15169
915.809	15184
915.921	15264
916.034	15009
916.146	15047
916.259	15039
916.371	15089
916.483	15154
916.595	15024
916.708	14975
916.82	14975
916.932	14891
917.044	14872
917.156	14842
917.268	14849
917.38	14781
917.491	14682
917.603	14819
917.715	14902
917.826	14899
917.938	14830
918.049	14716
918.161	14746
918.272	14876
918.384	14777
918.495	14674
918.606	14564
918.717	14454
918.828	14488
918.939	14549
919.05	14499
919.161	14404
919.272	14328
919.383	14431
919.494	14575
919.604	14731
919.715	14480
919.826	14328
919.936	14396
920.047	14674
920.157	14404
920.267	14621
920.378	14575
920.488	14415
920.598	14686
920.708	14842
920.818	14686
920.928	14640
921.038	14765
921.148	14651
921.258	14374
921.368	14374
921.477	14351
921.587	14263
921.697	14084
921.806	14259
921.916	14020
922.025	13909
922.134	13849
922.244	13780
922.353	13887
922.462	13715
922.571	13712
922.68	13514
922.789	13540
922.898	13639
923.007	13487
923.116	13563
923.224	13483
923.333	13457
923.442	13460
923.55	13369
923.659	13388
923.767	13247
923.876	13263
923.984	13316
924.092	13228
924.201	13362
924.309	13320
924.417	13377
924.525	13183
924.633	13202
924.741	13997
924.849	13000
924.956	13168
925.064	13015
925.172	12825
925.279	12935
925.387	12996
925.494	12962
925.602	13099
925.709	13072
925.816	12916
925.924	12909
926.031	13080
926.138	12947
926.245	12939
926.352	12848
926.459	12840
926.566	12993
926.673	12745
926.779	12749
926.886	12703
926.993	12525
927.099	12521
927.206	12403
927.312	12544
927.419	12540
927.525	12525
927.631	12502
927.737	12410
927.843	12399
927.95	12140
928.056	12395
928.162	12350
928.267	12262
928.373	13019
928.479	12384
928.585	12106
928.69	12323
928.796	12311
928.901	12117
929.007	12030
929.112	12205
929.218	12167
929.323	12129
929.428	11988
929.533	12129
929.638	12072
929.743	12003
929.848	12098
929.953	12038
930.058	11817
930.163	11764
930.267	11741
930.372	11901
930.477	11718
930.581	11988
930.685	11859
930.79	11638
930.894	11672
930.998	11657
931.103	11764
931.207	11368
931.311	11379
931.415	11201
931.519	11048
931.623	10965
