Data from test_V78500241_407.txt Node
Date: Fri Mar 25 15:44:37 CST 2022
User: usil
Spectrometer: V785-0024
Trigger mode: 0
Integration Time (sec): 4.000000E-1
Scans to average: 1
Nonlinearity correction enabled: false
Boxcar width: 0
Storing dark spectrum: false
XAxis mode: Wavelengths
Number of Pixels in Spectrum: 1024
>>>>>Begin Spectral Data<<<<<
801.071	28843
801.214	28767
801.356	28649
801.499	28531
801.641	28523
801.783	28432
801.926	28554
802.068	28299
802.211	28284
802.353	28219
802.496	28055
802.638	28185
802.78	28120
802.923	27991
803.065	27873
803.208	28002
803.35	28207
803.492	28093
803.635	28162
803.777	28021
803.919	28219
804.061	28352
804.204	28215
804.346	28070
804.488	28242
804.63	28291
804.773	27960
804.915	28226
805.057	28352
805.199	28204
805.341	28158
805.483	28238
805.626	28196
805.768	28204
805.91	28382
806.052	28443
806.194	28287
806.336	28481
806.478	28276
806.62	28230
806.762	28443
806.904	28508
807.046	28930
807.188	28877
807.33	28687
807.472	28877
807.614	28615
807.756	28729
807.898	28626
808.04	28557
808.182	28535
808.324	28516
808.465	28599
808.607	28729
808.749	28885
808.891	29056
809.033	29132
809.174	29014
809.316	29044
809.458	29037
809.6	28995
809.741	29105
809.883	29064
810.025	29216
810.166	29261
810.308	29277
810.45	29174
810.591	29086
810.733	28965
810.875	28953
811.016	28953
811.158	28752
811.299	29128
811.441	29105
811.582	29098
811.724	28949
811.865	28850
812.007	29071
812.148	28938
812.29	28904
812.431	29067
812.573	29254
812.714	29440
812.855	29391
812.997	29638
813.138	29592
813.279	29566
813.421	29452
813.562	29318
813.703	29170
813.845	29048
813.986	28835
814.127	28763
814.268	28710
814.41	28641
814.551	28497
814.692	28630
814.833	28455
814.974	28615
815.115	28637
815.256	28497
815.397	28508
815.539	28409
815.68	28325
815.821	28356
815.962	28318
816.103	28447
816.244	28230
816.385	28166
816.526	28128
816.666	27892
816.807	27785
816.948	27994
817.089	27873
817.23	27983
817.371	27895
817.512	27812
817.653	27724
817.793	27778
817.934	27873
818.075	27835
818.216	27835
818.356	27648
818.497	27625
818.638	27606
818.778	27530
818.919	27701
819.06	27580
819.2	27747
819.341	27728
819.481	27751
819.622	27812
819.762	28166
819.903	28090
820.043	27956
820.184	27975
820.324	28029
820.465	27953
820.605	27884
820.746	27793
820.886	27781
821.026	27892
821.167	27724
821.307	27854
821.447	27804
821.588	27747
821.728	27652
821.868	27450
822.008	27268
822.149	27294
822.289	27226
822.429	26994
822.569	26807
822.709	26952
822.849	26792
822.99	26693
823.13	26670
823.27	26735
823.41	26598
823.55	26385
823.69	26526
823.83	26514
823.97	26480
824.11	26351
824.25	26282
824.389	26229
824.529	26324
824.669	26328
824.809	26511
824.949	26396
825.089	26305
825.228	26408
825.368	26225
825.508	26233
825.648	26161
825.787	26081
825.927	26233
826.067	26142
826.206	26191
826.346	26252
826.485	26347
826.625	26240
826.765	26244
826.904	26084
827.044	25989
827.183	25875
827.323	25837
827.462	25830
827.601	25830
827.741	25944
827.88	25849
828.02	25788
828.159	25799
828.298	25909
828.437	25997
828.577	25769
828.716	25974
828.855	25772
828.994	25518
829.134	25510
829.273	25537
829.412	25518
829.551	25392
829.69	25495
829.829	25529
829.968	25613
830.107	25609
830.246	25605
830.385	25438
830.524	25438
830.663	25479
830.802	25156
830.941	25084
831.08	25015
831.219	25129
831.357	25251
831.496	25289
831.635	24966
831.774	24935
831.913	25095
832.051	24916
832.19	24916
832.329	24821
832.467	24779
832.606	24722
832.744	24646
832.883	24608
833.022	24802
833.16	24601
833.299	24757
833.437	24703
833.576	24954
833.714	24837
833.852	24901
833.991	24844
834.129	24890
834.267	24700
834.406	24882
834.544	24791
834.682	24840
834.821	24692
834.959	24894
835.097	24776
835.235	24795
835.373	24563
835.511	24821
835.65	24620
835.788	24555
835.926	24563
836.064	24426
836.202	24540
836.34	24639
836.478	24730
836.615	24582
836.753	24498
836.891	24711
837.029	24627
837.167	24483
837.305	24532
837.443	24441
837.58	24525
837.718	24544
837.856	24319
837.993	24319
838.131	24285
838.269	24327
838.406	24311
838.544	24121
838.681	23927
838.819	24018
838.956	23878
839.094	23821
839.231	23878
839.369	23992
839.506	24216
839.643	24072
839.781	23760
839.918	23729
840.055	23897
840.193	23897
840.33	23741
840.467	23752
840.604	23783
840.742	24064
840.879	23634
841.016	23764
841.153	23520
841.29	23874
841.427	23695
841.564	23733
841.701	23707
841.838	23665
841.975	23668
842.112	23676
842.249	23547
842.385	23520
842.522	23748
842.659	23710
842.796	23337
842.933	23501
843.069	23455
843.206	23353
843.343	23463
843.479	23429
843.616	23341
843.752	23254
843.889	23239
844.025	23311
844.162	23151
844.298	23242
844.435	23284
844.571	23128
844.708	23235
844.844	23334
844.98	23349
845.117	23265
845.253	23121
845.389	23010
845.525	23102
845.661	23060
845.798	23037
845.934	23113
846.07	22877
846.206	22980
846.342	23140
846.478	22889
846.614	22637
846.75	22596
846.886	22687
847.022	22679
847.158	22565
847.294	22630
847.429	22577
847.565	22573
847.701	22900
847.837	22478
847.972	22481
848.108	22440
848.244	22519
848.379	22207
848.515	22314
848.65	22261
848.786	22196
848.921	22169
849.057	22352
849.192	22154
849.328	22268
849.463	22234
849.598	22246
849.734	22101
849.869	22112
850.004	22025
850.14	22040
850.275	21915
850.41	21975
850.545	21911
850.68	21873
850.815	21968
850.95	21987
851.085	22223
851.22	21960
851.355	22025
851.49	21964
851.625	21926
851.76	21926
851.895	21831
852.03	21873
852.165	21911
852.299	22051
852.434	21998
852.569	22029
852.703	21888
852.838	22017
852.973	21979
853.107	22059
853.242	21850
853.376	21892
853.511	21759
853.645	21789
853.78	21949
853.914	21808
854.048	21816
854.183	21816
854.317	21751
854.451	22090
854.585	21751
854.72	21709
854.854	21918
854.988	21739
855.122	21732
855.256	21618
855.39	21747
855.524	21770
855.658	21850
855.792	21724
855.926	21888
856.06	21823
856.194	21747
856.327	21770
856.461	21690
856.595	21831
856.729	21728
856.862	21781
856.996	21709
857.13	21781
857.263	21827
857.397	22002
857.53	21888
857.664	21789
857.797	21911
857.931	21884
858.064	21857
858.197	21926
858.331	21838
858.464	21713
858.597	21667
858.731	21808
858.864	21652
858.997	21675
859.13	21774
859.263	21781
859.396	21762
859.529	21793
859.662	21842
859.795	21709
859.928	21755
860.061	21979
860.194	21979
860.327	21724
860.46	21876
860.592	21880
860.725	21918
860.858	21884
860.99	21804
861.123	21637
861.256	21819
861.388	21736
861.521	22557
861.653	21637
861.786	21507
861.918	21637
862.05	21713
862.183	21774
862.315	21827
862.447	21854
862.58	21842
862.712	21462
862.844	21454
862.976	21523
863.108	21603
863.24	22074
863.372	21424
863.504	21530
863.636	21603
863.768	21408
863.9	21382
864.032	21389
864.164	21363
864.296	21355
864.428	21686
864.559	21534
864.691	21625
864.823	21561
864.954	21473
865.086	21351
865.217	21416
865.349	21279
865.48	21325
865.612	21374
865.743	21405
865.875	21298
866.006	21367
866.137	21367
866.269	21462
866.4	21291
866.531	21272
866.662	21310
866.793	21298
866.924	21249
867.055	21389
867.186	21321
867.317	21211
867.448	21264
867.579	21252
867.71	21321
867.841	21127
867.972	21230
868.103	21363
868.233	21272
868.364	21389
868.495	21332
868.625	21469
868.756	21622
868.886	21386
869.017	21439
869.147	21671
869.278	21656
869.408	21454
869.539	21477
869.669	21553
869.799	21443
869.929	21785
870.06	21614
870.19	21854
870.32	21793
870.45	21865
870.58	21808
870.71	22074
870.84	22021
870.97	21854
871.1	21926
871.23	22207
871.36	22044
871.489	22021
871.619	22036
871.749	21949
871.879	22086
872.008	22051
872.138	22162
872.267	22173
872.397	22093
872.526	21884
872.656	21945
872.785	21922
872.915	22166
873.044	22139
873.173	22101
873.303	22120
873.432	22219
873.561	22200
873.69	22200
873.819	22078
873.948	22185
874.077	22124
874.206	22139
874.335	22059
874.464	22112
874.593	22363
874.722	22382
874.851	22299
874.979	22417
875.108	22588
875.237	22257
875.365	22371
875.494	22280
875.623	22424
875.751	22280
875.88	22310
876.008	22417
876.136	22607
876.265	22713
876.393	22911
876.521	22710
876.65	22820
876.778	22774
876.906	22706
877.034	22561
877.162	22706
877.29	22630
877.418	22687
877.546	22710
877.674	22592
877.802	22577
877.93	22755
878.058	22675
878.185	22672
878.313	22691
878.441	22664
878.568	22580
878.696	22611
878.824	22694
878.951	22763
879.079	22885
879.206	22972
879.333	22725
879.461	22725
879.588	22782
879.715	22889
879.842	23105
879.97	22710
880.097	22504
880.224	22379
880.351	22569
880.478	22516
880.605	22440
880.732	22554
880.859	22668
880.986	22402
881.112	22565
881.239	22367
881.366	22291
881.493	22242
881.619	22078
881.746	22158
881.872	22154
881.999	22044
882.125	22185
882.252	22120
882.378	22109
882.505	22234
882.631	21903
882.757	21873
882.883	21785
883.01	21728
883.136	21603
883.262	21622
883.388	21709
883.514	21789
883.64	21728
883.766	21793
883.892	21599
884.018	21587
884.143	21816
884.269	21739
884.395	21397
884.52	21351
884.646	21481
884.772	21344
884.897	21348
885.023	21401
885.148	21466
885.274	21462
885.399	21431
885.524	21519
885.65	21450
885.775	21511
885.9	21389
886.025	21515
886.15	21477
886.275	21397
886.4	21325
886.525	21416
886.65	21408
886.775	21367
886.9	21568
887.025	21507
887.149	21332
887.274	21218
887.399	21192
887.523	21252
887.648	21036
887.773	21116
887.897	21340
888.021	21306
888.146	21127
888.27	21359
888.395	21192
888.519	21214
888.643	21100
888.767	21226
888.891	21116
889.015	20906
889.139	21062
889.263	20906
889.387	21161
889.511	21096
889.635	21195
889.759	20895
889.883	20891
890.006	20883
890.13	21112
890.254	21036
890.377	20876
890.501	20686
890.624	20651
890.748	20739
890.871	20712
890.995	20389
891.118	20495
891.241	20461
891.364	20545
891.488	20720
891.611	20514
891.734	20549
891.857	20590
891.98	20484
892.103	20530
892.226	20488
892.349	20495
892.471	20339
892.594	20393
892.717	20484
892.839	20404
892.962	20594
893.085	20545
893.207	20461
893.33	20248
893.452	20332
893.575	20396
893.697	20305
893.819	20632
893.941	20556
894.064	20648
894.186	20301
894.308	20332
894.43	20454
894.552	20533
894.674	20499
894.796	20328
894.918	20332
895.04	20400
895.161	20549
895.283	20469
895.405	20332
895.526	20313
895.648	20476
895.769	20457
895.891	20374
896.012	20514
896.134	20381
896.255	20381
896.376	20442
896.498	20495
896.619	20488
896.74	20473
896.861	20568
896.982	20788
897.103	20895
897.224	20727
897.345	20636
897.466	20598
897.587	20697
897.708	20826
897.828	20617
897.949	20659
898.07	20480
898.19	20575
898.311	20883
898.431	20689
898.552	20621
898.672	20667
898.792	20705
898.913	20617
899.033	20427
899.153	20427
899.273	20438
899.393	20221
899.513	20454
899.633	20339
899.753	20370
899.873	20248
899.993	20381
900.113	20271
900.232	20339
900.352	20377
900.472	20210
900.591	20149
900.711	20168
900.83	20062
900.95	20305
901.069	20309
901.189	20126
901.308	19757
901.427	19776
901.546	19746
901.665	19818
901.784	19677
901.904	19525
902.023	19540
902.141	19362
902.26	19373
902.379	19217
902.498	19213
902.617	19263
902.735	19255
902.854	19152
902.973	19168
903.091	18875
903.21	18878
903.328	18897
903.446	18776
903.565	18738
903.683	18772
903.801	18696
903.919	18753
904.038	18738
904.156	18517
904.274	18570
904.392	18429
904.51	18407
904.627	18418
904.745	18467
904.863	18490
904.981	18178
905.098	18125
905.216	18114
905.334	18163
905.451	18102
905.569	18072
905.686	17980
905.803	18076
905.921	17843
906.038	17942
906.155	17946
906.272	17870
906.389	17802
906.506	17707
906.623	17657
906.74	17665
906.857	17585
906.974	17539
907.091	17672
907.208	17737
907.324	17638
907.441	17516
907.557	17402
907.674	17360
907.79	17277
907.907	17227
908.023	17277
908.139	17417
908.256	17341
908.372	17273
908.488	17254
908.604	16957
908.72	16984
908.836	16927
908.952	16904
909.068	17029
909.184	17174
909.3	16972
909.415	17033
909.531	17037
909.647	16809
909.762	16733
909.878	16679
909.993	16782
910.108	16603
910.224	16717
910.339	16656
910.454	16607
910.57	16615
910.685	16538
910.8	16752
910.915	16679
911.03	16474
911.145	16310
911.259	16318
911.374	16265
911.489	16226
911.604	16158
911.718	16029
911.833	16093
911.947	15964
912.062	15884
912.176	16086
912.291	16032
912.405	16044
912.519	16169
912.633	16185
912.748	16154
912.862	15975
912.976	15857
913.09	15770
913.204	15842
913.318	15838
913.431	15975
913.545	15960
913.659	15857
913.772	15793
913.886	15660
914	15618
914.113	15679
914.226	15800
914.34	15667
914.453	15561
914.566	15656
914.68	15747
914.793	15485
914.906	15283
915.019	15245
915.132	15275
915.245	15389
915.358	15180
915.47	15310
915.583	15260
915.696	15310
915.809	15412
915.921	15408
916.034	15131
916.146	15081
916.259	15218
916.371	15329
916.483	15272
916.595	15104
916.708	15089
916.82	15066
916.932	15039
917.044	15005
917.156	14998
917.268	14872
917.38	14899
917.491	14838
917.603	14868
917.715	14925
917.826	14864
917.938	14921
918.049	14750
918.161	14925
918.272	15005
918.384	14925
918.495	14739
918.606	14659
918.717	14598
918.828	14727
918.939	14663
919.05	14556
919.161	14610
919.272	14476
919.383	14476
919.494	14727
919.604	14746
919.715	14697
919.826	14568
919.936	14625
920.047	14644
920.157	14579
920.267	14670
920.378	14568
920.488	14549
920.598	14762
920.708	14864
920.818	14739
920.928	14716
921.038	14800
921.148	14857
921.258	14533
921.368	14404
921.477	14347
921.587	14275
921.697	14313
921.806	14370
921.916	14199
922.025	14084
922.134	13989
922.244	13936
922.353	14088
922.462	13902
922.571	13860
922.68	13681
922.789	13639
922.898	13632
923.007	13540
923.116	13628
923.224	13548
923.333	13533
923.442	13460
923.55	13540
923.659	13483
923.767	13449
923.876	13396
923.984	13544
924.092	13293
924.201	13411
924.309	13381
924.417	13327
924.525	13213
924.633	13350
924.741	14130
924.849	13122
924.956	13228
925.064	13072
925.172	13038
925.279	13069
925.387	13046
925.494	13050
925.602	13122
925.709	13126
925.816	12970
925.924	13042
926.031	13046
926.138	12966
926.245	13065
926.352	12920
926.459	12985
926.566	13038
926.673	12905
926.779	12779
926.886	12741
926.993	12662
927.099	12597
927.206	12582
927.312	12528
927.419	12623
927.525	12563
927.631	12566
927.737	12460
927.843	12467
927.95	12372
928.056	12410
928.162	12456
928.267	12479
928.373	13069
928.479	12464
928.585	12311
928.69	12380
928.796	12433
928.901	12247
929.007	12144
929.112	12273
929.218	12201
929.323	12152
929.428	12098
929.533	12224
929.638	12007
929.743	12079
929.848	12216
929.953	12133
930.058	12011
930.163	11870
930.267	11809
930.372	11969
930.477	11684
930.581	12030
930.685	11847
930.79	11608
930.894	11695
930.998	11668
931.103	11840
931.207	11364
931.311	11383
931.415	11273
931.519	11151
931.623	11067
