Data from test_V78500241_701.txt Node
Date: Fri Mar 25 15:46:39 CST 2022
User: usil
Spectrometer: V785-0024
Trigger mode: 0
Integration Time (sec): 4.000000E-1
Scans to average: 1
Nonlinearity correction enabled: false
Boxcar width: 0
Storing dark spectrum: false
XAxis mode: Wavelengths
Number of Pixels in Spectrum: 1024
>>>>>Begin Spectral Data<<<<<
801.071	27701
801.214	27568
801.356	27329
801.499	27222
801.641	27142
801.783	27066
801.926	27291
802.068	27070
802.211	27066
802.353	26929
802.496	26864
802.638	26659
802.78	26857
802.923	26857
803.065	26796
803.208	26834
803.35	26861
803.492	27005
803.635	27055
803.777	26826
803.919	26918
804.061	27222
804.204	27096
804.346	26845
804.488	26994
804.63	27081
804.773	26849
804.915	27013
805.057	27047
805.199	27100
805.341	27009
805.483	27104
805.626	27173
805.768	27005
805.91	27100
806.052	27150
806.194	27009
806.336	27313
806.478	27077
806.62	27268
806.762	27093
806.904	27344
807.046	27637
807.188	27545
807.33	27576
807.472	27633
807.614	27466
807.756	27492
807.898	27268
808.04	27313
808.182	27283
808.324	27397
808.465	27374
808.607	27591
808.749	27724
808.891	27797
809.033	27991
809.174	27888
809.316	27869
809.458	27694
809.6	27770
809.741	27914
809.883	27850
810.025	27979
810.166	28040
810.308	28101
810.45	28002
810.591	28029
810.733	27705
810.875	27717
811.016	27667
811.158	27667
811.299	27941
811.441	27914
811.582	27953
811.724	27743
811.865	27701
812.007	27580
812.148	27591
812.29	27633
812.431	27865
812.573	28162
812.714	28112
812.855	28257
812.997	28310
813.138	28474
813.279	28375
813.421	28215
813.562	28124
813.703	28059
813.845	27922
813.986	27671
814.127	27705
814.268	27344
814.41	27382
814.551	27313
814.692	27477
814.833	27382
814.974	27393
815.115	27412
815.256	27340
815.397	27184
815.539	27199
815.68	27233
815.821	27070
815.962	27256
816.103	27036
816.244	27161
816.385	27055
816.526	27089
816.666	26883
816.807	26712
816.948	26819
817.089	26826
817.23	26746
817.371	26765
817.512	26743
817.653	26731
817.793	26712
817.934	26499
818.075	26655
818.216	26663
818.356	26609
818.497	26674
818.638	26377
818.778	26499
818.919	26450
819.06	26453
819.2	26583
819.341	26735
819.481	26670
819.622	26720
819.762	26990
819.903	26861
820.043	26842
820.184	26705
820.324	26724
820.465	26853
820.605	26705
820.746	26899
820.886	26545
821.026	26731
821.167	26849
821.307	26842
821.447	26655
821.588	26568
821.728	26457
821.868	26339
822.008	26145
822.149	26157
822.289	26172
822.429	25894
822.569	25788
822.709	25890
822.849	25708
822.99	25544
823.13	25521
823.27	25597
823.41	25521
823.55	25343
823.69	25369
823.83	25422
823.97	25434
824.11	25339
824.25	25270
824.389	25304
824.529	25422
824.669	25369
824.809	25343
824.949	25426
825.089	25381
825.228	25495
825.368	25266
825.508	25076
825.648	25198
825.787	25324
825.927	25206
826.067	25221
826.206	25160
826.346	25263
826.485	25251
826.625	25190
826.765	25289
826.904	25247
827.044	24863
827.183	24867
827.323	24882
827.462	24905
827.601	24795
827.741	24738
827.88	24901
828.02	24783
828.159	24837
828.298	24844
828.437	24913
828.577	24810
828.716	25061
828.855	24681
828.994	24570
829.134	24566
829.273	24703
829.412	24528
829.551	24456
829.69	24422
829.829	24532
829.968	24711
830.107	24639
830.246	24505
830.385	24456
830.524	24452
830.663	24380
830.802	24296
830.941	24182
831.08	24159
831.219	24121
831.357	24372
831.496	24410
831.635	24106
831.774	24064
831.913	24186
832.051	24007
832.19	23855
832.329	23904
832.467	23912
832.606	23794
832.744	23764
832.883	23817
833.022	23760
833.16	23745
833.299	23954
833.437	23965
833.576	23939
833.714	23935
833.852	23935
833.991	23878
834.129	24026
834.267	24018
834.406	23923
834.544	23942
834.682	23908
834.821	23855
834.959	24087
835.097	23885
835.235	23855
835.373	23798
835.511	23809
835.65	23714
835.788	23695
835.926	23642
836.064	23493
836.202	23589
836.34	23676
836.478	23657
836.615	23699
836.753	23764
836.891	23748
837.029	23729
837.167	23737
837.305	23657
837.443	23630
837.58	23630
837.718	23653
837.856	23661
837.993	23516
838.131	23634
838.269	23531
838.406	23417
838.544	23459
838.681	23048
838.819	23269
838.956	23041
839.094	23010
839.231	23117
839.369	23326
839.506	23406
839.643	23292
839.781	23041
839.918	22938
840.055	23056
840.193	23010
840.33	22976
840.467	22877
840.604	22942
840.742	23261
840.879	22809
841.016	22881
841.153	22957
841.29	23052
841.427	23064
841.564	22862
841.701	22999
841.838	22809
841.975	22896
842.112	22896
842.249	22782
842.385	22721
842.522	22885
842.659	22866
842.796	22691
842.933	22763
843.069	22653
843.206	22691
843.343	22759
843.479	22759
843.616	22744
843.752	22504
843.889	22561
844.025	22656
844.162	22386
844.298	22577
844.435	22489
844.571	22432
844.708	22459
844.844	22599
844.98	22618
845.117	22603
845.253	22440
845.389	22436
845.525	22360
845.661	22394
845.798	22367
845.934	22169
846.07	22120
846.206	22261
846.342	22314
846.478	22211
846.614	22070
846.75	22048
846.886	21987
847.022	21994
847.158	21922
847.294	21937
847.429	22006
847.565	21892
847.701	22112
847.837	21774
847.972	21587
848.108	21671
848.244	21739
848.379	21561
848.515	21641
848.65	21519
848.786	21542
848.921	21534
849.057	21580
849.192	21507
849.328	21466
849.463	21553
849.598	21538
849.734	21401
849.869	21401
850.004	21340
850.14	21378
850.275	21462
850.41	21310
850.545	21374
850.68	21203
850.815	21424
850.95	21344
851.085	21412
851.22	21526
851.355	21431
851.49	21317
851.625	21260
851.76	21302
851.895	21275
852.03	21188
852.165	21325
852.299	21272
852.434	21348
852.569	21340
852.703	21313
852.838	21450
852.973	21389
853.107	21344
853.242	21298
853.376	21081
853.511	21032
853.645	21146
853.78	21252
853.914	21241
854.048	21036
854.183	21123
854.317	21192
854.451	21367
854.585	21165
854.72	21055
854.854	21131
854.988	21127
855.122	21112
855.256	20982
855.39	21192
855.524	21211
855.658	21093
855.792	21184
855.926	21119
856.06	21173
856.194	21176
856.327	21024
856.461	21127
856.595	21028
856.729	21096
856.862	21199
856.996	21184
857.13	21195
857.263	21272
857.397	21146
857.53	21161
857.664	21135
857.797	21100
857.931	21264
858.064	21123
858.197	21203
858.331	21173
858.464	21116
858.597	21157
858.731	21051
858.864	21104
858.997	21195
859.13	21135
859.263	21268
859.396	21055
859.529	21142
859.662	21036
859.795	21020
859.928	21268
860.061	21230
860.194	21351
860.327	21150
860.46	21032
860.592	21176
860.725	21264
860.858	21332
860.99	21211
861.123	20990
861.256	21096
861.388	21043
861.521	21793
861.653	20861
861.786	20952
861.918	20876
862.05	21089
862.183	21108
862.315	20998
862.447	21104
862.58	21020
862.712	20902
862.844	20716
862.976	20899
863.108	20792
863.24	21294
863.372	20819
863.504	20921
863.636	20887
863.768	20849
863.9	20845
864.032	20807
864.164	20746
864.296	20773
864.428	20845
864.559	20887
864.691	21005
864.823	20834
864.954	20960
865.086	20815
865.217	20864
865.349	20826
865.48	20773
865.612	20750
865.743	20830
865.875	20769
866.006	20830
866.137	20724
866.269	20689
866.4	20785
866.531	20648
866.662	20682
866.793	20629
866.924	20689
867.055	20648
867.186	20686
867.317	20731
867.448	20465
867.579	20693
867.71	20587
867.841	20564
867.972	20674
868.103	20701
868.233	20598
868.364	20632
868.495	20823
868.625	20891
868.756	20960
868.886	20906
869.017	20994
869.147	20975
869.278	21074
869.408	20914
869.539	21013
869.669	21077
869.799	21013
869.929	21127
870.06	21081
870.19	21256
870.32	21283
870.45	21180
870.58	21348
870.71	21378
870.84	21408
870.97	21184
871.1	21454
871.23	21568
871.36	21530
871.489	21424
871.619	21389
871.749	21511
871.879	21561
872.008	21667
872.138	21564
872.267	21412
872.397	21321
872.526	21408
872.656	21287
872.785	21359
872.915	21515
873.044	21709
873.173	21530
873.303	21428
873.432	21530
873.561	21675
873.69	21618
873.819	21511
873.948	21671
874.077	21545
874.206	21485
874.335	21580
874.464	21641
874.593	21800
874.722	21720
874.851	21789
874.979	21835
875.108	21831
875.237	21698
875.365	21736
875.494	21622
875.623	21918
875.751	21838
875.88	21713
876.008	21873
876.136	21934
876.265	22169
876.393	22272
876.521	22223
876.65	22223
876.778	22158
876.906	22154
877.034	22082
877.162	22109
877.29	22044
877.418	22166
877.546	22131
877.674	22120
877.802	22116
877.93	22116
878.058	22147
878.185	22070
878.313	22093
878.441	21994
878.568	21892
878.696	22051
878.824	22192
878.951	22139
879.079	22063
879.206	22394
879.333	22382
879.461	22101
879.588	22265
879.715	22207
879.842	22379
879.97	22257
880.097	21972
880.224	21983
880.351	21945
880.478	21960
880.605	22017
880.732	21850
880.859	22120
880.986	21956
881.112	21972
881.239	21793
881.366	21797
881.493	21610
881.619	21488
881.746	21496
881.872	21595
881.999	21488
882.125	21507
882.252	21603
882.378	21481
882.505	21755
882.631	21454
882.757	21154
882.883	21374
883.01	21207
883.136	21195
883.262	21017
883.388	21009
883.514	21195
883.64	21329
883.766	21180
883.892	21001
884.018	21047
884.143	21157
884.269	21237
884.395	20963
884.52	20792
884.646	20811
884.772	20941
884.897	20765
885.023	20880
885.148	20906
885.274	21009
885.399	20925
885.524	20861
885.65	20853
885.775	20876
885.9	20765
886.025	20994
886.15	20910
886.275	20876
886.4	20891
886.525	20792
886.65	20788
886.775	20746
886.9	20990
887.025	21024
887.149	20819
887.274	20663
887.399	20556
887.523	20697
887.648	20617
887.773	20617
887.897	20621
888.021	20724
888.146	20579
888.27	20678
888.395	20667
888.519	20697
888.643	20587
888.767	20705
888.891	20446
889.015	20507
889.139	20575
889.263	20393
889.387	20571
889.511	20522
889.635	20511
889.759	20404
889.883	20518
890.006	20450
890.13	20541
890.254	20374
890.377	20374
890.501	20183
890.624	20237
890.748	20043
890.871	20039
890.995	20005
891.118	19982
891.241	20054
891.364	19986
891.488	20100
891.611	19955
891.734	20016
891.857	20122
891.98	20107
892.103	20077
892.226	19951
892.349	19963
892.471	19860
892.594	19959
892.717	19932
892.839	19788
892.962	19856
893.085	20031
893.207	19856
893.33	19772
893.452	19772
893.575	19997
893.697	19955
893.819	20081
893.941	20069
894.064	19951
894.186	19799
894.308	19845
894.43	20046
894.552	20073
894.674	20012
894.796	19856
894.918	19894
895.04	19982
895.161	19947
895.283	19967
895.405	19894
895.526	19906
895.648	19818
895.769	19860
895.891	19902
896.012	19951
896.134	19898
896.255	19932
896.376	19871
896.498	19913
896.619	19989
896.74	19898
896.861	19955
896.982	20240
897.103	20362
897.224	20259
897.345	20107
897.466	20008
897.587	20142
897.708	20362
897.828	20172
897.949	20180
898.07	19917
898.19	20096
898.311	20259
898.431	20096
898.552	20187
898.672	20229
898.792	20244
898.913	20221
899.033	20008
899.153	19856
899.273	19864
899.393	19951
899.513	19974
899.633	19883
899.753	19928
899.873	19845
899.993	19822
900.113	19738
900.232	19780
900.352	19776
900.472	19795
900.591	19765
900.711	19632
900.83	19609
900.95	19807
901.069	19643
901.189	19666
901.308	19362
901.427	19194
901.546	19259
901.665	19388
901.784	19312
901.904	19179
902.023	19099
902.141	18920
902.26	18810
902.379	18901
902.498	18787
902.617	18795
902.735	18840
902.854	18741
902.973	18688
903.091	18525
903.21	18597
903.328	18532
903.446	18338
903.565	18281
903.683	18232
903.801	18190
903.919	18300
904.038	18254
904.156	18064
904.274	18072
904.392	17992
904.51	17988
904.627	18072
904.745	18068
904.863	18011
904.981	17958
905.098	17604
905.216	17665
905.334	17680
905.451	17756
905.569	17737
905.686	17687
905.803	17741
905.921	17501
906.038	17547
906.155	17570
906.272	17490
906.389	17459
906.506	17353
906.623	17193
906.74	17197
906.857	17143
906.974	17105
907.091	17277
907.208	17414
907.324	17159
907.441	17060
907.557	17079
907.674	16991
907.79	16930
907.907	16957
908.023	16991
908.139	16908
908.256	16919
908.372	16759
908.488	16778
908.604	16675
908.72	16630
908.836	16721
908.952	16615
909.068	16660
909.184	16763
909.3	16634
909.415	16702
909.531	16645
909.647	16497
909.762	16405
909.878	16310
909.993	16375
910.108	16314
910.224	16291
910.339	16261
910.454	16257
910.57	16120
910.685	16185
910.8	16390
910.915	16325
911.03	16109
911.145	16029
911.259	15941
911.374	15941
911.489	15888
911.604	15865
911.718	15720
911.833	15762
911.947	15682
912.062	15572
912.176	15743
912.291	15819
912.405	15736
912.519	15972
912.633	15911
912.748	15751
912.862	15739
912.976	15584
913.09	15389
913.204	15485
913.318	15591
913.431	15667
913.545	15595
913.659	15614
913.772	15538
913.886	15447
914	15283
914.113	15401
914.226	15393
914.34	15336
914.453	15249
914.566	15378
914.68	15211
914.793	15135
914.906	15097
915.019	15024
915.132	14811
915.245	14986
915.358	14960
915.47	14921
915.583	14982
915.696	14975
915.809	15058
915.921	15055
916.034	14929
916.146	14880
916.259	14826
916.371	15001
916.483	14918
916.595	14788
916.708	14777
916.82	14830
916.932	14724
917.044	14826
917.156	14758
917.268	14644
917.38	14606
917.491	14606
917.603	14716
917.715	14655
917.826	14758
917.938	14579
918.049	14473
918.161	14583
918.272	14758
918.384	14674
918.495	14526
918.606	14465
918.717	14305
918.828	14446
918.939	14495
919.05	14252
919.161	14393
919.272	14115
919.383	14244
919.494	14446
919.604	14625
919.715	14332
919.826	14278
919.936	14298
920.047	14393
920.157	14339
920.267	14564
920.378	14328
920.488	14343
920.598	14503
920.708	14667
920.818	14549
920.928	14412
921.038	14617
921.148	14583
921.258	14278
921.368	14237
921.477	14100
921.587	14077
921.697	14020
921.806	14183
921.916	13955
922.025	13769
922.134	13742
922.244	13685
922.353	13742
922.462	13689
922.571	13575
922.68	13487
922.789	13331
922.898	13460
923.007	13297
923.116	13362
923.224	13320
923.333	13278
923.442	13285
923.55	13270
923.659	13164
923.767	13274
923.876	13107
923.984	13221
924.092	13103
924.201	13168
924.309	13160
924.417	13145
924.525	13091
924.633	12989
924.741	13959
924.849	12859
924.956	12977
925.064	12829
925.172	12768
925.279	12829
925.387	12863
925.494	12783
925.602	12970
925.709	12894
925.816	12753
925.924	12833
926.031	12745
926.138	12768
926.245	12798
926.352	12734
926.459	12776
926.566	12924
926.673	12730
926.779	12574
926.886	12540
926.993	12437
927.099	12464
927.206	12365
927.312	12338
927.419	12498
927.525	12445
927.631	12410
927.737	12232
927.843	12194
927.95	12125
928.056	12239
928.162	12239
928.267	12281
928.373	12867
928.479	12289
928.585	12083
928.69	12072
928.796	12129
928.901	12041
929.007	11920
929.112	12019
929.218	11901
929.323	12007
929.428	11866
929.533	12041
929.638	11897
929.743	11832
929.848	11942
929.953	11897
930.058	11775
930.163	11668
930.267	11661
930.372	11703
930.477	11619
930.581	11733
930.685	11710
930.79	11535
930.894	11543
930.998	11543
931.103	11688
931.207	11246
931.311	11197
931.415	11117
931.519	10831
931.623	10896
