Data from test_V78500241_696.txt Node
Date: Fri Mar 25 15:46:37 CST 2022
User: usil
Spectrometer: V785-0024
Trigger mode: 0
Integration Time (sec): 4.000000E-1
Scans to average: 1
Nonlinearity correction enabled: false
Boxcar width: 0
Storing dark spectrum: false
XAxis mode: Wavelengths
Number of Pixels in Spectrum: 1024
>>>>>Begin Spectral Data<<<<<
801.071	27953
801.214	28006
801.356	27728
801.499	27637
801.641	27591
801.783	27523
801.926	27614
802.068	27519
802.211	27408
802.353	27427
802.496	27165
802.638	27291
802.78	27123
802.923	27161
803.065	27180
803.208	27138
803.35	27272
803.492	27291
803.635	27370
803.777	27138
803.919	27287
804.061	27705
804.204	27477
804.346	27416
804.488	27230
804.63	27279
804.773	27268
804.915	27439
805.057	27526
805.199	27230
805.341	27466
805.483	27401
805.626	27576
805.768	27447
805.91	27538
806.052	27587
806.194	27462
806.336	27709
806.478	27523
806.62	27538
806.762	27667
806.904	27755
807.046	28067
807.188	28086
807.33	27914
807.472	28029
807.614	27934
807.756	27892
807.898	27789
808.04	27743
808.182	27736
808.324	27785
808.465	27850
808.607	28109
808.749	28116
808.891	28329
809.033	28322
809.174	28234
809.316	28211
809.458	28234
809.6	28196
809.741	28272
809.883	28295
810.025	28348
810.166	28394
810.308	28409
810.45	28371
810.591	28352
810.733	28360
810.875	27975
811.016	28257
811.158	28139
811.299	28382
811.441	28386
811.582	28462
811.724	28173
811.865	28207
812.007	28287
812.148	28196
812.29	28280
812.431	28401
812.573	28611
812.714	28653
812.855	28888
812.997	28687
813.138	29041
813.279	28797
813.421	28801
813.562	28721
813.703	28443
813.845	28531
813.986	28253
814.127	28010
814.268	27876
814.41	27979
814.551	27854
814.692	27819
814.833	27774
814.974	27937
815.115	27949
815.256	27694
815.397	27622
815.539	27717
815.68	27568
815.821	27633
815.962	27717
816.103	27713
816.244	27431
816.385	27450
816.526	27420
816.666	27233
816.807	27252
816.948	27192
817.089	27275
817.23	27188
817.371	27154
817.512	27264
817.653	27108
817.793	27173
817.934	27154
818.075	27211
818.216	27218
818.356	27237
818.497	27100
818.638	26788
818.778	26975
818.919	26963
819.06	27043
819.2	26948
819.341	27211
819.481	27230
819.622	27382
819.762	27473
819.903	27424
820.043	27332
820.184	27412
820.324	27233
820.465	27401
820.605	27348
820.746	27218
820.886	27093
821.026	27260
821.167	27241
821.307	27355
821.447	27272
821.588	27085
821.728	27013
821.868	26750
822.008	26678
822.149	26648
822.289	26724
822.429	26549
822.569	26332
822.709	26256
822.849	26145
822.99	26138
823.13	26191
823.27	26206
823.41	26062
823.55	25906
823.69	25989
823.83	25936
823.97	25887
824.11	25894
824.25	25917
824.389	25715
824.529	25986
824.669	25936
824.809	25902
824.949	25955
825.089	25826
825.228	25951
825.368	25651
825.508	25693
825.648	25689
825.787	25624
825.927	25731
826.067	25571
826.206	25704
826.346	25776
826.485	25845
826.625	25734
826.765	25769
826.904	25715
827.044	25384
827.183	25529
827.323	25381
827.462	25457
827.601	25320
827.741	25400
827.88	25445
828.02	25304
828.159	25483
828.298	25384
828.437	25453
828.577	25483
828.716	25438
828.855	25320
828.994	25103
829.134	25133
829.273	25160
829.412	25107
829.551	24951
829.69	25099
829.829	25198
829.968	25213
830.107	25152
830.246	25183
830.385	25065
830.524	25046
830.663	24875
830.802	24901
830.941	24612
831.08	24681
831.219	24791
831.357	24753
831.496	24905
831.635	24703
831.774	24669
831.913	24604
832.051	24570
832.19	24521
832.329	24536
832.467	24334
832.606	24353
832.744	24365
832.883	24369
833.022	24502
833.16	24289
833.299	24410
833.437	24429
833.576	24490
833.714	24369
833.852	24448
833.991	24513
834.129	24627
834.267	24471
834.406	24384
834.544	24536
834.682	24414
834.821	24494
834.959	24494
835.097	24460
835.235	24422
835.373	24281
835.511	24384
835.65	24266
835.788	24281
835.926	24186
836.064	24110
836.202	24152
836.34	24289
836.478	24342
836.615	24311
836.753	24262
836.891	24311
837.029	24319
837.167	24125
837.305	24098
837.443	24144
837.58	24045
837.718	24155
837.856	24060
837.993	24076
838.131	24053
838.269	23977
838.406	23996
838.544	23912
838.681	23855
838.819	23642
838.956	23585
839.094	23653
839.231	23592
839.369	23745
839.506	24003
839.643	23855
839.781	23596
839.918	23501
840.055	23581
840.193	23463
840.33	23535
840.467	23615
840.604	23551
840.742	23707
840.879	23444
841.016	23436
841.153	23330
841.29	23547
841.427	23509
841.564	23497
841.701	23570
841.838	23467
841.975	23273
842.112	23421
842.249	23303
842.385	23334
842.522	23535
842.659	23330
842.796	23303
842.933	23246
843.069	23200
843.206	23170
843.343	23311
843.479	23326
843.616	23242
843.752	23025
843.889	22999
844.025	23242
844.162	23132
844.298	23147
844.435	23098
844.571	22892
844.708	23044
844.844	23090
844.98	23140
845.117	23090
845.253	22949
845.389	22911
845.525	22946
845.661	22896
845.798	22790
845.934	22698
846.07	22847
846.206	22824
846.342	22961
846.478	22672
846.614	22592
846.75	22569
846.886	22512
847.022	22432
847.158	22500
847.294	22504
847.429	22443
847.565	22459
847.701	22679
847.837	22223
847.972	22261
848.108	22234
848.244	22329
848.379	22109
848.515	22021
848.65	22059
848.786	22017
848.921	22025
849.057	22226
849.192	22265
849.328	22051
849.463	22021
849.598	21975
849.734	21892
849.869	22017
850.004	22082
850.14	21888
850.275	21918
850.41	21724
850.545	21789
850.68	21724
850.815	21880
850.95	21831
851.085	22078
851.22	21911
851.355	21800
851.49	21823
851.625	21869
851.76	21979
851.895	21785
852.03	21709
852.165	21819
852.299	21812
852.434	21895
852.569	21850
852.703	21835
852.838	21972
852.973	22010
853.107	21930
853.242	21736
853.376	21591
853.511	21637
853.645	21705
853.78	21804
853.914	21751
854.048	21610
854.183	21625
854.317	21667
854.451	21804
854.585	21599
854.72	21701
854.854	21614
854.988	21488
855.122	21637
855.256	21481
855.39	21709
855.524	21736
855.658	21618
855.792	21778
855.926	21705
856.06	21591
856.194	21622
856.327	21622
856.461	21736
856.595	21618
856.729	21739
856.862	21751
856.996	21671
857.13	21736
857.263	21800
857.397	21720
857.53	21751
857.664	21709
857.797	21724
857.931	21838
858.064	21698
858.197	21823
858.331	21618
858.464	21603
858.597	21572
858.731	21568
858.864	21568
858.997	21549
859.13	21557
859.263	21633
859.396	21747
859.529	21549
859.662	21652
859.795	21549
859.928	21705
860.061	21778
860.194	21812
860.327	21739
860.46	21656
860.592	21850
860.725	21846
860.858	21827
860.99	21614
861.123	21591
861.256	21568
861.388	21667
861.521	22223
861.653	21583
861.786	21428
861.918	21466
862.05	21557
862.183	21576
862.315	21549
862.447	21572
862.58	21542
862.712	21424
862.844	21378
862.976	21439
863.108	21420
863.24	21903
863.372	21321
863.504	21466
863.636	21344
863.768	21412
863.9	21447
864.032	21222
864.164	21428
864.296	21279
864.428	21458
864.559	21416
864.691	21424
864.823	21488
864.954	21302
865.086	21405
865.217	21325
865.349	21119
865.48	21359
865.612	21294
865.743	21386
865.875	21226
866.006	21252
866.137	21260
866.269	21169
866.4	21291
866.531	21256
866.662	21142
866.793	21165
866.924	21237
867.055	21188
867.186	21233
867.317	21119
867.448	21180
867.579	21279
867.71	21211
867.841	21142
867.972	21195
868.103	21165
868.233	21192
868.364	21150
868.495	21336
868.625	21447
868.756	21496
868.886	21405
869.017	21450
869.147	21542
869.278	21633
869.408	21549
869.539	21492
869.669	21568
869.799	21450
869.929	21530
870.06	21561
870.19	21759
870.32	21728
870.45	21793
870.58	21888
870.71	21968
870.84	21857
870.97	21838
871.1	21823
871.23	22021
871.36	21987
871.489	21934
871.619	21930
871.749	22150
871.879	22082
872.008	22124
872.138	22048
872.267	22101
872.397	21972
872.526	21964
872.656	21884
872.785	21949
872.915	22078
873.044	22215
873.173	22078
873.303	21983
873.432	22158
873.561	22040
873.69	22135
873.819	22036
873.948	22067
874.077	22097
874.206	22093
874.335	22048
874.464	22295
874.593	22303
874.722	22325
874.851	22291
874.979	22382
875.108	22459
875.237	22192
875.365	22105
875.494	22257
875.623	22421
875.751	22253
875.88	22322
876.008	22489
876.136	22573
876.265	22706
876.393	22930
876.521	22687
876.65	22721
876.778	22706
876.906	22649
877.034	22618
877.162	22713
877.29	22645
877.418	22607
877.546	22641
877.674	22603
877.802	22637
877.93	22607
878.058	22607
878.185	22584
878.313	22656
878.441	22748
878.568	22584
878.696	22611
878.824	22645
878.951	22725
879.079	22782
879.206	22873
879.333	22816
879.461	22679
879.588	22675
879.715	22900
879.842	22881
879.97	22702
880.097	22413
880.224	22428
880.351	22436
880.478	22421
880.605	22485
880.732	22360
880.859	22668
880.986	22432
881.112	22527
881.239	22242
881.366	22287
881.493	22173
881.619	22093
881.746	22055
881.872	22017
881.999	22097
882.125	21934
882.252	21987
882.378	21953
882.505	22048
882.631	21972
882.757	21789
882.883	21854
883.01	21660
883.136	21747
883.262	21580
883.388	21641
883.514	21774
883.64	21762
883.766	21671
883.892	21401
884.018	21515
884.143	21534
884.269	21785
884.395	21435
884.52	21443
884.646	21462
884.772	21249
884.897	21230
885.023	21294
885.148	21515
885.274	21466
885.399	21447
885.524	21374
885.65	21420
885.775	21420
885.9	21321
886.025	21351
886.15	21504
886.275	21397
886.4	21233
886.525	21302
886.65	21256
886.775	21249
886.9	21340
887.025	21553
887.149	21306
887.274	21222
887.399	21173
887.523	21184
887.648	21123
887.773	21104
887.897	21096
888.021	21176
888.146	20982
888.27	21260
888.395	21264
888.519	21214
888.643	21127
888.767	21218
888.891	21089
889.015	20864
889.139	21055
889.263	20975
889.387	21001
889.511	21070
889.635	20986
889.759	20842
889.883	20906
890.006	20864
890.13	21055
890.254	20960
890.377	20868
890.501	20613
890.624	20659
890.748	20746
890.871	20473
890.995	20571
891.118	20473
891.241	20469
891.364	20556
891.488	20598
891.611	20495
891.734	20427
891.857	20667
891.98	20351
892.103	20454
892.226	20484
892.349	20507
892.471	20328
892.594	20396
892.717	20511
892.839	20423
892.962	20355
893.085	20415
893.207	20434
893.33	20328
893.452	20351
893.575	20560
893.697	20423
893.819	20663
893.941	20564
894.064	20556
894.186	20313
894.308	20286
894.43	20446
894.552	20518
894.674	20374
894.796	20286
894.918	20336
895.04	20374
895.161	20400
895.283	20301
895.405	20362
895.526	20355
895.648	20362
895.769	20427
895.891	20393
896.012	20533
896.134	20343
896.255	20431
896.376	20362
896.498	20339
896.619	20408
896.74	20438
896.861	20457
896.982	20765
897.103	20697
897.224	20663
897.345	20594
897.466	20568
897.587	20629
897.708	20773
897.828	20625
897.949	20522
898.07	20454
898.19	20587
898.311	20712
898.431	20526
898.552	20602
898.672	20712
898.792	20735
898.913	20629
899.033	20377
899.153	20393
899.273	20240
899.393	20298
899.513	20377
899.633	20301
899.753	20404
899.873	20267
899.993	20298
900.113	20358
900.232	20256
900.352	20271
900.472	20153
900.591	20005
900.711	20180
900.83	20142
900.95	20256
901.069	20149
901.189	20050
901.308	19784
901.427	19814
901.546	19875
901.665	19772
901.784	19712
901.904	19529
902.023	19510
902.141	19255
902.26	19266
902.379	19225
902.498	19129
902.617	19259
902.735	19225
902.854	19213
902.973	19069
903.091	18886
903.21	18913
903.328	18867
903.446	18810
903.565	18711
903.683	18665
903.801	18616
903.919	18673
904.038	18593
904.156	18410
904.274	18521
904.392	18464
904.51	18350
904.627	18467
904.745	18555
904.863	18399
904.981	18228
905.098	18144
905.216	18129
905.334	18190
905.451	18174
905.569	18178
905.686	18220
905.803	18163
905.921	17908
906.038	18068
906.155	18060
906.272	17745
906.389	17817
906.506	17581
906.623	17665
906.74	17505
906.857	17482
906.974	17512
907.091	17855
907.208	17790
907.324	17737
907.441	17535
907.557	17398
907.674	17356
907.79	17265
907.907	17273
908.023	17368
908.139	17322
908.256	17387
908.372	17318
908.488	17185
908.604	17170
908.72	17052
908.836	17003
908.952	17083
909.068	17079
909.184	17254
909.3	17052
909.415	17098
909.531	17159
909.647	16866
909.762	16752
909.878	16805
909.993	16740
910.108	16782
910.224	16740
910.339	16733
910.454	16634
910.57	16599
910.685	16500
910.8	16767
910.915	16816
911.03	16634
911.145	16622
911.259	16424
911.374	16344
911.489	16310
911.604	16284
911.718	16128
911.833	16109
911.947	16040
912.062	15911
912.176	16162
912.291	16207
912.405	16120
912.519	16284
912.633	16249
912.748	16223
912.862	16158
912.976	15918
913.09	15899
913.204	15800
913.318	15880
913.431	16040
913.545	16017
913.659	15964
913.772	15964
913.886	15785
914	15736
914.113	15831
914.226	15838
914.34	15713
914.453	15641
914.566	15797
914.68	15644
914.793	15523
914.906	15473
915.019	15367
915.132	15313
915.245	15226
915.358	15336
915.47	15363
915.583	15355
915.696	15439
915.809	15412
915.921	15435
916.034	15325
916.146	15252
916.259	15180
916.371	15359
916.483	15233
916.595	15165
916.708	15146
916.82	15165
916.932	15138
917.044	15070
917.156	15195
917.268	14979
917.38	15028
917.491	14883
917.603	15001
917.715	15039
917.826	15173
917.938	14887
918.049	14838
918.161	14853
918.272	15085
918.384	14952
918.495	14933
918.606	14796
918.717	14648
918.828	14800
918.939	14769
919.05	14625
919.161	14682
919.272	14541
919.383	14629
919.494	14765
919.604	14918
919.715	14720
919.826	14682
919.936	14598
920.047	14682
920.157	14651
920.267	14876
920.378	14689
920.488	14651
920.598	14895
920.708	15074
920.818	14838
920.928	14785
921.038	15066
921.148	14880
921.258	14731
921.368	14552
921.477	14450
921.587	14404
921.697	14305
921.806	14408
921.916	14233
922.025	14123
922.134	14073
922.244	14031
922.353	14172
922.462	13868
922.571	13856
922.68	13753
922.789	13685
922.898	13696
923.007	13670
923.116	13772
923.224	13674
923.333	13674
923.442	13525
923.55	13529
923.659	13613
923.767	13605
923.876	13411
923.984	13590
924.092	13449
924.201	13483
924.309	13388
924.417	13457
924.525	13381
924.633	13373
924.741	14313
924.849	13179
924.956	13327
925.064	13129
925.172	13149
925.279	13084
925.387	13152
925.494	13190
925.602	13289
925.709	13156
925.816	13053
925.924	13053
926.031	13110
926.138	13053
926.245	13095
926.352	13084
926.459	13061
926.566	13179
926.673	12935
926.779	12825
926.886	12829
926.993	12677
927.099	12719
927.206	12745
927.312	12559
927.419	12703
927.525	12662
927.631	12696
927.737	12570
927.843	12490
927.95	12490
928.056	12441
928.162	12441
928.267	12483
928.373	13145
928.479	12559
928.585	12372
928.69	12483
928.796	12433
928.901	12300
929.007	12220
929.112	12338
929.218	12292
929.323	12311
929.428	12247
929.533	12319
929.638	12114
929.743	12125
929.848	12163
929.953	12190
930.058	12106
930.163	11889
930.267	11916
930.372	12022
930.477	11828
930.581	12019
930.685	11954
930.79	11752
930.894	11866
930.998	11809
931.103	11863
931.207	11547
931.311	11478
931.415	11322
931.519	11239
931.623	11121
