Data from test_V78500241_85.txt Node
Date: Fri Mar 25 15:42:23 CST 2022
User: usil
Spectrometer: V785-0024
Trigger mode: 0
Integration Time (sec): 4.000000E-1
Scans to average: 1
Nonlinearity correction enabled: false
Boxcar width: 0
Storing dark spectrum: false
XAxis mode: Wavelengths
Number of Pixels in Spectrum: 1024
>>>>>Begin Spectral Data<<<<<
801.071	30053
801.214	30003
801.356	29760
801.499	29680
801.641	29577
801.783	29444
801.926	29455
802.068	29615
802.211	29486
802.353	29345
802.496	29284
802.638	29235
802.78	29315
802.923	29204
803.065	29022
803.208	29250
803.35	29326
803.492	29322
803.635	29277
803.777	29193
803.919	29360
804.061	29722
804.204	29406
804.346	29254
804.488	29292
804.63	29231
804.773	29079
804.915	29360
805.057	29429
805.199	29387
805.341	29292
805.483	29349
805.626	29337
805.768	29337
805.91	29467
806.052	29474
806.194	29356
806.336	29649
806.478	29493
806.62	29375
806.762	29524
806.904	29600
807.046	29904
807.188	29851
807.33	29805
807.472	29859
807.614	29786
807.756	29653
807.898	29726
808.04	29630
808.182	29665
808.324	29581
808.465	29592
808.607	29779
808.749	29885
808.891	29939
809.033	29984
809.174	29859
809.316	29950
809.458	29916
809.6	29828
809.741	30083
809.883	29958
810.025	30110
810.166	30171
810.308	30186
810.45	30243
810.591	30125
810.733	29939
810.875	29783
811.016	29821
811.158	29828
811.299	30144
811.441	30038
811.582	30197
811.724	29931
811.865	30007
812.007	29984
812.148	29783
812.29	29931
812.431	30026
812.573	30197
812.714	30380
812.855	30414
812.997	30517
813.138	30555
813.279	30525
813.421	30452
813.562	30349
813.703	30072
813.845	30018
813.986	29882
814.127	29619
814.268	29440
814.41	29615
814.551	29562
814.692	29531
814.833	29429
814.974	29455
815.115	29608
815.256	29421
815.397	29402
815.539	29360
815.68	29181
815.821	29174
815.962	29356
816.103	29311
816.244	29132
816.385	28976
816.526	29044
816.666	28850
816.807	28622
816.948	28702
817.089	28755
817.23	28679
817.371	28561
817.512	28618
817.653	28603
817.793	28565
817.934	28637
818.075	28694
818.216	28630
818.356	28554
818.497	28497
818.638	28154
818.778	28257
818.919	28314
819.06	28447
819.2	28379
819.341	28512
819.481	28303
819.622	28717
819.762	28866
819.903	28748
820.043	28626
820.184	28565
820.324	28710
820.465	28694
820.605	28573
820.746	28679
820.886	28363
821.026	28531
821.167	28561
821.307	28691
821.447	28504
821.588	28401
821.728	28299
821.868	28044
822.008	28158
822.149	27873
822.289	27941
822.429	27736
822.569	27591
822.709	27561
822.849	27393
822.99	27424
823.13	27439
823.27	27275
823.41	27173
823.55	27237
823.69	27199
823.83	27260
823.97	27047
824.11	27009
824.25	26940
824.389	27001
824.529	27085
824.669	27089
824.809	27070
824.949	26979
825.089	27020
825.228	26918
825.368	26872
825.508	26773
825.648	26785
825.787	26815
825.927	26788
826.067	26883
826.206	26693
826.346	26933
826.485	26937
826.625	26701
826.765	26872
826.904	26788
827.044	26590
827.183	26522
827.323	26446
827.462	26571
827.601	26442
827.741	26431
827.88	26385
828.02	26286
828.159	26514
828.298	26480
828.437	26530
828.577	26168
828.716	26492
828.855	26453
828.994	26126
829.134	26138
829.273	26172
829.412	26096
829.551	26195
829.69	26005
829.829	26229
829.968	26119
830.107	26183
830.246	26149
830.385	26115
830.524	25902
830.663	25845
830.802	25807
830.941	25601
831.08	25586
831.219	25791
831.357	25731
831.496	25845
831.635	25628
831.774	25502
831.913	25544
832.051	25407
832.19	25392
832.329	25400
832.467	25472
832.606	25320
832.744	25228
832.883	25190
833.022	25122
833.16	25221
833.299	25278
833.437	25232
833.576	25263
833.714	25259
833.852	25232
833.991	25312
834.129	25236
834.267	25285
834.406	25266
834.544	25247
834.682	25282
834.821	25072
834.959	25327
835.097	25133
835.235	25278
835.373	25179
835.511	25217
835.65	25076
835.788	25103
835.926	24848
836.064	24825
836.202	24920
836.34	25103
836.478	25183
836.615	24970
836.753	25023
836.891	25137
837.029	24970
837.167	25080
837.305	24932
837.443	24939
837.58	24787
837.718	24905
837.856	24844
837.993	24772
838.131	24779
838.269	24798
838.406	24779
838.544	24700
838.681	24448
838.819	24475
838.956	24334
839.094	24258
839.231	24304
839.369	24292
839.506	24631
839.643	24616
839.781	24155
839.918	24220
840.055	24136
840.193	24273
840.33	24076
840.467	24186
840.604	24239
840.742	24479
840.879	23946
841.016	24091
841.153	24034
841.29	24216
841.427	24174
841.564	24106
841.701	24197
841.838	24034
841.975	23927
842.112	23984
842.249	23942
842.385	23984
842.522	24186
842.659	23920
842.796	23824
842.933	23889
843.069	23737
843.206	23672
843.343	23786
843.479	23756
843.616	23737
843.752	23623
843.889	23566
844.025	23672
844.162	23516
844.298	23459
844.435	23478
844.571	23501
844.708	23474
844.844	23680
844.98	23687
845.117	23596
845.253	23471
845.389	23330
845.525	23376
845.661	23360
845.798	23292
845.934	23246
846.07	23200
846.206	23258
846.342	23303
846.478	23269
846.614	22965
846.75	22957
846.886	22961
847.022	22923
847.158	23037
847.294	22972
847.429	22949
847.565	22949
847.701	23113
847.837	22637
847.972	22592
848.108	22683
848.244	22622
848.379	22660
848.515	22535
848.65	22375
848.786	22348
848.921	22421
849.057	22634
849.192	22519
849.328	22592
849.463	22325
849.598	22432
849.734	22356
849.869	22295
850.004	22257
850.14	22131
850.275	22211
850.41	22128
850.545	22158
850.68	22287
850.815	22188
850.95	22166
851.085	22310
851.22	22291
851.355	22135
851.49	22093
851.625	22063
851.76	22055
851.895	22097
852.03	22097
852.165	22196
852.299	22097
852.434	22211
852.569	22287
852.703	22154
852.838	22238
852.973	22318
853.107	22287
853.242	22032
853.376	21915
853.511	21922
853.645	21975
853.78	22048
853.914	22074
854.048	21964
854.183	21876
854.317	22010
854.451	22139
854.585	21979
854.72	21903
854.854	21991
854.988	21926
855.122	21903
855.256	21873
855.39	21903
855.524	22048
855.658	21945
855.792	22147
855.926	21987
856.06	21888
856.194	22032
856.327	21975
856.461	21941
856.595	21915
856.729	21850
856.862	22063
856.996	21850
857.13	22078
857.263	21994
857.397	22055
857.53	21975
857.664	22093
857.797	22032
857.931	22109
858.064	21975
858.197	22006
858.331	21911
858.464	21808
858.597	21789
858.731	21903
858.864	21880
858.997	21926
859.13	21816
859.263	21797
859.396	22086
859.529	21835
859.662	21831
859.795	21785
859.928	21827
860.061	21983
860.194	22048
860.327	21934
860.46	21831
860.592	22055
860.725	22021
860.858	21987
860.99	21873
861.123	21804
861.256	21778
861.388	21895
861.521	22394
861.653	21774
861.786	21766
861.918	21732
862.05	21762
862.183	21915
862.315	21979
862.447	22017
862.58	21899
862.712	21595
862.844	21549
862.976	21759
863.108	21717
863.24	21956
863.372	21538
863.504	21523
863.636	21618
863.768	21515
863.9	21553
864.032	21424
864.164	21507
864.296	21591
864.428	21637
864.559	21667
864.691	21690
864.823	21557
864.954	21523
865.086	21526
865.217	21428
865.349	21450
865.48	21500
865.612	21564
865.743	21625
865.875	21431
866.006	21428
866.137	21386
866.269	21424
866.4	21408
866.531	21439
866.662	21416
866.793	21329
866.924	21351
867.055	21389
867.186	21279
867.317	21336
867.448	21336
867.579	21344
867.71	21279
867.841	21188
867.972	21462
868.103	21348
868.233	21359
868.364	21348
868.495	21504
868.625	21629
868.756	21637
868.886	21431
869.017	21599
869.147	21766
869.278	21690
869.408	21542
869.539	21606
869.669	21580
869.799	21713
869.929	21591
870.06	21759
870.19	22017
870.32	21838
870.45	21918
870.58	21918
870.71	22021
870.84	22082
870.97	22017
871.1	21968
871.23	22154
871.36	22242
871.489	22188
871.619	22143
871.749	22162
871.879	22246
872.008	22344
872.138	22310
872.267	22238
872.397	22044
872.526	21987
872.656	22070
872.785	21915
872.915	22223
873.044	22352
873.173	22211
873.303	22105
873.432	22143
873.561	22284
873.69	22226
873.819	22204
873.948	22413
874.077	22280
874.206	22143
874.335	22200
874.464	22173
874.593	22390
874.722	22519
874.851	22588
874.979	22523
875.108	22512
875.237	22284
875.365	22303
875.494	22394
875.623	22470
875.751	22371
875.88	22436
876.008	22504
876.136	22615
876.265	22877
876.393	22987
876.521	22847
876.65	22904
876.778	22877
876.906	22771
877.034	22782
877.162	22839
877.29	22797
877.418	22831
877.546	22801
877.674	22759
877.802	22687
877.93	22778
878.058	22694
878.185	22626
878.313	22843
878.441	22755
878.568	22565
878.696	22725
878.824	22805
878.951	22938
879.079	22953
879.206	23121
879.333	22885
879.461	22824
879.588	22805
879.715	22858
879.842	23022
879.97	22801
880.097	22615
880.224	22721
880.351	22565
880.478	22523
880.605	22626
880.732	22603
880.859	22831
880.986	22516
881.112	22573
881.239	22478
881.366	22375
881.493	22405
881.619	22188
881.746	22128
881.872	22154
881.999	22196
882.125	22230
882.252	22192
882.378	22109
882.505	22265
882.631	22044
882.757	21937
882.883	21953
883.01	21918
883.136	21873
883.262	21812
883.388	21686
883.514	21972
883.64	21930
883.766	21770
883.892	21576
884.018	21648
884.143	21937
884.269	21979
884.395	21625
884.52	21485
884.646	21591
884.772	21412
884.897	21477
885.023	21492
885.148	21656
885.274	21576
885.399	21595
885.524	21515
885.65	21576
885.775	21542
885.9	21511
886.025	21591
886.15	21564
886.275	21473
886.4	21370
886.525	21462
886.65	21439
886.775	21447
886.9	21610
887.025	21720
887.149	21485
887.274	21291
887.399	21226
887.523	21336
887.648	21294
887.773	21199
887.897	21249
888.021	21256
888.146	21211
888.27	21264
888.395	21249
888.519	21279
888.643	21336
888.767	21268
888.891	21142
889.015	20975
889.139	21127
889.263	20899
889.387	21188
889.511	21283
889.635	21135
889.759	20910
889.883	20883
890.006	20994
890.13	21024
890.254	20979
890.377	20914
890.501	20720
890.624	20826
890.748	20811
890.871	20701
890.995	20636
891.118	20587
891.241	20450
891.364	20632
891.488	20720
891.611	20511
891.734	20552
891.857	20697
891.98	20526
892.103	20537
892.226	20465
892.349	20514
892.471	20473
892.594	20590
892.717	20507
892.839	20488
892.962	20492
893.085	20526
893.207	20461
893.33	20351
893.452	20400
893.575	20503
893.697	20442
893.819	20583
893.941	20689
894.064	20632
894.186	20366
894.308	20301
894.43	20594
894.552	20583
894.674	20488
894.796	20404
894.918	20438
895.04	20400
895.161	20530
895.283	20522
895.405	20328
895.526	20400
895.648	20404
895.769	20549
895.891	20431
896.012	20602
896.134	20522
896.255	20568
896.376	20499
896.498	20568
896.619	20594
896.74	20636
896.861	20530
896.982	20906
897.103	20986
897.224	20864
897.345	20876
897.466	20678
897.587	20750
897.708	20902
897.828	20583
897.949	20606
898.07	20663
898.19	20670
898.311	20804
898.431	20617
898.552	20693
898.672	20682
898.792	20785
898.913	20697
899.033	20495
899.153	20419
899.273	20400
899.393	20324
899.513	20282
899.633	20374
899.753	20377
899.873	20286
899.993	20454
900.113	20248
900.232	20336
900.352	20278
900.472	20210
900.591	20161
900.711	20157
900.83	20164
900.95	20195
901.069	20278
901.189	20084
901.308	19784
901.427	19670
901.546	19807
901.665	19765
901.784	19765
901.904	19696
902.023	19521
902.141	19190
902.26	19247
902.379	19312
902.498	19213
902.617	19175
902.735	19335
902.854	19206
902.973	19088
903.091	19019
903.21	18977
903.328	18848
903.446	18776
903.565	18726
903.683	18730
903.801	18585
903.919	18650
904.038	18627
904.156	18486
904.274	18517
904.392	18380
904.51	18334
904.627	18410
904.745	18372
904.863	18517
904.981	18254
905.098	18045
905.216	18098
905.334	18091
905.451	18079
905.569	18072
905.686	18053
905.803	18072
905.921	17767
906.038	17984
906.155	17897
906.272	17828
906.389	17718
906.506	17627
906.623	17710
906.74	17608
906.857	17516
906.974	17600
907.091	17771
907.208	17676
907.324	17608
907.441	17623
907.557	17376
907.674	17337
907.79	17193
907.907	17162
908.023	17277
908.139	17372
908.256	17223
908.372	17166
908.488	17166
908.604	17090
908.72	17033
908.836	17025
908.952	17052
909.068	16980
909.184	17029
909.3	16873
909.415	16980
909.531	16934
909.647	16736
909.762	16637
909.878	16618
909.993	16645
910.108	16577
910.224	16500
910.339	16615
910.454	16459
910.57	16500
910.685	16421
910.8	16679
910.915	16603
911.03	16500
911.145	16284
911.259	16226
911.374	16284
911.489	16215
911.604	16158
911.718	15998
911.833	15994
911.947	15880
912.062	15850
912.176	15895
912.291	15953
912.405	15956
912.519	16276
912.633	16196
912.748	15987
912.862	15972
912.976	15800
913.09	15713
913.204	15701
913.318	15778
913.431	15835
913.545	15819
913.659	15743
913.772	15720
913.886	15564
914	15587
914.113	15698
914.226	15675
914.34	15717
914.453	15511
914.566	15530
914.68	15420
914.793	15485
914.906	15275
915.019	15363
915.132	15116
915.245	15161
915.358	15138
915.47	15279
915.583	15226
915.696	15233
915.809	15275
915.921	15313
916.034	15089
916.146	15127
916.259	15024
916.371	15176
916.483	15123
916.595	14948
916.708	15062
916.82	14967
916.932	15001
917.044	14998
917.156	14979
917.268	14754
917.38	14842
917.491	14800
917.603	14720
917.715	14838
917.826	14982
917.938	14697
918.049	14640
918.161	14762
918.272	14929
918.384	14941
918.495	14720
918.606	14670
918.717	14545
918.828	14575
918.939	14564
919.05	14469
919.161	14503
919.272	14259
919.383	14461
919.494	14526
919.604	14754
919.715	14507
919.826	14450
919.936	14476
920.047	14556
920.157	14556
920.267	14670
920.378	14522
920.488	14396
920.598	14613
920.708	14765
920.818	14575
920.928	14556
921.038	14743
921.148	14754
921.258	14503
921.368	14396
921.477	14263
921.587	14229
921.697	14092
921.806	14187
921.916	14073
922.025	13902
922.134	13837
922.244	13791
922.353	13864
922.462	13750
922.571	13696
922.68	13491
922.789	13506
922.898	13518
923.007	13377
923.116	13529
923.224	13434
923.333	13445
923.442	13304
923.55	13274
923.659	13259
923.767	13362
923.876	13236
923.984	13228
924.092	13198
924.201	13194
924.309	13164
924.417	13308
924.525	13095
924.633	13152
924.741	13955
924.849	12985
924.956	13038
925.064	13004
925.172	12882
925.279	12814
925.387	12871
925.494	12939
925.602	13053
925.709	12897
925.816	12810
925.924	12882
926.031	12882
926.138	12897
926.245	12867
926.352	12665
926.459	12897
926.566	12901
926.673	12719
926.779	12646
926.886	12578
926.993	12551
927.099	12456
927.206	12338
927.312	12456
927.419	12498
927.525	12376
927.631	12380
927.737	12357
927.843	12281
927.95	12060
928.056	12346
928.162	12281
928.267	12330
928.373	12966
928.479	12391
928.585	12186
928.69	12273
928.796	12308
928.901	12148
929.007	11996
929.112	12083
929.218	12098
929.323	11999
929.428	12041
929.533	12235
929.638	11817
929.743	11942
929.848	12019
929.953	11878
930.058	11802
930.163	11691
930.267	11680
930.372	11722
930.477	11642
930.581	11878
930.685	11657
930.79	11657
930.894	11585
930.998	11410
931.103	11672
931.207	11235
931.311	11208
931.415	11022
931.519	10938
931.623	10831
