Data from test_V78500241_3394.txt Node
Date: Fri Mar 25 16:05:18 CST 2022
User: usil
Spectrometer: V785-0024
Trigger mode: 0
Integration Time (sec): 4.000000E-1
Scans to average: 1
Nonlinearity correction enabled: false
Boxcar width: 0
Storing dark spectrum: false
XAxis mode: Wavelengths
Number of Pixels in Spectrum: 1024
>>>>>Begin Spectral Data<<<<<
801.071	28303
801.214	28348
801.356	28010
801.499	27983
801.641	27838
801.783	27759
801.926	28002
802.068	27964
802.211	27709
802.353	27785
802.496	27542
802.638	27629
802.78	27450
802.923	27386
803.065	27462
803.208	27473
803.35	27553
803.492	27648
803.635	27629
803.777	27583
803.919	27614
804.061	27991
804.204	27774
804.346	27705
804.488	27549
804.63	27812
804.773	27599
804.915	27743
805.057	27869
805.199	27827
805.341	27831
805.483	27895
805.626	27789
805.768	27812
805.91	27854
806.052	27975
806.194	27705
806.336	27991
806.478	27968
806.62	27960
806.762	27945
806.904	28158
807.046	28306
807.188	28360
807.33	28371
807.472	28268
807.614	28246
807.756	28215
807.898	28177
808.04	28196
808.182	28166
808.324	28169
808.465	28306
808.607	28421
808.749	28649
808.891	28694
809.033	28675
809.174	28607
809.316	28550
809.458	28592
809.6	28653
809.741	28615
809.883	28725
810.025	28786
810.166	28835
810.308	28786
810.45	28733
810.591	28774
810.733	28626
810.875	28580
811.016	28580
811.158	28565
811.299	28645
811.441	28702
811.582	28618
811.724	28584
811.865	28478
812.007	28554
812.148	28474
812.29	28611
812.431	28717
812.573	28942
812.714	28854
812.855	29075
812.997	29037
813.138	29189
813.279	29128
813.421	28976
813.562	29060
813.703	28888
813.845	28691
813.986	28523
814.127	28405
814.268	28314
814.41	28211
814.551	28401
814.692	28173
814.833	28101
814.974	28276
815.115	28200
815.256	28177
815.397	28147
815.539	28120
815.68	28097
815.821	28013
815.962	28112
816.103	28067
816.244	27823
816.385	27854
816.526	27690
816.666	27603
816.807	27603
816.948	27614
817.089	27568
817.23	27606
817.371	27401
817.512	27466
817.653	27458
817.793	27481
817.934	27587
818.075	27580
818.216	27625
818.356	27583
818.497	27545
818.638	27313
818.778	27291
818.919	27389
819.06	27230
819.2	27469
819.341	27549
819.481	27523
819.622	27720
819.762	27850
819.903	27789
820.043	27766
820.184	27663
820.324	27637
820.465	27694
820.605	27743
820.746	27671
820.886	27538
821.026	27694
821.167	27648
821.307	27751
821.447	27622
821.588	27469
821.728	27329
821.868	27241
822.008	26975
822.149	27116
822.289	27001
822.429	26819
822.569	26648
822.709	26735
822.849	26598
822.99	26629
823.13	26514
823.27	26419
823.41	26332
823.55	26332
823.69	26377
823.83	26317
823.97	26343
824.11	26164
824.25	26149
824.389	26157
824.529	26301
824.669	26134
824.809	26271
824.949	26294
825.089	26233
825.228	26210
825.368	26092
825.508	25944
825.648	26001
825.787	26107
825.927	26115
826.067	26058
826.206	26100
826.346	25982
826.485	26183
826.625	26130
826.765	26168
826.904	26145
827.044	25830
827.183	25757
827.323	25795
827.462	25765
827.601	25784
827.741	25776
827.88	25830
828.02	25662
828.159	25693
828.298	25708
828.437	25818
828.577	25613
828.716	25822
828.855	25696
828.994	25479
829.134	25544
829.273	25510
829.412	25308
829.551	25540
829.69	25537
829.829	25571
829.968	25510
830.107	25521
830.246	25320
830.385	25373
830.524	25324
830.663	25293
830.802	25289
830.941	25122
831.08	25053
831.219	25175
831.357	25209
831.496	25171
831.635	25046
831.774	24954
831.913	24970
832.051	24924
832.19	24920
832.329	24897
832.467	24833
832.606	24856
832.744	24684
832.883	24692
833.022	24859
833.16	24688
833.299	24795
833.437	24764
833.576	24871
833.714	24795
833.852	24852
833.991	24795
834.129	24871
834.267	24814
834.406	24810
834.544	24909
834.682	24852
834.821	24852
834.959	25027
835.097	24665
835.235	24932
835.373	24840
835.511	24787
835.65	24620
835.788	24673
835.926	24547
836.064	24490
836.202	24445
836.34	24722
836.478	24707
836.615	24513
836.753	24540
836.891	24616
837.029	24757
837.167	24505
837.305	24616
837.443	24681
837.58	24350
837.718	24547
837.856	24475
837.993	24479
838.131	24403
838.269	24483
838.406	24369
838.544	24380
838.681	24095
838.819	24034
838.956	24018
839.094	24011
839.231	24015
839.369	24133
839.506	24350
839.643	24247
839.781	23939
839.918	23950
840.055	23897
840.193	23931
840.33	23866
840.467	23809
840.604	23866
840.742	24171
840.879	23760
841.016	23707
841.153	23699
841.29	24087
841.427	23786
841.564	23851
841.701	23794
841.838	23870
841.975	23813
842.112	23786
842.249	23680
842.385	23528
842.522	23859
842.659	23752
842.796	23642
842.933	23680
843.069	23463
843.206	23581
843.343	23657
843.479	23623
843.616	23680
843.752	23341
843.889	23398
844.025	23547
844.162	23436
844.298	23474
844.435	23417
844.571	23440
844.708	23341
844.844	23573
844.98	23463
845.117	23436
845.253	23353
845.389	23155
845.525	23296
845.661	23311
845.798	23246
845.934	23178
846.07	23094
846.206	23090
846.342	23223
846.478	23159
846.614	22949
846.75	22908
846.886	22790
847.022	22828
847.158	22767
847.294	22805
847.429	22949
847.565	22873
847.701	23086
847.837	22519
847.972	22580
848.108	22801
848.244	22603
848.379	22432
848.515	22535
848.65	22459
848.786	22447
848.921	22459
849.057	22527
849.192	22512
849.328	22504
849.463	22470
849.598	22352
849.734	22325
849.869	22196
850.004	22207
850.14	22169
850.275	22303
850.41	22006
850.545	22006
850.68	22219
850.815	22238
850.95	22185
851.085	22272
851.22	22329
851.355	22314
851.49	22131
851.625	22131
851.76	22257
851.895	22067
852.03	22219
852.165	22097
852.299	22211
852.434	22295
852.569	22287
852.703	22249
852.838	22230
852.973	22421
853.107	22257
853.242	22082
853.376	21968
853.511	21945
853.645	21987
853.78	22166
853.914	22029
854.048	22013
854.183	22002
854.317	22204
854.451	22162
854.585	21987
854.72	22059
854.854	22139
854.988	21941
855.122	22002
855.256	21934
855.39	21998
855.524	22074
855.658	22093
855.792	22032
855.926	22025
856.06	22116
856.194	22093
856.327	21991
856.461	21941
856.595	21979
856.729	22067
856.862	22093
856.996	22048
857.13	22025
857.263	22173
857.397	22215
857.53	21998
857.664	22169
857.797	22116
857.931	22188
858.064	22086
858.197	22219
858.331	22120
858.464	21907
858.597	21831
858.731	21934
858.864	22025
858.997	22044
859.13	22021
859.263	22032
859.396	21972
859.529	22078
859.662	21945
859.795	22006
859.928	22120
860.061	22143
860.194	22181
860.327	22143
860.46	22120
860.592	22139
860.725	22162
860.858	22116
860.99	22147
861.123	21975
861.256	21994
861.388	22013
861.521	22805
861.653	21937
861.786	21831
861.918	21899
862.05	21827
862.183	21937
862.315	21975
862.447	22090
862.58	21918
862.712	21728
862.844	21717
862.976	21854
863.108	21736
863.24	22287
863.372	21728
863.504	21717
863.636	21762
863.768	21717
863.9	21774
864.032	21633
864.164	21622
864.296	21660
864.428	21789
864.559	21785
864.691	21876
864.823	21736
864.954	21576
865.086	21739
865.217	21599
865.349	21526
865.48	21450
865.612	21656
865.743	21690
865.875	21610
866.006	21606
866.137	21633
866.269	21591
866.4	21606
866.531	21599
866.662	21469
866.793	21466
866.924	21587
867.055	21701
867.186	21564
867.317	21466
867.448	21561
867.579	21454
867.71	21595
867.841	21424
867.972	21663
868.103	21466
868.233	21511
868.364	21583
868.495	21618
868.625	21785
868.756	21934
868.886	21804
869.017	21804
869.147	21915
869.278	21895
869.408	21808
869.539	21831
869.669	21679
869.799	21926
869.929	21884
870.06	21949
870.19	22090
870.32	22097
870.45	22055
870.58	22188
870.71	22272
870.84	22272
870.97	22249
871.1	22246
871.23	22466
871.36	22432
871.489	22276
871.619	22360
871.749	22432
871.879	22394
872.008	22516
872.138	22440
872.267	22478
872.397	22303
872.526	22215
872.656	22257
872.785	22257
872.915	22421
873.044	22508
873.173	22348
873.303	22405
873.432	22394
873.561	22470
873.69	22405
873.819	22451
873.948	22493
874.077	22367
874.206	22280
874.335	22424
874.464	22573
874.593	22588
874.722	22554
874.851	22763
874.979	22824
875.108	22679
875.237	22596
875.365	22546
875.494	22607
875.623	22668
875.751	22634
875.88	22672
876.008	22797
876.136	22698
876.265	23048
876.393	23117
876.521	23105
876.65	22995
876.778	23067
876.906	22900
877.034	23029
877.162	22987
877.29	22885
877.418	23014
877.546	23064
877.674	22961
877.802	22869
877.93	22961
878.058	22847
878.185	22904
878.313	22949
878.441	22854
878.568	22831
878.696	23006
878.824	22889
878.951	23025
879.079	23121
879.206	23299
879.333	23102
879.461	22976
879.588	23071
879.715	23102
879.842	23277
879.97	23029
880.097	22862
880.224	22835
880.351	22824
880.478	22847
880.605	22797
880.732	22782
880.859	22995
880.986	22980
881.112	22835
881.239	22748
881.366	22668
881.493	22417
881.619	22519
881.746	22367
881.872	22432
881.999	22390
882.125	22211
882.252	22516
882.378	22284
882.505	22478
882.631	22249
882.757	22063
882.883	22067
883.01	22078
883.136	22048
883.262	21911
883.388	21991
883.514	21926
883.64	22162
883.766	22082
883.892	21850
884.018	21823
884.143	21907
884.269	22013
884.395	21781
884.52	21778
884.646	21682
884.772	21633
884.897	21633
885.023	21652
885.148	21720
885.274	21808
885.399	21743
885.524	21720
885.65	21720
885.775	21743
885.9	21698
886.025	21865
886.15	21797
886.275	21682
886.4	21679
886.525	21606
886.65	21671
886.775	21515
886.9	21793
887.025	21873
887.149	21587
887.274	21488
887.399	21416
887.523	21363
887.648	21412
887.773	21332
887.897	21492
888.021	21553
888.146	21435
888.27	21519
888.395	21507
888.519	21401
888.643	21310
888.767	21515
888.891	21405
889.015	21264
889.139	21340
889.263	21302
889.387	21256
889.511	21447
889.635	21370
889.759	21176
889.883	21279
890.006	21329
890.13	21283
890.254	21180
890.377	21176
890.501	20963
890.624	21013
890.748	21055
890.871	20876
890.995	20792
891.118	20830
891.241	20762
891.364	20754
891.488	20967
891.611	20762
891.734	20720
891.857	20868
891.98	20758
892.103	20876
892.226	20720
892.349	20731
892.471	20625
892.594	20644
892.717	20781
892.839	20621
892.962	20674
893.085	20701
893.207	20678
893.33	20590
893.452	20590
893.575	20720
893.697	20693
893.819	20800
893.941	20902
894.064	20891
894.186	20617
894.308	20708
894.43	20674
894.552	20857
894.674	20830
894.796	20625
894.918	20644
895.04	20590
895.161	20712
895.283	20564
895.405	20564
895.526	20625
895.648	20617
895.769	20716
895.891	20724
896.012	20705
896.134	20876
896.255	20731
896.376	20537
896.498	20651
896.619	20773
896.74	20632
896.861	20693
896.982	21028
897.103	21093
897.224	20971
897.345	20902
897.466	20754
897.587	20864
897.708	21036
897.828	20902
897.949	20796
898.07	20705
898.19	20811
898.311	20906
898.431	20811
898.552	20906
898.672	21013
898.792	20914
898.913	20834
899.033	20849
899.153	20708
899.273	20606
899.393	20724
899.513	20594
899.633	20769
899.753	20731
899.873	20530
899.993	20629
900.113	20583
900.232	20659
900.352	20629
900.472	20438
900.591	20385
900.711	20415
900.83	20377
900.95	20625
901.069	20545
901.189	20336
901.308	20084
901.427	19898
901.546	19974
901.665	20008
901.784	20005
901.904	19894
902.023	19776
902.141	19556
902.26	19594
902.379	19639
902.498	19495
902.617	19415
902.735	19582
902.854	19358
902.973	19377
903.091	19190
903.21	19160
903.328	19209
903.446	19031
903.565	18985
903.683	18935
903.801	18753
903.919	18859
904.038	18916
904.156	18749
904.274	18814
904.392	18582
904.51	18654
904.627	18635
904.745	18703
904.863	18745
904.981	18536
905.098	18426
905.216	18376
905.334	18361
905.451	18410
905.569	18399
905.686	18467
905.803	18437
905.921	18174
906.038	18167
906.155	18197
906.272	18095
906.389	18182
906.506	17931
906.623	17908
906.74	17874
906.857	17760
906.974	17813
907.091	17908
907.208	17935
907.324	17927
907.441	17916
907.557	17630
907.674	17566
907.79	17589
907.907	17554
908.023	17581
908.139	17596
908.256	17573
908.372	17448
908.488	17486
908.604	17345
908.72	17318
908.836	17296
908.952	17277
909.068	17204
909.184	17463
909.3	17311
909.415	17391
909.531	17326
909.647	17025
909.762	16976
909.878	17067
909.993	17075
910.108	16953
910.224	16961
910.339	16889
910.454	16812
910.57	16835
910.685	16793
910.8	16987
910.915	16995
911.03	16839
911.145	16603
911.259	16569
911.374	16672
911.489	16603
911.604	16565
911.718	16249
911.833	16386
911.947	16162
912.062	16242
912.176	16371
912.291	16398
912.405	16390
912.519	16493
912.633	16615
912.748	16451
912.862	16310
912.976	16120
913.09	16055
913.204	16067
913.318	16101
913.431	16310
913.545	16234
913.659	16398
913.772	16143
913.886	16074
914	15930
914.113	16025
914.226	16067
914.34	15956
914.453	15880
914.566	16032
914.68	15892
914.793	15827
914.906	15629
915.019	15595
915.132	15576
915.245	15572
915.358	15469
915.47	15519
915.583	15534
915.696	15625
915.809	15644
915.921	15679
916.034	15500
916.146	15469
916.259	15466
916.371	15515
916.483	15340
916.595	15336
916.708	15477
916.82	15431
916.932	15306
917.044	15325
917.156	15344
917.268	15157
917.38	15154
917.491	15112
917.603	15264
917.715	15237
917.826	15317
917.938	15142
918.049	15081
918.161	15142
918.272	15298
918.384	15310
918.495	15119
918.606	14998
918.717	14880
918.828	14967
918.939	15005
919.05	14861
919.161	14910
919.272	14739
919.383	14746
919.494	14921
919.604	15222
919.715	14872
919.826	14845
919.936	14956
920.047	14929
920.157	14887
920.267	15028
920.378	14864
920.488	14868
920.598	15036
920.708	15192
920.818	15135
920.928	15028
921.038	15184
921.148	15184
921.258	14872
921.368	14708
921.477	14583
921.587	14617
921.697	14533
921.806	14602
921.916	14423
922.025	14336
922.134	14218
922.244	14142
922.353	14282
922.462	14199
922.571	14119
922.68	13974
922.789	13898
922.898	13890
923.007	13849
923.116	13898
923.224	13803
923.333	13841
923.442	13765
923.55	13719
923.659	13704
923.767	13765
923.876	13651
923.984	13719
924.092	13594
924.201	13681
924.309	13727
924.417	13677
924.525	13597
924.633	13552
924.741	14530
924.849	13365
924.956	13480
925.064	13297
925.172	13316
925.279	13164
925.387	13388
925.494	13301
925.602	13388
925.709	13297
925.816	13221
925.924	13236
926.031	13320
926.138	13225
926.245	13266
926.352	13190
926.459	13327
926.566	13274
926.673	13209
926.779	13027
926.886	13031
926.993	12882
927.099	12848
927.206	12882
927.312	12791
927.419	12981
927.525	12817
927.631	12852
927.737	12764
927.843	12692
927.95	12601
928.056	12707
928.162	12707
928.267	12669
928.373	13278
928.479	12806
928.585	12566
928.69	12532
928.796	12654
928.901	12563
929.007	12338
929.112	12525
929.218	12536
929.323	12483
929.428	12372
929.533	12441
929.638	12232
929.743	12319
929.848	12350
929.953	12384
930.058	12178
930.163	12072
930.267	12079
930.372	12273
930.477	12049
930.581	12205
930.685	12098
930.79	11874
930.894	11999
930.998	12011
931.103	12019
931.207	11676
931.311	11688
931.415	11512
931.519	11353
931.623	11227
