Data from test_V78500241_2766.txt Node
Date: Fri Mar 25 16:00:57 CST 2022
User: usil
Spectrometer: V785-0024
Trigger mode: 0
Integration Time (sec): 4.000000E-1
Scans to average: 1
Nonlinearity correction enabled: false
Boxcar width: 0
Storing dark spectrum: false
XAxis mode: Wavelengths
Number of Pixels in Spectrum: 1024
>>>>>Begin Spectral Data<<<<<
801.071	28835
801.214	28702
801.356	28432
801.499	28322
801.641	28306
801.783	28280
801.926	28261
802.068	28291
802.211	28261
802.353	28124
802.496	27937
802.638	28070
802.78	27907
802.923	27819
803.065	27835
803.208	28040
803.35	27956
803.492	28230
803.635	28128
803.777	28002
803.919	28265
804.061	28493
804.204	28211
804.346	28230
804.488	28048
804.63	28249
804.773	28230
804.915	28352
805.057	28409
805.199	28230
805.341	28322
805.483	28432
805.626	28451
805.768	28363
805.91	28466
806.052	28451
806.194	28360
806.336	28538
806.478	28375
806.62	28417
806.762	28500
806.904	28702
807.046	29014
807.188	28805
807.33	28866
807.472	28854
807.614	28824
807.756	28771
807.898	28801
808.04	28527
808.182	28797
808.324	28786
808.465	28778
808.607	28888
808.749	29060
808.891	29067
809.033	29322
809.174	29200
809.316	29071
809.458	29170
809.6	29079
809.741	29200
809.883	29178
810.025	29303
810.166	29303
810.308	29242
810.45	29493
810.591	29334
810.733	29128
810.875	29044
811.016	28904
811.158	28900
811.299	28984
811.441	29246
811.582	29372
811.724	29102
811.865	29121
812.007	29128
812.148	29079
812.29	29128
812.431	29345
812.573	29452
812.714	29509
812.855	29558
812.997	29737
813.138	29790
813.279	29767
813.421	29581
813.562	29490
813.703	29471
813.845	29452
813.986	29193
814.127	28892
814.268	28782
814.41	28976
814.551	28877
814.692	28881
814.833	28752
814.974	28793
815.115	28828
815.256	28637
815.397	28622
815.539	28706
815.68	28497
815.821	28550
815.962	28702
816.103	28618
816.244	28443
816.385	28440
816.526	28417
816.666	28215
816.807	28070
816.948	28276
817.089	28432
817.23	28101
817.371	28158
817.512	28120
817.653	28207
817.793	28067
817.934	28105
818.075	28177
818.216	28242
818.356	28135
818.497	27998
818.638	27705
818.778	27850
818.919	27956
819.06	28006
819.2	28067
819.341	28139
819.481	28097
819.622	28451
819.762	28428
819.903	28363
820.043	28436
820.184	28386
820.324	28272
820.465	28287
820.605	28261
820.746	28382
820.886	28025
821.026	28215
821.167	28242
821.307	28207
821.447	28147
821.588	28101
821.728	27899
821.868	27899
822.008	27644
822.149	27610
822.289	27671
822.429	27431
822.569	27264
822.709	27363
822.849	27218
822.99	27157
823.13	27211
823.27	27055
823.41	27009
823.55	26921
823.69	26986
823.83	26971
823.97	26986
824.11	26724
824.25	26750
824.389	26842
824.529	26895
824.669	26838
824.809	26792
824.949	26857
825.089	26963
825.228	26883
825.368	26701
825.508	26625
825.648	26720
825.787	26785
825.927	26686
826.067	26754
826.206	26663
826.346	26781
826.485	26712
826.625	26526
826.765	26804
826.904	26724
827.044	26457
827.183	26446
827.323	26336
827.462	26366
827.601	26537
827.741	26347
827.88	26469
828.02	26294
828.159	26240
828.298	26579
828.437	26389
828.577	26362
828.716	26423
828.855	26282
828.994	26157
829.134	26157
829.273	26069
829.412	26149
829.551	25887
829.69	26187
829.829	26100
829.968	26252
830.107	26206
830.246	25947
830.385	26024
830.524	25978
830.663	26073
830.802	25856
830.941	25799
831.08	25803
831.219	25693
831.357	25769
831.496	26012
831.635	25757
831.774	25544
831.913	25563
832.051	25464
832.19	25605
832.329	25514
832.467	25479
832.606	25400
832.744	25449
832.883	25335
833.022	25457
833.16	25369
833.299	25544
833.437	25365
833.576	25479
833.714	25499
833.852	25521
833.991	25552
834.129	25594
834.267	25578
834.406	25266
834.544	25464
834.682	25438
834.821	25487
834.959	25506
835.097	25274
835.235	25392
835.373	25438
835.511	25518
835.65	25270
835.788	25324
835.926	25107
836.064	25091
836.202	24905
836.34	25274
836.478	25308
836.615	25301
836.753	25263
836.891	25308
837.029	25297
837.167	25285
837.305	25160
837.443	25179
837.58	25084
837.718	25069
837.856	25053
837.993	25072
838.131	25076
838.269	24947
838.406	25080
838.544	24852
838.681	24730
838.819	24734
838.956	24585
839.094	24540
839.231	24528
839.369	24753
839.506	24878
839.643	24681
839.781	24551
839.918	24502
840.055	24490
840.193	24384
840.33	24441
840.467	24521
840.604	24536
840.742	24612
840.879	24323
841.016	24300
841.153	24346
841.29	24475
841.427	24334
841.564	24502
841.701	24365
841.838	24292
841.975	24285
842.112	24452
842.249	24228
842.385	24251
842.522	24441
842.659	24216
842.796	24182
842.933	24045
843.069	24213
843.206	24220
843.343	24171
843.479	24152
843.616	24224
843.752	24060
843.889	24076
844.025	24136
844.162	24041
844.298	24022
844.435	23927
844.571	24022
844.708	23954
844.844	24163
844.98	24129
845.117	24102
845.253	23840
845.389	23786
845.525	23878
845.661	23783
845.798	23764
845.934	23760
846.07	23832
846.206	23726
846.342	23824
846.478	23585
846.614	23573
846.75	23383
846.886	23417
847.022	23512
847.158	23398
847.294	23573
847.429	23478
847.565	23406
847.701	23676
847.837	23071
847.972	23117
848.108	23185
848.244	23147
848.379	23166
848.515	23037
848.65	23098
848.786	23105
848.921	22999
849.057	23083
849.192	23147
849.328	23075
849.463	23064
849.598	22976
849.734	22908
849.869	22881
850.004	22748
850.14	22862
850.275	22736
850.41	22694
850.545	22683
850.68	22702
850.815	22831
850.95	22710
851.085	23010
851.22	22927
851.355	22801
851.49	22790
851.625	22713
851.76	22812
851.895	22683
852.03	22786
852.165	22687
852.299	22850
852.434	22953
852.569	22892
852.703	22763
852.838	22866
852.973	22915
853.107	22900
853.242	22653
853.376	22672
853.511	22432
853.645	22637
853.78	22672
853.914	22713
854.048	22626
854.183	22649
854.317	22497
854.451	22755
854.585	22668
854.72	22660
854.854	22672
854.988	22485
855.122	22607
855.256	22481
855.39	22569
855.524	22618
855.658	22733
855.792	22554
855.926	22649
856.06	22664
856.194	22778
856.327	22569
856.461	22527
856.595	22542
856.729	22596
856.862	22866
856.996	22592
857.13	22561
857.263	22626
857.397	22721
857.53	22641
857.664	22683
857.797	22660
857.931	22683
858.064	22554
858.197	22721
858.331	22493
858.464	22557
858.597	22527
858.731	22516
858.864	22516
858.997	22474
859.13	22634
859.263	22630
859.396	22611
859.529	22550
859.662	22538
859.795	22546
859.928	22713
860.061	22599
860.194	22801
860.327	22679
860.46	22615
860.592	22580
860.725	22869
860.858	22691
860.99	22634
861.123	22573
861.256	22645
861.388	22622
861.521	23239
861.653	22493
861.786	22390
861.918	22508
862.05	22535
862.183	22489
862.315	22622
862.447	22706
862.58	22519
862.712	22394
862.844	22337
862.976	22371
863.108	22421
863.24	22805
863.372	22192
863.504	22299
863.636	22192
863.768	22398
863.9	22371
864.032	22246
864.164	22314
864.296	22303
864.428	22413
864.559	22432
864.691	22276
864.823	22253
864.954	22310
865.086	22181
865.217	22375
865.349	22032
865.48	22162
865.612	22188
865.743	22299
865.875	22116
866.006	22185
866.137	22169
866.269	22101
866.4	22150
866.531	22200
866.662	22124
866.793	22070
866.924	22192
867.055	22143
867.186	22070
867.317	22158
867.448	22002
867.579	22135
867.71	21968
867.841	22063
867.972	22200
868.103	22318
868.233	22154
868.364	22029
868.495	22162
868.625	22371
868.756	22489
868.886	22379
869.017	22249
869.147	22436
869.278	22546
869.408	22405
869.539	22398
869.669	22424
869.799	22375
869.929	22443
870.06	22573
870.19	22664
870.32	22660
870.45	22618
870.58	22790
870.71	22786
870.84	22843
870.97	22668
871.1	22729
871.23	22961
871.36	22801
871.489	22801
871.619	22900
871.749	22816
871.879	22976
872.008	22923
872.138	23083
872.267	22927
872.397	22759
872.526	22725
872.656	22793
872.785	22793
872.915	23025
873.044	23029
873.173	22949
873.303	22927
873.432	22953
873.561	23006
873.69	22892
873.819	22995
873.948	22949
874.077	23006
874.206	22900
874.335	22881
874.464	23083
874.593	23307
874.722	23060
874.851	23102
874.979	23216
875.108	23254
875.237	23155
875.365	23208
875.494	23151
875.623	23166
875.751	23174
875.88	23121
876.008	23345
876.136	23303
876.265	23627
876.393	23699
876.521	23668
876.65	23589
876.778	23547
876.906	23440
877.034	23490
877.162	23455
877.29	23398
877.418	23322
877.546	23482
877.674	23585
877.802	23554
877.93	23634
878.058	23482
878.185	23410
878.313	23444
878.441	23482
878.568	23398
878.696	23535
878.824	23512
878.951	23528
879.079	23756
879.206	23733
879.333	23600
879.461	23566
879.588	23611
879.715	23726
879.842	23805
879.97	23729
880.097	23299
880.224	23337
880.351	23322
880.478	23364
880.605	23356
880.732	23311
880.859	23577
880.986	23421
881.112	23288
881.239	23223
881.366	23067
881.493	22934
881.619	22961
881.746	22896
881.872	22908
881.999	22801
882.125	22812
882.252	22923
882.378	22873
882.505	23014
882.631	22668
882.757	22653
882.883	22607
883.01	22660
883.136	22523
883.262	22386
883.388	22390
883.514	22508
883.64	22554
883.766	22523
883.892	22322
884.018	22337
884.143	22394
884.269	22554
884.395	22265
884.52	22070
884.646	22215
884.772	22147
884.897	22143
885.023	22128
885.148	22306
885.274	22329
885.399	22257
885.524	22226
885.65	22116
885.775	22265
885.9	22097
886.025	22356
886.15	22242
886.275	22025
886.4	22147
886.525	22090
886.65	22131
886.775	22169
886.9	22268
887.025	22478
887.149	22074
887.274	21975
887.399	22032
887.523	21968
887.648	21880
887.773	21861
887.897	22006
888.021	21979
888.146	21964
888.27	22036
888.395	22093
888.519	22002
888.643	22032
888.767	21930
888.891	21873
889.015	21804
889.139	21926
889.263	21759
889.387	21922
889.511	21880
889.635	21861
889.759	21698
889.883	21781
890.006	21804
890.13	21888
890.254	21633
890.377	21595
890.501	21515
890.624	21405
890.748	21405
890.871	21492
890.995	21268
891.118	21279
891.241	21386
891.364	21359
891.488	21526
891.611	21214
891.734	21173
891.857	21363
891.98	21287
892.103	21294
892.226	21287
892.349	21268
892.471	21104
892.594	21245
892.717	21272
892.839	21165
892.962	21351
893.085	21233
893.207	21256
893.33	21108
893.452	21131
893.575	21374
893.697	21051
893.819	21317
893.941	21450
894.064	21268
894.186	21180
894.308	21096
894.43	21188
894.552	21211
894.674	21359
894.796	20975
894.918	21173
895.04	21116
895.161	21127
895.283	21192
895.405	21070
895.526	21131
895.648	21058
895.769	21252
895.891	21089
896.012	21211
896.134	21135
896.255	21135
896.376	21180
896.498	21093
896.619	21302
896.74	21157
896.861	21154
896.982	21382
897.103	21580
897.224	21428
897.345	21378
897.466	21287
897.587	21363
897.708	21538
897.828	21439
897.949	21188
898.07	21199
898.19	21287
898.311	21348
898.431	21344
898.552	21348
898.672	21416
898.792	21439
898.913	21348
899.033	21233
899.153	21108
899.273	20990
899.393	21066
899.513	21112
899.633	21058
899.753	21123
899.873	21081
899.993	21173
900.113	21028
900.232	21127
900.352	21043
900.472	20990
900.591	20788
900.711	20910
900.83	20807
900.95	20853
901.069	20994
901.189	20716
901.308	20541
901.427	20480
901.546	20431
901.665	20317
901.784	20358
901.904	20221
902.023	20298
902.141	20024
902.26	19879
902.379	20016
902.498	19947
902.617	19982
902.735	19906
902.854	19830
902.973	19811
903.091	19658
903.21	19540
903.328	19559
903.446	19544
903.565	19407
903.683	19312
903.801	19331
903.919	19407
904.038	19358
904.156	19171
904.274	19247
904.392	19118
904.51	19027
904.627	19141
904.745	19202
904.863	19095
904.981	18939
905.098	18806
905.216	18798
905.334	18993
905.451	18867
905.569	18795
905.686	18757
905.803	18726
905.921	18502
906.038	18665
906.155	18677
906.272	18479
906.389	18517
906.506	18369
906.623	18311
906.74	18289
906.857	18186
906.974	18285
907.091	18350
907.208	18460
907.324	18372
907.441	18167
907.557	18079
907.674	18091
907.79	17992
907.907	17954
908.023	18083
908.139	18121
908.256	18011
908.372	17931
908.488	17897
908.604	17805
908.72	17843
908.836	17805
908.952	17653
909.068	17680
909.184	17885
909.3	17703
909.415	17779
909.531	17745
909.647	17535
909.762	17395
909.878	17337
909.993	17433
910.108	17395
910.224	17395
910.339	17387
910.454	17387
910.57	17299
910.685	17204
910.8	17501
910.915	17330
911.03	17185
911.145	17037
911.259	17079
911.374	16999
911.489	16892
911.604	17048
911.718	16691
911.833	16793
911.947	16687
912.062	16546
912.176	16786
912.291	16736
912.405	16759
912.519	16946
912.633	16968
912.748	16824
912.862	16778
912.976	16645
913.09	16466
913.204	16588
913.318	16687
913.431	16618
913.545	16672
913.659	16710
913.772	16546
913.886	16405
914	16371
914.113	16481
914.226	16409
914.34	16405
914.453	16265
914.566	16402
914.68	16219
914.793	16207
914.906	16010
915.019	15937
915.132	15941
915.245	15975
915.358	15930
915.47	15934
915.583	15941
915.696	15854
915.809	15994
915.921	16055
916.034	16002
916.146	15804
916.259	15785
916.371	15945
916.483	15884
916.595	15785
916.708	15747
916.82	15770
916.932	15652
917.044	15705
917.156	15564
917.268	15675
917.38	15652
917.491	15500
917.603	15606
917.715	15629
917.826	15701
917.938	15454
918.049	15332
918.161	15496
918.272	15686
918.384	15526
918.495	15507
918.606	15447
918.717	15192
918.828	15249
918.939	15249
919.05	15226
919.161	15203
919.272	15104
919.383	15138
919.494	15195
919.604	15424
919.715	15279
919.826	15199
919.936	15252
920.047	15336
920.157	15249
920.267	15370
920.378	15268
920.488	15298
920.598	15431
920.708	15530
920.818	15401
920.928	15386
921.038	15542
921.148	15477
921.258	15100
921.368	15074
921.477	14975
921.587	15013
921.697	14880
921.806	14971
921.916	14849
922.025	14632
922.134	14621
922.244	14492
922.353	14613
922.462	14469
922.571	14488
922.68	14347
922.789	14309
922.898	14298
923.007	14202
923.116	14305
923.224	14237
923.333	14199
923.442	14046
923.55	14008
923.659	14084
923.767	14119
923.876	13997
923.984	14027
924.092	13967
924.201	13989
924.309	14024
924.417	13951
924.525	13830
924.633	13936
924.741	14830
924.849	13677
924.956	13841
925.064	13685
925.172	13582
925.279	13590
925.387	13556
925.494	13567
925.602	13738
925.709	13605
925.816	13407
925.924	13533
926.031	13533
926.138	13571
926.245	13559
926.352	13441
926.459	13563
926.566	13548
926.673	13502
926.779	13343
926.886	13331
926.993	13225
927.099	13160
927.206	13126
927.312	13080
927.419	13221
927.525	13069
927.631	13244
927.737	13015
927.843	13012
927.95	12897
928.056	12962
928.162	12993
928.267	13023
928.373	13438
928.479	12977
928.585	12665
928.69	12935
928.796	12844
928.901	12837
929.007	12566
929.112	12825
929.218	12715
929.323	12696
929.428	12665
929.533	12825
929.638	12551
929.743	12711
929.848	12711
929.953	12677
930.058	12528
930.163	12342
930.267	12376
930.372	12429
930.477	12296
930.581	12544
930.685	12372
930.79	12247
930.894	12209
930.998	12098
931.103	12342
931.207	11897
931.311	11923
931.415	11824
931.519	11573
931.623	11570
