Data from test_V78500241_218.txt Node
Date: Fri Mar 25 15:43:18 CST 2022
User: usil
Spectrometer: V785-0024
Trigger mode: 0
Integration Time (sec): 4.000000E-1
Scans to average: 1
Nonlinearity correction enabled: false
Boxcar width: 0
Storing dark spectrum: false
XAxis mode: Wavelengths
Number of Pixels in Spectrum: 1024
>>>>>Begin Spectral Data<<<<<
801.071	28820
801.214	28831
801.356	28565
801.499	28493
801.641	28421
801.783	28337
801.926	28421
802.068	28325
802.211	28318
802.353	28188
802.496	28063
802.638	28029
802.78	28040
802.923	27922
803.065	27899
803.208	27968
803.35	28093
803.492	28040
803.635	28124
803.777	28070
803.919	28074
804.061	28436
804.204	28139
804.346	27857
804.488	27766
804.63	27987
804.773	27907
804.915	27949
805.057	28040
805.199	27972
805.341	28169
805.483	28070
805.626	28109
805.768	27964
805.91	28063
806.052	28002
806.194	28051
806.336	28253
806.478	28169
806.62	28143
806.762	28169
806.904	28409
807.046	28569
807.188	28569
807.33	28565
807.472	28653
807.614	28417
807.756	28291
807.898	28352
808.04	28215
808.182	28257
808.324	28299
808.465	28329
808.607	28508
808.749	28721
808.891	28717
809.033	28752
809.174	28721
809.316	28607
809.458	28717
809.6	28687
809.741	28721
809.883	28782
810.025	28934
810.166	28847
810.308	28949
810.45	28942
810.591	28850
810.733	28736
810.875	28478
811.016	28580
811.158	28736
811.299	28824
811.441	28923
811.582	28774
811.724	28634
811.865	28618
812.007	28500
812.148	28538
812.29	28702
812.431	28797
812.573	28915
812.714	28976
812.855	29223
812.997	29193
813.138	29227
813.279	29193
813.421	29113
813.562	29174
813.703	28999
813.845	28797
813.986	28409
814.127	28341
814.268	28150
814.41	28215
814.551	28242
814.692	28249
814.833	28097
814.974	28166
815.115	28303
815.256	27914
815.397	28055
815.539	28059
815.68	27918
815.821	27979
815.962	28040
816.103	27983
816.244	27709
816.385	27739
816.526	27663
816.666	27610
816.807	27367
816.948	27447
817.089	27595
817.23	27450
817.371	27424
817.512	27386
817.653	27469
817.793	27268
817.934	27386
818.075	27367
818.216	27447
818.356	27249
818.497	27256
818.638	27123
818.778	27192
818.919	27123
819.06	27241
819.2	27211
819.341	27260
819.481	27275
819.622	27389
819.762	27557
819.903	27538
820.043	27435
820.184	27370
820.324	27367
820.465	27348
820.605	27298
820.746	27351
820.886	27336
821.026	27237
821.167	27222
821.307	27313
821.447	27340
821.588	27089
821.728	27081
821.868	26864
822.008	26804
822.149	26674
822.289	26769
822.429	26393
822.569	26362
822.709	26396
822.849	26145
822.99	26176
823.13	26191
823.27	26149
823.41	26031
823.55	25989
823.69	26039
823.83	25982
823.97	26020
824.11	25776
824.25	25814
824.389	25757
824.529	25811
824.669	25666
824.809	26020
824.949	25909
825.089	25811
825.228	25757
825.368	25609
825.508	25616
825.648	25677
825.787	25514
825.927	25761
826.067	25700
826.206	25559
826.346	25651
826.485	25666
826.625	25601
826.765	25696
826.904	25628
827.044	25449
827.183	25270
827.323	25266
827.462	25331
827.601	25304
827.741	25236
827.88	25251
828.02	25183
828.159	25289
828.298	25247
828.437	25392
828.577	25331
828.716	25400
828.855	25152
828.994	25050
829.134	25008
829.273	24935
829.412	24954
829.551	24779
829.69	24897
829.829	25008
829.968	25031
830.107	24977
830.246	24905
830.385	24741
830.524	24886
830.663	24730
830.802	24658
830.941	24669
831.08	24464
831.219	24597
831.357	24555
831.496	24684
831.635	24426
831.774	24426
831.913	24448
832.051	24239
832.19	24232
832.329	24201
832.467	24201
832.606	23901
832.744	24148
832.883	24121
833.022	24163
833.16	24121
833.299	24277
833.437	24049
833.576	24273
833.714	24136
833.852	24213
833.991	24330
834.129	24125
834.267	24224
834.406	24102
834.544	24205
834.682	24197
834.821	24022
834.959	24289
835.097	24110
835.235	24273
835.373	24076
835.511	23977
835.65	23901
835.788	23908
835.926	23805
836.064	23745
836.202	23863
836.34	23999
836.478	23950
836.615	23984
836.753	23931
836.891	24079
837.029	23954
837.167	23878
837.305	23790
837.443	23832
837.58	23767
837.718	23828
837.856	23813
837.993	23756
838.131	23748
838.269	23687
838.406	23676
838.544	23615
838.681	23345
838.819	23326
838.956	23132
839.094	23307
839.231	23143
839.369	23364
839.506	23680
839.643	23353
839.781	23212
839.918	23132
840.055	23174
840.193	23208
840.33	23132
840.467	23155
840.604	23223
840.742	23334
840.879	22987
841.016	23048
841.153	23086
841.29	23117
841.427	23052
841.564	23044
841.701	23121
841.838	22919
841.975	22911
842.112	23102
842.249	22877
842.385	22831
842.522	22930
842.659	23037
842.796	22831
842.933	22774
843.069	22782
843.206	22679
843.343	22778
843.479	22805
843.616	22805
843.752	22721
843.889	22729
844.025	22691
844.162	22607
844.298	22763
844.435	22519
844.571	22535
844.708	22459
844.844	22774
844.98	22672
845.117	22588
845.253	22462
845.389	22402
845.525	22451
845.661	22371
845.798	22173
845.934	22333
846.07	22185
846.206	22223
846.342	22413
846.478	22314
846.614	22101
846.75	22029
846.886	22044
847.022	22097
847.158	21880
847.294	22006
847.429	21998
847.565	22013
847.701	22398
847.837	21682
847.972	21644
848.108	21812
848.244	21816
848.379	21652
848.515	21526
848.65	21447
848.786	21591
848.921	21637
849.057	21751
849.192	21698
849.328	21583
849.463	21526
849.598	21564
849.734	21344
849.869	21412
850.004	21325
850.14	21420
850.275	21329
850.41	21165
850.545	21188
850.68	21313
850.815	21268
850.95	21287
851.085	21519
851.22	21500
851.355	21241
851.49	21173
851.625	21252
851.76	21226
851.895	21237
852.03	21112
852.165	21260
852.299	21264
852.434	21336
852.569	21245
852.703	21214
852.838	21405
852.973	21325
853.107	21344
853.242	21272
853.376	21085
853.511	21051
853.645	21252
853.78	21154
853.914	21123
854.048	21005
854.183	21039
854.317	21123
854.451	21329
854.585	21043
854.72	21077
854.854	21093
854.988	20944
855.122	21028
855.256	20948
855.39	21032
855.524	21116
855.658	21093
855.792	21116
855.926	21043
856.06	21066
856.194	21218
856.327	20960
856.461	21024
856.595	20979
856.729	21077
856.862	21169
856.996	21036
857.13	21119
857.263	21169
857.397	21108
857.53	21051
857.664	21154
857.797	21058
857.931	21226
858.064	21001
858.197	21180
858.331	21058
858.464	20998
858.597	20921
858.731	20971
858.864	21043
858.997	20941
859.13	20948
859.263	20967
859.396	21081
859.529	20990
859.662	20880
859.795	20864
859.928	21039
860.061	21161
860.194	21199
860.327	21009
860.46	21013
860.592	21036
860.725	21180
860.858	20982
860.99	20986
861.123	20960
861.256	20990
861.388	21058
861.521	21618
861.653	20868
861.786	20792
861.918	20788
862.05	20880
862.183	20971
862.315	20971
862.447	21165
862.58	20944
862.712	20785
862.844	20743
862.976	20883
863.108	20735
863.24	21070
863.372	20731
863.504	20667
863.636	20663
863.768	20792
863.9	20648
864.032	20609
864.164	20663
864.296	20640
864.428	20659
864.559	20682
864.691	20743
864.823	20705
864.954	20731
865.086	20792
865.217	20655
865.349	20526
865.48	20511
865.612	20674
865.743	20724
865.875	20587
866.006	20560
866.137	20621
866.269	20651
866.4	20526
866.531	20514
866.662	20507
866.793	20625
866.924	20465
867.055	20533
867.186	20625
867.317	20423
867.448	20450
867.579	20476
867.71	20457
867.841	20355
867.972	20476
868.103	20503
868.233	20541
868.364	20556
868.495	20712
868.625	20750
868.756	20712
868.886	20701
869.017	20845
869.147	20819
869.278	20807
869.408	20861
869.539	20758
869.669	20861
869.799	20796
869.929	20883
870.06	20883
870.19	21039
870.32	21017
870.45	21131
870.58	21127
870.71	21275
870.84	21211
870.97	21131
871.1	21138
871.23	21272
871.36	21302
871.489	21298
871.619	21397
871.749	21329
871.879	21401
872.008	21382
872.138	21393
872.267	21321
872.397	21214
872.526	21195
872.656	21272
872.785	21184
872.915	21458
873.044	21549
873.173	21431
873.303	21272
873.432	21481
873.561	21492
873.69	21428
873.819	21401
873.948	21420
874.077	21443
874.206	21317
874.335	21416
874.464	21496
874.593	21633
874.722	21523
874.851	21679
874.979	21705
875.108	21587
875.237	21622
875.365	21580
875.494	21534
875.623	21667
875.751	21603
875.88	21545
876.008	21781
876.136	21789
876.265	21964
876.393	22147
876.521	22090
876.65	22173
876.778	21991
876.906	22010
877.034	22032
877.162	22010
877.29	22067
877.418	22002
877.546	21987
877.674	21972
877.802	22002
877.93	22036
878.058	21915
878.185	21873
878.313	21857
878.441	21850
878.568	21846
878.696	21884
878.824	22025
878.951	22063
879.079	22116
879.206	22238
879.333	22135
879.461	22002
879.588	22051
879.715	22086
879.842	22211
879.97	22025
880.097	21838
880.224	21759
880.351	21789
880.478	21778
880.605	21652
880.732	21823
880.859	21941
880.986	21747
881.112	21831
881.239	21671
881.366	21587
881.493	21405
881.619	21389
881.746	21416
881.872	21473
881.999	21393
882.125	21291
882.252	21393
882.378	21500
882.505	21412
882.631	21294
882.757	21218
882.883	21291
883.01	21150
883.136	21081
883.262	21032
883.388	21024
883.514	21184
883.64	21135
883.766	20986
883.892	20857
884.018	20944
884.143	21043
884.269	21249
884.395	20883
884.52	20785
884.646	20670
884.772	20655
884.897	20667
885.023	20682
885.148	20975
885.274	20868
885.399	20899
885.524	20731
885.65	20731
885.775	20731
885.9	20792
886.025	20689
886.15	20845
886.275	20686
886.4	20621
886.525	20693
886.65	20590
886.775	20579
886.9	20845
887.025	21051
887.149	20712
887.274	20568
887.399	20484
887.523	20575
887.648	20355
887.773	20336
887.897	20533
888.021	20613
888.146	20412
888.27	20556
888.395	20636
888.519	20511
888.643	20560
888.767	20541
888.891	20366
889.015	20351
889.139	20396
889.263	20221
889.387	20370
889.511	20446
889.635	20381
889.759	20298
889.883	20252
890.006	20282
890.13	20324
890.254	20301
890.377	20248
890.501	19993
890.624	20008
890.748	20100
890.871	20043
890.995	19940
891.118	19784
891.241	19868
891.364	19761
891.488	19963
891.611	19959
891.734	19906
891.857	19932
891.98	19826
892.103	19860
892.226	19887
892.349	19883
892.471	19613
892.594	19784
892.717	19734
892.839	19704
892.962	19742
893.085	19818
893.207	19757
893.33	19628
893.452	19708
893.575	19761
893.697	19807
893.819	19906
893.941	20096
894.064	19955
894.186	19746
894.308	19757
894.43	19856
894.552	19814
894.674	19860
894.796	19609
894.918	19757
895.04	19696
895.161	19890
895.283	19734
895.405	19769
895.526	19814
895.648	19883
895.769	19849
895.891	19909
896.012	19921
896.134	19879
896.255	19765
896.376	19769
896.498	19830
896.619	19913
896.74	19715
896.861	19902
896.982	20199
897.103	20244
897.224	20145
897.345	20073
897.466	19951
897.587	19947
897.708	20096
897.828	20005
897.949	20069
898.07	19944
898.19	19856
898.311	20221
898.431	19993
898.552	19989
898.672	20065
898.792	20058
898.913	19986
899.033	19852
899.153	19715
899.273	19647
899.393	19685
899.513	19689
899.633	19681
899.753	19765
899.873	19647
899.993	19708
900.113	19590
900.232	19795
900.352	19597
900.472	19582
900.591	19510
900.711	19537
900.83	19457
900.95	19567
901.069	19647
901.189	19400
901.308	19179
901.427	19088
901.546	19152
901.665	19065
901.784	19145
901.904	19042
902.023	18848
902.141	18684
902.26	18681
902.379	18726
902.498	18597
902.617	18494
902.735	18616
902.854	18460
902.973	18445
903.091	18338
903.21	18247
903.328	18292
903.446	18174
903.565	18087
903.683	18159
903.801	17882
903.919	18060
904.038	18155
904.156	17878
904.274	18007
904.392	17935
904.51	17824
904.627	17745
904.745	17882
904.863	17920
904.981	17642
905.098	17581
905.216	17383
905.334	17558
905.451	17562
905.569	17547
905.686	17501
905.803	17528
905.921	17220
906.038	17368
906.155	17345
906.272	17242
906.389	17216
906.506	17170
906.623	17143
906.74	17067
906.857	16946
906.974	16877
907.091	17136
907.208	17170
907.324	17083
907.441	16881
907.557	16675
907.674	16736
907.79	16683
907.907	16698
908.023	16790
908.139	16679
908.256	16702
908.372	16599
908.488	16649
908.604	16462
908.72	16421
908.836	16474
908.952	16379
909.068	16413
909.184	16538
909.3	16268
909.415	16508
909.531	16440
909.647	16261
909.762	16192
909.878	16071
909.993	16116
910.108	16086
910.224	16105
910.339	16063
910.454	15987
910.57	15911
910.685	15755
910.8	16021
910.915	16105
911.03	15865
911.145	15732
911.259	15759
911.374	15637
911.489	15633
911.604	15622
911.718	15405
911.833	15534
911.947	15382
912.062	15306
912.176	15469
912.291	15496
912.405	15473
912.519	15717
912.633	15698
912.748	15485
912.862	15447
912.976	15226
913.09	15169
913.204	15199
913.318	15272
913.431	15302
913.545	15302
913.659	15302
913.772	15150
913.886	15077
914	15001
914.113	15104
914.226	15203
914.34	15093
914.453	14956
914.566	15104
914.68	14941
914.793	14963
914.906	14864
915.019	14701
915.132	14625
915.245	14762
915.358	14670
915.47	14651
915.583	14629
915.696	14796
915.809	14823
915.921	14921
916.034	14667
916.146	14632
916.259	14575
916.371	14655
916.483	14613
916.595	14545
916.708	14522
916.82	14560
916.932	14484
917.044	14488
917.156	14469
917.268	14282
917.38	14370
917.491	14415
917.603	14347
917.715	14412
917.826	14415
917.938	14263
918.049	14100
918.161	14358
918.272	14438
918.384	14404
918.495	14244
918.606	14214
918.717	14073
918.828	14145
918.939	14138
919.05	14001
919.161	14092
919.272	13830
919.383	13898
919.494	14084
919.604	14328
919.715	14123
919.826	13932
919.936	14043
920.047	14191
920.157	14043
920.267	14275
920.378	14024
920.488	14024
920.598	14225
920.708	14355
920.818	14259
920.928	14183
921.038	14294
921.148	14210
921.258	13887
921.368	13917
921.477	13811
921.587	13696
921.697	13662
921.806	13738
921.916	13624
922.025	13578
922.134	13559
922.244	13369
922.353	13552
922.462	13373
922.571	13263
922.68	13110
922.789	13065
922.898	13084
923.007	13072
923.116	13091
923.224	13095
923.333	13110
923.442	12825
923.55	12909
923.659	12951
923.767	12985
923.876	12802
923.984	12970
924.092	12726
924.201	12817
924.309	12871
924.417	12810
924.525	12715
924.633	12760
924.741	13586
924.849	12570
924.956	12745
925.064	12471
925.172	12426
925.279	12498
925.387	12483
925.494	12502
925.602	12555
925.709	12593
925.816	12517
925.924	12471
926.031	12654
926.138	12464
926.245	12486
926.352	12441
926.459	12521
926.566	12536
926.673	12399
926.779	12281
926.886	12315
926.993	12117
927.099	12060
927.206	12133
927.312	11973
927.419	12076
927.525	11977
927.631	12019
927.737	11923
927.843	11939
927.95	11851
928.056	11847
928.162	11916
928.267	12034
928.373	12585
928.479	11958
928.585	11859
928.69	11832
928.796	11920
928.901	11783
929.007	11707
929.112	11783
929.218	11809
929.323	11756
929.428	11684
929.533	11805
929.638	11657
929.743	11642
929.848	11665
929.953	11589
930.058	11509
930.163	11345
930.267	11341
930.372	11452
930.477	11315
930.581	11589
930.685	11387
930.79	11242
930.894	11261
930.998	11265
931.103	11273
931.207	10934
931.311	10946
931.415	10816
931.519	10634
931.623	10603
