Data from test_V78500241_1522.txt Node
Date: Fri Mar 25 15:52:20 CST 2022
User: usil
Spectrometer: V785-0024
Trigger mode: 0
Integration Time (sec): 4.000000E-1
Scans to average: 1
Nonlinearity correction enabled: false
Boxcar width: 0
Storing dark spectrum: false
XAxis mode: Wavelengths
Number of Pixels in Spectrum: 1024
>>>>>Begin Spectral Data<<<<<
801.071	28093
801.214	28010
801.356	27888
801.499	27899
801.641	27682
801.783	27606
801.926	27686
802.068	27747
802.211	27603
802.353	27492
802.496	27184
802.638	27416
802.78	27161
802.923	27135
803.065	27363
803.208	27268
803.35	27294
803.492	27500
803.635	27386
803.777	27530
803.919	27507
804.061	27762
804.204	27519
804.346	27435
804.488	27363
804.63	27370
804.773	27492
804.915	27614
805.057	27618
805.199	27583
805.341	27549
805.483	27698
805.626	27736
805.768	27542
805.91	27515
806.052	27690
806.194	27709
806.336	27778
806.478	27690
806.62	27618
806.762	27785
806.904	27960
807.046	28154
807.188	28048
807.33	28139
807.472	28154
807.614	28017
807.756	28021
807.898	27975
808.04	27945
808.182	27941
808.324	28013
808.465	28025
808.607	28124
808.749	28356
808.891	28352
809.033	28508
809.174	28394
809.316	28379
809.458	28242
809.6	28303
809.741	28333
809.883	28401
810.025	28596
810.166	28588
810.308	28557
810.45	28573
810.591	28409
810.733	28348
810.875	28204
811.016	28363
811.158	28101
811.299	28405
811.441	28440
811.582	28443
811.724	28424
811.865	28337
812.007	28265
812.148	28379
812.29	28325
812.431	28538
812.573	28577
812.714	28679
812.855	28892
812.997	28972
813.138	28999
813.279	28904
813.421	28930
813.562	28641
813.703	28615
813.845	28622
813.986	28295
814.127	28234
814.268	27983
814.41	28162
814.551	27968
814.692	28048
814.833	27884
814.974	27945
815.115	27945
815.256	27956
815.397	27922
815.539	27922
815.68	27804
815.821	27793
815.962	27842
816.103	27876
816.244	27686
816.385	27595
816.526	27603
816.666	27382
816.807	27135
816.948	27412
817.089	27538
817.23	27363
817.371	27287
817.512	27188
817.653	27336
817.793	27298
817.934	27302
818.075	27329
818.216	27252
818.356	27264
818.497	27302
818.638	27020
818.778	27070
818.919	27188
819.06	27135
819.2	27275
819.341	27302
819.481	27302
819.622	27450
819.762	27633
819.903	27549
820.043	27591
820.184	27355
820.324	27370
820.465	27447
820.605	27443
820.746	27405
820.886	27302
821.026	27389
821.167	27329
821.307	27355
821.447	27344
821.588	27264
821.728	27218
821.868	27020
822.008	26807
822.149	26842
822.289	26765
822.429	26537
822.569	26453
822.709	26408
822.849	26305
822.99	26389
823.13	26294
823.27	26195
823.41	26153
823.55	26016
823.69	26134
823.83	26206
823.97	26020
824.11	26008
824.25	25936
824.389	25951
824.529	26054
824.669	25875
824.809	26050
824.949	26073
825.089	26012
825.228	26043
825.368	25734
825.508	25841
825.648	25845
825.787	25738
825.927	25818
826.067	25818
826.206	25868
826.346	25917
826.485	25864
826.625	25811
826.765	25963
826.904	25925
827.044	25632
827.183	25518
827.323	25601
827.462	25700
827.601	25529
827.741	25426
827.88	25476
828.02	25430
828.159	25434
828.298	25472
828.437	25502
828.577	25540
828.716	25460
828.855	25472
828.994	25209
829.134	25225
829.273	25324
829.412	25236
829.551	25065
829.69	25358
829.829	25304
829.968	25301
830.107	25228
830.246	25289
830.385	25278
830.524	25152
830.663	25065
830.802	24932
830.941	24806
831.08	24783
831.219	24837
831.357	24951
831.496	25061
831.635	24897
831.774	24745
831.913	24764
832.051	24574
832.19	24616
832.329	24692
832.467	24418
832.606	24521
832.744	24536
832.883	24509
833.022	24452
833.16	24547
833.299	24608
833.437	24525
833.576	24635
833.714	24650
833.852	24623
833.991	24715
834.129	24585
834.267	24589
834.406	24513
834.544	24555
834.682	24505
834.821	24509
834.959	24627
835.097	24597
835.235	24521
835.373	24490
835.511	24593
835.65	24361
835.788	24407
835.926	24273
836.064	24258
836.202	24277
836.34	24429
836.478	24486
836.615	24414
836.753	24338
836.891	24635
837.029	24467
837.167	24353
837.305	24209
837.443	24346
837.58	24197
837.718	24254
837.856	24304
837.993	24209
838.131	24315
838.269	24178
838.406	24148
838.544	24060
838.681	23802
838.819	23726
838.956	23687
839.094	23737
839.231	23779
839.369	23969
839.506	24186
839.643	23855
839.781	23760
839.918	23570
840.055	23638
840.193	23676
840.33	23585
840.467	23661
840.604	23722
840.742	23836
840.879	23551
841.016	23497
841.153	23512
841.29	23661
841.427	23566
841.564	23551
841.701	23558
841.838	23619
841.975	23600
842.112	23478
842.249	23436
842.385	23417
842.522	23646
842.659	23509
842.796	23353
842.933	23311
843.069	23227
843.206	23284
843.343	23482
843.479	23307
843.616	23349
843.752	23128
843.889	23060
844.025	23364
844.162	23075
844.298	23254
844.435	23105
844.571	23022
844.708	23124
844.844	23261
844.98	23265
845.117	23220
845.253	23181
845.389	23075
845.525	23166
845.661	22930
845.798	23075
845.934	23037
846.07	22812
846.206	22984
846.342	22987
846.478	22752
846.614	22668
846.75	22489
846.886	22565
847.022	22573
847.158	22607
847.294	22535
847.429	22634
847.565	22599
847.701	22786
847.837	22398
847.972	22284
848.108	22470
848.244	22428
848.379	22211
848.515	22143
848.65	22226
848.786	22044
848.921	22268
849.057	22348
849.192	22192
849.328	22105
849.463	22181
849.598	22021
849.734	22063
849.869	22006
850.004	22036
850.14	21934
850.275	22021
850.41	21793
850.545	21964
850.68	21884
850.815	22010
850.95	21945
851.085	22185
851.22	21956
851.355	22017
851.49	22040
851.625	21979
851.76	21831
851.895	21907
852.03	21819
852.165	21895
852.299	22070
852.434	21960
852.569	21994
852.703	21911
852.838	21949
852.973	22040
853.107	22006
853.242	21884
853.376	21884
853.511	21625
853.645	21644
853.78	21751
853.914	21781
854.048	21717
854.183	21694
854.317	21728
854.451	21998
854.585	21774
854.72	21656
854.854	21899
854.988	21663
855.122	21720
855.256	21701
855.39	21720
855.524	21838
855.658	21835
855.792	21873
855.926	21709
856.06	21781
856.194	21941
856.327	21652
856.461	21705
856.595	21854
856.729	21663
856.862	21888
856.996	21622
857.13	21911
857.263	21816
857.397	21918
857.53	21751
857.664	21785
857.797	21797
857.931	21880
858.064	21739
858.197	21922
858.331	21774
858.464	21774
858.597	21724
858.731	21728
858.864	21629
858.997	21717
859.13	21774
859.263	21816
859.396	21888
859.529	21694
859.662	21694
859.795	21816
859.928	21774
860.061	21888
860.194	21930
860.327	21964
860.46	21922
860.592	21949
860.725	21930
860.858	21926
860.99	21808
861.123	21637
861.256	21652
861.388	21903
861.521	22440
861.653	21557
861.786	21507
861.918	21694
862.05	21682
862.183	21599
862.315	21622
862.447	21812
862.58	21663
862.712	21420
862.844	21458
862.976	21526
863.108	21629
863.24	21983
863.372	21439
863.504	21401
863.636	21260
863.768	21614
863.9	21485
864.032	21420
864.164	21450
864.296	21424
864.428	21538
864.559	21466
864.691	21420
864.823	21587
864.954	21439
865.086	21420
865.217	21397
865.349	21279
865.48	21367
865.612	21401
865.743	21542
865.875	21401
866.006	21397
866.137	21363
866.269	21439
866.4	21435
866.531	21370
866.662	21340
866.793	21306
866.924	21397
867.055	21283
867.186	21351
867.317	21199
867.448	21317
867.579	21329
867.71	21207
867.841	21310
867.972	21370
868.103	21245
868.233	21405
868.364	21287
868.495	21336
868.625	21576
868.756	21641
868.886	21454
869.017	21485
869.147	21610
869.278	21663
869.408	21561
869.539	21511
869.669	21618
869.799	21591
869.929	21823
870.06	21732
870.19	21918
870.32	21869
870.45	21873
870.58	21926
870.71	22063
870.84	21994
870.97	21953
871.1	22044
871.23	22010
871.36	22226
871.489	22177
871.619	22124
871.749	22082
871.879	22204
872.008	22219
872.138	22097
872.267	22120
872.397	22006
872.526	21915
872.656	21968
872.785	21922
872.915	22261
873.044	22223
873.173	22128
873.303	22295
873.432	22124
873.561	22234
873.69	22112
873.819	22143
873.948	22253
874.077	22223
874.206	22097
874.335	22128
874.464	22124
874.593	22322
874.722	22341
874.851	22485
874.979	22306
875.108	22417
875.237	22265
875.365	22352
875.494	22398
875.623	22424
875.751	22447
875.88	22348
876.008	22447
876.136	22611
876.265	22763
876.393	22930
876.521	22809
876.65	22816
876.778	22763
876.906	22717
877.034	22679
877.162	22557
877.29	22584
877.418	22782
877.546	22698
877.674	22812
877.802	22740
877.93	22725
878.058	22748
878.185	22641
878.313	22759
878.441	22717
878.568	22462
878.696	22615
878.824	22873
878.951	22824
879.079	22911
879.206	22991
879.333	22911
879.461	22672
879.588	22915
879.715	22896
879.842	23090
879.97	22793
880.097	22592
880.224	22675
880.351	22497
880.478	22554
880.605	22443
880.732	22641
880.859	22740
880.986	22550
881.112	22580
881.239	22390
881.366	22325
881.493	22314
881.619	22105
881.746	22124
881.872	22158
881.999	22131
882.125	22105
882.252	22105
882.378	22226
882.505	22268
882.631	22029
882.757	21739
882.883	21888
883.01	21812
883.136	21797
883.262	21694
883.388	21705
883.514	21823
883.64	21937
883.766	21819
883.892	21622
884.018	21549
884.143	21835
884.269	21857
884.395	21599
884.52	21447
884.646	21530
884.772	21374
884.897	21302
885.023	21458
885.148	21511
885.274	21663
885.399	21439
885.524	21591
885.65	21439
885.775	21496
885.9	21485
886.025	21583
886.15	21534
886.275	21408
886.4	21294
886.525	21401
886.65	21443
886.775	21454
886.9	21530
887.025	21682
887.149	21363
887.274	21256
887.399	21291
887.523	21332
887.648	21222
887.773	21249
887.897	21279
888.021	21256
888.146	21173
888.27	21393
888.395	21252
888.519	21195
888.643	21298
888.767	21287
888.891	21116
889.015	21005
889.139	21001
889.263	21058
889.387	21165
889.511	21123
889.635	21180
889.759	20963
889.883	20910
890.006	21074
890.13	21112
890.254	20975
890.377	20960
890.501	20800
890.624	20785
890.748	20895
890.871	20606
890.995	20689
891.118	20594
891.241	20533
891.364	20640
891.488	20670
891.611	20629
891.734	20587
891.857	20712
891.98	20564
892.103	20564
892.226	20590
892.349	20518
892.471	20465
892.594	20552
892.717	20495
892.839	20530
892.962	20518
893.085	20541
893.207	20507
893.33	20473
893.452	20560
893.575	20541
893.697	20514
893.819	20636
893.941	20575
894.064	20579
894.186	20431
894.308	20358
894.43	20545
894.552	20625
894.674	20514
894.796	20412
894.918	20434
895.04	20476
895.161	20545
895.283	20473
895.405	20389
895.526	20507
895.648	20419
895.769	20480
895.891	20476
896.012	20564
896.134	20537
896.255	20446
896.376	20499
896.498	20507
896.619	20522
896.74	20488
896.861	20423
896.982	20834
897.103	20819
897.224	20781
897.345	20693
897.466	20648
897.587	20636
897.708	20800
897.828	20629
897.949	20720
898.07	20438
898.19	20541
898.311	20785
898.431	20537
898.552	20716
898.672	20720
898.792	20743
898.913	20724
899.033	20606
899.153	20457
899.273	20396
899.393	20488
899.513	20393
899.633	20503
899.753	20488
899.873	20385
899.993	20415
900.113	20385
900.232	20294
900.352	20374
900.472	20221
900.591	20191
900.711	20305
900.83	20237
900.95	20358
901.069	20298
901.189	20107
901.308	19837
901.427	19871
901.546	19898
901.665	19765
901.784	19727
901.904	19662
902.023	19506
902.141	19400
902.26	19422
902.379	19373
902.498	19407
902.617	19346
902.735	19278
902.854	19160
902.973	19232
903.091	19027
903.21	18897
903.328	18966
903.446	18817
903.565	18692
903.683	18798
903.801	18620
903.919	18844
904.038	18817
904.156	18608
904.274	18532
904.392	18471
904.51	18483
904.627	18456
904.745	18566
904.863	18597
904.981	18403
905.098	18254
905.216	18266
905.334	18190
905.451	18125
905.569	18228
905.686	18262
905.803	18125
905.921	18057
906.038	18140
906.155	18049
906.272	17904
906.389	17939
906.506	17676
906.623	17809
906.74	17691
906.857	17562
906.974	17668
907.091	17729
907.208	17851
907.324	17771
907.441	17600
907.557	17509
907.674	17421
907.79	17486
907.907	17398
908.023	17478
908.139	17414
908.256	17330
908.372	17273
908.488	17307
908.604	17174
908.72	17162
908.836	17159
908.952	17045
909.068	17216
909.184	17212
909.3	17208
909.415	17223
909.531	17239
909.647	16778
909.762	16930
909.878	16790
909.993	16923
910.108	16949
910.224	16850
910.339	16828
910.454	16725
910.57	16645
910.685	16599
910.8	16869
910.915	16752
911.03	16683
911.145	16489
911.259	16542
911.374	16466
911.489	16417
911.604	16398
911.718	16162
911.833	16173
911.947	16090
912.062	16074
912.176	16196
912.291	16181
912.405	16192
912.519	16344
912.633	16382
912.748	16242
912.862	16188
912.976	15968
913.09	15953
913.204	15979
913.318	15968
913.431	16112
913.545	16097
913.659	16135
913.772	16010
913.886	15903
914	15873
914.113	15888
914.226	15895
914.34	15903
914.453	15724
914.566	15861
914.68	15789
914.793	15633
914.906	15523
915.019	15405
915.132	15355
915.245	15386
915.358	15378
915.47	15374
915.583	15511
915.696	15462
915.809	15561
915.921	15462
916.034	15367
916.146	15294
916.259	15268
916.371	15386
916.483	15378
916.595	15283
916.708	15245
916.82	15226
916.932	15203
917.044	15268
917.156	15116
917.268	15043
917.38	15024
917.491	15051
917.603	14990
917.715	15036
917.826	15097
917.938	14941
918.049	14857
918.161	15020
918.272	15108
918.384	15058
918.495	14967
918.606	14864
918.717	14750
918.828	14823
918.939	14826
919.05	14659
919.161	14781
919.272	14568
919.383	14617
919.494	14906
919.604	14994
919.715	14800
919.826	14701
919.936	14712
920.047	14811
920.157	14765
920.267	14982
920.378	14765
920.488	14727
920.598	14929
920.708	14990
920.818	14872
920.928	14857
921.038	15077
921.148	15017
921.258	14640
921.368	14549
921.477	14484
921.587	14495
921.697	14370
921.806	14495
921.916	14450
922.025	14259
922.134	14153
922.244	14153
922.353	14183
922.462	13997
922.571	13909
922.68	13791
922.789	13795
922.898	13742
923.007	13674
923.116	13837
923.224	13712
923.333	13704
923.442	13605
923.55	13537
923.659	13514
923.767	13636
923.876	13571
923.984	13658
924.092	13518
924.201	13563
924.309	13552
924.417	13533
924.525	13422
924.633	13411
924.741	14355
924.849	13118
924.956	13457
925.064	13171
925.172	13206
925.279	13274
925.387	13244
925.494	13088
925.602	13327
925.709	13160
925.816	13095
925.924	13179
926.031	13221
926.138	13034
926.245	13099
926.352	12954
926.459	13152
926.566	13175
926.673	12996
926.779	12928
926.886	12897
926.993	12795
927.099	12700
927.206	12658
927.312	12631
927.419	12726
927.525	12700
927.631	12658
927.737	12639
927.843	12673
927.95	12608
928.056	12578
928.162	12578
928.267	12589
928.373	13228
928.479	12623
928.585	12399
928.69	12502
928.796	12502
928.901	12399
929.007	12296
929.112	12365
929.218	12334
929.323	12247
929.428	12232
929.533	12494
929.638	12247
929.743	12220
929.848	12289
929.953	12186
930.058	12098
930.163	11996
930.267	11950
930.372	12148
930.477	11836
930.581	12159
930.685	11973
930.79	11859
930.894	11821
930.998	11817
931.103	11950
931.207	11703
931.311	11493
931.415	11512
931.519	11258
931.623	11170
