Data from test_V78500241_1057.txt Node
Date: Fri Mar 25 15:49:07 CST 2022
User: usil
Spectrometer: V785-0024
Trigger mode: 0
Integration Time (sec): 4.000000E-1
Scans to average: 1
Nonlinearity correction enabled: false
Boxcar width: 0
Storing dark spectrum: false
XAxis mode: Wavelengths
Number of Pixels in Spectrum: 1024
>>>>>Begin Spectral Data<<<<<
801.071	27926
801.214	27880
801.356	27648
801.499	27538
801.641	27504
801.783	27317
801.926	27507
802.068	27587
802.211	27420
802.353	27359
802.496	27058
802.638	27116
802.78	27043
802.923	27066
803.065	27188
803.208	27036
803.35	27237
803.492	27207
803.635	27298
803.777	27218
803.919	27408
804.061	27629
804.204	27504
804.346	27351
804.488	27325
804.63	27100
804.773	27294
804.915	27348
805.057	27374
805.199	27256
805.341	27408
805.483	27485
805.626	27431
805.768	27351
805.91	27458
806.052	27583
806.194	27386
806.336	27720
806.478	27557
806.62	27583
806.762	27538
806.904	27774
807.046	28067
807.188	27991
807.33	27930
807.472	28013
807.614	27854
807.756	27926
807.898	27698
808.04	27762
808.182	27728
808.324	27884
808.465	27774
808.607	28025
808.749	28173
808.891	28242
809.033	28219
809.174	28181
809.316	28192
809.458	28196
809.6	28017
809.741	28128
809.883	28299
810.025	28478
810.166	28371
810.308	28295
810.45	28527
810.591	28303
810.733	28230
810.875	28078
811.016	27998
811.158	27994
811.299	28249
811.441	28344
811.582	28280
811.724	28139
811.865	27945
812.007	28230
812.148	28051
812.29	28158
812.431	28394
812.573	28440
812.714	28557
812.855	28675
812.997	28755
813.138	28850
813.279	28679
813.421	28763
813.562	28592
813.703	28424
813.845	28207
813.986	28128
814.127	27907
814.268	27884
814.41	27819
814.551	27827
814.692	27914
814.833	27705
814.974	27770
815.115	27892
815.256	27523
815.397	27713
815.539	27766
815.68	27667
815.821	27572
815.962	27504
816.103	27580
816.244	27515
816.385	27329
816.526	27450
816.666	27260
816.807	27074
816.948	27268
817.089	27214
817.23	27203
817.371	27127
817.512	27173
817.653	27135
817.793	27146
817.934	27169
818.075	27123
818.216	27123
818.356	27017
818.497	27017
818.638	26785
818.778	26895
818.919	26906
819.06	26868
819.2	26899
819.341	27074
819.481	27001
819.622	27203
819.762	27488
819.903	27325
820.043	27401
820.184	27237
820.324	27264
820.465	27173
820.605	27348
820.746	27199
820.886	27039
821.026	27272
821.167	27252
821.307	27382
821.447	27142
821.588	27138
821.728	27009
821.868	26716
822.008	26511
822.149	26492
822.289	26579
822.429	26267
822.569	26343
822.709	26191
822.849	26088
822.99	26058
823.13	26153
823.27	26077
823.41	26024
823.55	25814
823.69	25879
823.83	25849
823.97	25875
824.11	25662
824.25	25674
824.389	25670
824.529	25795
824.669	25727
824.809	25970
824.949	25799
825.089	25906
825.228	25753
825.368	25578
825.508	25495
825.648	25670
825.787	25521
825.927	25761
826.067	25715
826.206	25529
826.346	25647
826.485	25738
826.625	25635
826.765	25632
826.904	25567
827.044	25354
827.183	25369
827.323	25152
827.462	25377
827.601	25282
827.741	25247
827.88	25255
828.02	25137
828.159	25327
828.298	25415
828.437	25350
828.577	25156
828.716	25392
828.855	25293
828.994	25076
829.134	24935
829.273	25008
829.412	24943
829.551	24916
829.69	24989
829.829	25000
829.968	25099
830.107	25213
830.246	25034
830.385	24924
830.524	24829
830.663	24696
830.802	24814
830.941	24589
831.08	24456
831.219	24688
831.357	24692
831.496	24817
831.635	24696
831.774	24589
831.913	24570
832.051	24490
832.19	24365
832.329	24494
832.467	24342
832.606	24201
832.744	24174
832.883	24338
833.022	24251
833.16	24178
833.299	24441
833.437	24262
833.576	24403
833.714	24464
833.852	24403
833.991	24445
834.129	24452
834.267	24483
834.406	24479
834.544	24319
834.682	24353
834.821	24254
834.959	24505
835.097	24209
835.235	24365
835.373	24346
835.511	24372
835.65	24079
835.788	24167
835.926	24106
836.064	23954
836.202	23954
836.34	24038
836.478	24266
836.615	24152
836.753	24308
836.891	24235
837.029	24258
837.167	24057
837.305	24182
837.443	24140
837.58	23863
837.718	24003
837.856	23946
837.993	24110
838.131	23920
838.269	23904
838.406	23889
838.544	23836
838.681	23779
838.819	23634
838.956	23459
839.094	23516
839.231	23478
839.369	23642
839.506	23771
839.643	23722
839.781	23581
839.918	23467
840.055	23391
840.193	23410
840.33	23410
840.467	23406
840.604	23505
840.742	23646
840.879	23311
841.016	23364
841.153	23315
841.29	23459
841.427	23414
841.564	23387
841.701	23440
841.838	23356
841.975	23292
842.112	23280
842.249	23170
842.385	23048
842.522	23482
842.659	23181
842.796	23223
842.933	23010
843.069	23170
843.206	23216
843.343	23227
843.479	23212
843.616	23102
843.752	22953
843.889	23003
844.025	22984
844.162	22942
844.298	22885
844.435	23014
844.571	22831
844.708	22942
844.844	23166
844.98	23083
845.117	22869
845.253	22957
845.389	22793
845.525	22847
845.661	22679
845.798	22656
845.934	22733
846.07	22641
846.206	22687
846.342	22850
846.478	22618
846.614	22504
846.75	22386
846.886	22443
847.022	22500
847.158	22367
847.294	22344
847.429	22390
847.565	22325
847.701	22656
847.837	22192
847.972	22181
848.108	22166
848.244	22147
848.379	21968
848.515	22029
848.65	21804
848.786	22173
848.921	21956
849.057	22048
849.192	21956
849.328	22177
849.463	21972
849.598	21941
849.734	21789
849.869	21800
850.004	21800
850.14	21778
850.275	21747
850.41	21667
850.545	21800
850.68	21641
850.815	21838
850.95	21705
851.085	21876
851.22	21991
851.355	21720
851.49	21793
851.625	21812
851.76	21694
851.895	21663
852.03	21629
852.165	21747
852.299	21785
852.434	21850
852.569	21736
852.703	21892
852.838	21743
852.973	21865
853.107	21873
853.242	21606
853.376	21496
853.511	21492
853.645	21641
853.78	21641
853.914	21507
854.048	21458
854.183	21492
854.317	21564
854.451	21739
854.585	21629
854.72	21519
854.854	21568
854.988	21545
855.122	21587
855.256	21386
855.39	21488
855.524	21599
855.658	21663
855.792	21561
855.926	21667
856.06	21549
856.194	21709
856.327	21367
856.461	21447
856.595	21454
856.729	21610
856.862	21671
856.996	21618
857.13	21633
857.263	21800
857.397	21732
857.53	21519
857.664	21629
857.797	21530
857.931	21694
858.064	21690
858.197	21633
858.331	21466
858.464	21553
858.597	21405
858.731	21538
858.864	21606
858.997	21443
859.13	21481
859.263	21576
859.396	21614
859.529	21561
859.662	21450
859.795	21477
859.928	21557
860.061	21682
860.194	21679
860.327	21614
860.46	21561
860.592	21675
860.725	21755
860.858	21736
860.99	21515
861.123	21412
861.256	21462
861.388	21530
861.521	22329
861.653	21561
861.786	21450
861.918	21370
862.05	21439
862.183	21416
862.315	21428
862.447	21485
862.58	21519
862.712	21348
862.844	21192
862.976	21325
863.108	21386
863.24	21770
863.372	21214
863.504	21344
863.636	21226
863.768	21264
863.9	21386
864.032	21313
864.164	21268
864.296	21279
864.428	21310
864.559	21260
864.691	21321
864.823	21249
864.954	21203
865.086	21199
865.217	21138
865.349	21093
865.48	21157
865.612	21127
865.743	21230
865.875	21199
866.006	21081
866.137	21017
866.269	21150
866.4	21131
866.531	21157
866.662	21127
866.793	21017
866.924	21005
867.055	21032
867.186	21146
867.317	21157
867.448	20975
867.579	21062
867.71	21039
867.841	20963
867.972	21165
868.103	21108
868.233	21074
868.364	21154
868.495	21180
868.625	21325
868.756	21450
868.886	21245
869.017	21287
869.147	21481
869.278	21492
869.408	21260
869.539	21405
869.669	21310
869.799	21279
869.929	21481
870.06	21545
870.19	21854
870.32	21576
870.45	21724
870.58	21739
870.71	21789
870.84	21823
870.97	21770
871.1	21717
871.23	21850
871.36	21934
871.489	21835
871.619	21880
871.749	21831
871.879	21937
872.008	21953
872.138	21991
872.267	21968
872.397	21789
872.526	21766
872.656	21800
872.785	21800
872.915	21953
873.044	21991
873.173	21998
873.303	22128
873.432	21895
873.561	22090
873.69	21903
873.819	21998
873.948	21941
874.077	21991
874.206	21892
874.335	21907
874.464	22063
874.593	22265
874.722	22135
874.851	22261
874.979	22268
875.108	22219
875.237	22150
875.365	22097
875.494	22082
875.623	22303
875.751	22109
875.88	22116
876.008	22413
876.136	22291
876.265	22531
876.393	22618
876.521	22626
876.65	22736
876.778	22538
876.906	22421
877.034	22542
877.162	22527
877.29	22424
877.418	22603
877.546	22596
877.674	22523
877.802	22462
877.93	22519
878.058	22478
878.185	22455
878.313	22390
878.441	22474
878.568	22379
878.696	22497
878.824	22516
878.951	22649
879.079	22752
879.206	22733
879.333	22736
879.461	22622
879.588	22683
879.715	22710
879.842	22828
879.97	22698
880.097	22500
880.224	22280
880.351	22398
880.478	22459
880.605	22337
880.732	22409
880.859	22599
880.986	22310
881.112	22272
881.239	22093
881.366	22139
881.493	21960
881.619	22006
881.746	22021
881.872	21831
881.999	21888
882.125	21835
882.252	21953
882.378	21895
882.505	21979
882.631	21804
882.757	21648
882.883	21705
883.01	21614
883.136	21504
883.262	21469
883.388	21428
883.514	21587
883.64	21542
883.766	21473
883.892	21386
884.018	21576
884.143	21576
884.269	21576
884.395	21294
884.52	21207
884.646	21203
884.772	21176
884.897	21127
885.023	21298
885.148	21420
885.274	21310
885.399	21370
885.524	21146
885.65	21180
885.775	21214
885.9	21188
886.025	21454
886.15	21264
886.275	21249
886.4	21131
886.525	21157
886.65	21207
886.775	21138
886.9	21332
887.025	21568
887.149	21291
887.274	21085
887.399	21119
887.523	21085
887.648	21051
887.773	20872
887.897	21199
888.021	21066
888.146	20994
888.27	21066
888.395	21108
888.519	21089
888.643	21085
888.767	21017
888.891	20982
889.015	20781
889.139	20979
889.263	20834
889.387	20944
889.511	21127
889.635	21009
889.759	20830
889.883	20883
890.006	20834
890.13	20986
890.254	20785
890.377	20826
890.501	20655
890.624	20571
890.748	20655
890.871	20484
890.995	20412
891.118	20332
891.241	20366
891.364	20351
891.488	20568
891.611	20408
891.734	20408
891.857	20400
891.98	20412
892.103	20492
892.226	20351
892.349	20370
892.471	20271
892.594	20374
892.717	20332
892.839	20244
892.962	20290
893.085	20385
893.207	20267
893.33	20202
893.452	20218
893.575	20324
893.697	20305
893.819	20431
893.941	20499
894.064	20415
894.186	20275
894.308	20294
894.43	20351
894.552	20381
894.674	20492
894.796	20267
894.918	20286
895.04	20256
895.161	20427
895.283	20366
895.405	20347
895.526	20355
895.648	20172
895.769	20332
895.891	20427
896.012	20434
896.134	20400
896.255	20324
896.376	20263
896.498	20309
896.619	20343
896.74	20286
896.861	20362
896.982	20571
897.103	20815
897.224	20583
897.345	20583
897.466	20282
897.587	20503
897.708	20659
897.828	20568
897.949	20446
898.07	20324
898.19	20465
898.311	20545
898.431	20522
898.552	20495
898.672	20507
898.792	20629
898.913	20564
899.033	20400
899.153	20271
899.273	20256
899.393	20332
899.513	20176
899.633	20282
899.753	20309
899.873	20218
899.993	20404
900.113	20202
900.232	20183
900.352	20138
900.472	20046
900.591	20054
900.711	20062
900.83	19989
900.95	20153
901.069	20138
901.189	19936
901.308	19868
901.427	19594
901.546	19586
901.665	19643
901.784	19715
901.904	19567
902.023	19499
902.141	19232
902.26	19289
902.379	19148
902.498	19095
902.617	19183
902.735	19206
902.854	19175
902.973	19031
903.091	18810
903.21	18810
903.328	18745
903.446	18749
903.565	18601
903.683	18604
903.801	18589
903.919	18547
904.038	18494
904.156	18296
904.274	18528
904.392	18350
904.51	18338
904.627	18308
904.745	18357
904.863	18361
904.981	18152
905.098	18030
905.216	18136
905.334	18064
905.451	18205
905.569	18049
905.686	18167
905.803	17939
905.921	17843
906.038	17912
906.155	17961
906.272	17729
906.389	17859
906.506	17577
906.623	17642
906.74	17535
906.857	17573
906.974	17497
907.091	17707
907.208	17672
907.324	17532
907.441	17490
907.557	17334
907.674	17299
907.79	17288
907.907	17109
908.023	17398
908.139	17318
908.256	17269
908.372	17197
908.488	17098
908.604	17094
908.72	17064
908.836	17143
908.952	16919
909.068	17143
909.184	17113
909.3	16961
909.415	17067
909.531	17052
909.647	16809
909.762	16763
909.878	16744
909.993	16687
910.108	16725
910.224	16687
910.339	16584
910.454	16630
910.57	16596
910.685	16481
910.8	16733
910.915	16645
911.03	16554
911.145	16356
911.259	16257
911.374	16299
911.489	16299
911.604	16154
911.718	16010
911.833	16215
911.947	15953
912.062	15876
912.176	16063
912.291	16036
912.405	16181
912.519	16272
912.633	16337
912.748	16063
912.862	15991
912.976	15823
913.09	15766
913.204	15778
913.318	15888
913.431	15949
913.545	15895
913.659	15994
913.772	15823
913.886	15724
914	15561
914.113	15743
914.226	15793
914.34	15686
914.453	15534
914.566	15766
914.68	15542
914.793	15587
914.906	15374
915.019	15283
915.132	15256
915.245	15294
915.358	15233
915.47	15272
915.583	15252
915.696	15325
915.809	15431
915.921	15439
916.034	15249
916.146	15112
916.259	15245
916.371	15207
916.483	15237
916.595	15131
916.708	15066
916.82	15138
916.932	15066
917.044	15047
917.156	14944
917.268	14982
917.38	15013
917.491	14937
917.603	14883
917.715	15055
917.826	14929
917.938	14861
918.049	14857
918.161	14868
918.272	14918
918.384	14937
918.495	14887
918.606	14674
918.717	14644
918.828	14648
918.939	14743
919.05	14579
919.161	14533
919.272	14545
919.383	14473
919.494	14678
919.604	14914
919.715	14583
919.826	14518
919.936	14678
920.047	14754
920.157	14636
920.267	14899
920.378	14590
920.488	14621
920.598	14777
920.708	14902
920.818	14788
920.928	14682
921.038	14906
921.148	14853
921.258	14621
921.368	14484
921.477	14351
921.587	14434
921.697	14248
921.806	14370
921.916	14233
922.025	14050
922.134	13989
922.244	14001
922.353	14001
922.462	13898
922.571	13879
922.68	13666
922.789	13712
922.898	13601
923.007	13696
923.116	13681
923.224	13662
923.333	13575
923.442	13472
923.55	13483
923.659	13491
923.767	13495
923.876	13499
923.984	13502
924.092	13354
924.201	13396
924.309	13384
924.417	13422
924.525	13339
924.633	13308
924.741	14149
924.849	13107
924.956	13232
925.064	13038
925.172	13091
925.279	13110
925.387	13057
925.494	13107
925.602	13221
925.709	13137
925.816	13031
925.924	12993
926.031	13156
926.138	12985
926.245	13065
926.352	12867
926.459	13080
926.566	13061
926.673	12894
926.779	12779
926.886	12764
926.993	12711
927.099	12677
927.206	12635
927.312	12639
927.419	12646
927.525	12616
927.631	12650
927.737	12601
927.843	12506
927.95	12311
928.056	12407
928.162	12391
928.267	12509
928.373	13034
928.479	12593
928.585	12296
928.69	12372
928.796	12437
928.901	12304
929.007	12114
929.112	12311
929.218	12369
929.323	12133
929.428	12201
929.533	12315
929.638	12152
929.743	12125
929.848	12171
929.953	12110
930.058	11996
930.163	11828
930.267	11923
930.372	11950
930.477	11722
930.581	12117
930.685	11843
930.79	11733
930.894	11783
930.998	11684
931.103	11779
931.207	11429
931.311	11417
931.415	11227
931.519	11159
931.623	11124
