Data from test_V78500241_2215.txt Node
Date: Fri Mar 25 15:57:08 CST 2022
User: usil
Spectrometer: V785-0024
Trigger mode: 0
Integration Time (sec): 4.000000E-1
Scans to average: 1
Nonlinearity correction enabled: false
Boxcar width: 0
Storing dark spectrum: false
XAxis mode: Wavelengths
Number of Pixels in Spectrum: 1024
>>>>>Begin Spectral Data<<<<<
801.071	28710
801.214	28831
801.356	28508
801.499	28516
801.641	28352
801.783	28306
801.926	28341
802.068	28295
802.211	28291
802.353	28116
802.496	28051
802.638	28048
802.78	28006
802.923	27869
803.065	27755
803.208	27956
803.35	28025
803.492	28158
803.635	28120
803.777	27941
803.919	28249
804.061	28455
804.204	28322
804.346	28181
804.488	28192
804.63	28139
804.773	28078
804.915	28428
805.057	28432
805.199	28226
805.341	28428
805.483	28337
805.626	28341
805.768	28234
805.91	28424
806.052	28436
806.194	28363
806.336	28474
806.478	28447
806.62	28421
806.762	28542
806.904	28774
807.046	29044
807.188	28828
807.33	28831
807.472	28900
807.614	28801
807.756	28839
807.898	28538
808.04	28561
808.182	28637
808.324	28713
808.465	28858
808.607	28991
808.749	29086
808.891	29094
809.033	29147
809.174	29197
809.316	29166
809.458	29044
809.6	28953
809.741	29197
809.883	29204
810.025	29455
810.166	29425
810.308	29318
810.45	29204
810.591	29216
810.733	29220
810.875	29060
811.016	28995
811.158	28972
811.299	29143
811.441	29372
811.582	29280
811.724	29006
811.865	29006
812.007	29098
812.148	29014
812.29	29048
812.431	29280
812.573	29478
812.714	29558
812.855	29604
812.997	29828
813.138	29813
813.279	29767
813.421	29729
813.562	29490
813.703	29589
813.845	29395
813.986	29143
814.127	28824
814.268	28812
814.41	28725
814.551	28782
814.692	28885
814.833	28691
814.974	28740
815.115	28942
815.256	28710
815.397	28725
815.539	28752
815.68	28531
815.821	28470
815.962	28721
816.103	28561
816.244	28352
816.385	28413
816.526	28276
816.666	28234
816.807	28051
816.948	28139
817.089	28287
817.23	28112
817.371	28063
817.512	28139
817.653	28097
817.793	28055
817.934	28059
818.075	28135
818.216	28120
818.356	27968
818.497	27892
818.638	27876
818.778	27869
818.919	27804
819.06	27846
819.2	28051
819.341	27968
819.481	28029
819.622	28226
819.762	28569
819.903	28352
820.043	28295
820.184	28173
820.324	28223
820.465	28306
820.605	28162
820.746	28154
820.886	28116
821.026	28120
821.167	28109
821.307	28242
821.447	28105
821.588	27956
821.728	27857
821.868	27561
822.008	27572
822.149	27679
822.289	27564
822.429	27435
822.569	27123
822.709	27287
822.849	27260
822.99	27058
823.13	27024
823.27	26948
823.41	26952
823.55	26861
823.69	26960
823.83	26811
823.97	26853
824.11	26781
824.25	26705
824.389	26705
824.529	26975
824.669	26667
824.809	26891
824.949	26781
825.089	26868
825.228	26720
825.368	26651
825.508	26640
825.648	26701
825.787	26716
825.927	26686
826.067	26571
826.206	26495
826.346	26667
826.485	26670
826.625	26621
826.765	26720
826.904	26708
827.044	26415
827.183	26427
827.323	26393
827.462	26453
827.601	26305
827.741	26347
827.88	26412
828.02	26119
828.159	26317
828.298	26233
828.437	26396
828.577	26309
828.716	26385
828.855	26195
828.994	26130
829.134	26069
829.273	26069
829.412	26054
829.551	26005
829.69	26050
829.829	26119
829.968	25993
830.107	26134
830.246	25982
830.385	26046
830.524	25951
830.663	25822
830.802	25677
830.941	25567
831.08	25624
831.219	25738
831.357	25605
831.496	25909
831.635	25761
831.774	25529
831.913	25552
832.051	25392
832.19	25392
832.329	25460
832.467	25407
832.606	25270
832.744	25122
832.883	25289
833.022	25251
833.16	25373
833.299	25270
833.437	25316
833.576	25236
833.714	25282
833.852	25403
833.991	25453
834.129	25449
834.267	25438
834.406	25327
834.544	25464
834.682	25373
834.821	25320
834.959	25457
835.097	25202
835.235	25335
835.373	25350
835.511	25411
835.65	25008
835.788	25107
835.926	24966
836.064	25000
836.202	24958
836.34	25198
836.478	25320
836.615	25213
836.753	25175
836.891	25278
837.029	25285
837.167	25137
837.305	25103
837.443	25072
837.58	25012
837.718	25076
837.856	25061
837.993	24833
838.131	24954
838.269	24935
838.406	24905
838.544	24764
838.681	24616
838.819	24532
838.956	24467
839.094	24399
839.231	24498
839.369	24620
839.506	24810
839.643	24627
839.781	24414
839.918	24380
840.055	24513
840.193	24498
840.33	24266
840.467	24304
840.604	24505
840.742	24589
840.879	24273
841.016	24380
841.153	24281
841.29	24410
841.427	24388
841.564	24292
841.701	24372
841.838	24342
841.975	24330
842.112	24190
842.249	24216
842.385	24106
842.522	24426
842.659	24201
842.796	24049
842.933	24102
843.069	24038
843.206	24121
843.343	24068
843.479	24182
843.616	24053
843.752	23973
843.889	23832
844.025	24057
844.162	23798
844.298	23897
844.435	23874
844.571	23790
844.708	23828
844.844	23973
844.98	23939
845.117	23999
845.253	23870
845.389	23710
845.525	23874
845.661	23646
845.798	23665
845.934	23581
846.07	23547
846.206	23642
846.342	23760
846.478	23646
846.614	23551
846.75	23376
846.886	23383
847.022	23395
847.158	23360
847.294	23360
847.429	23372
847.565	23166
847.701	23543
847.837	23121
847.972	23067
848.108	23216
848.244	23140
848.379	23060
848.515	23010
848.65	22968
848.786	22862
848.921	22858
849.057	22919
849.192	23044
849.328	22987
849.463	22980
849.598	22980
849.734	22900
849.869	22847
850.004	22763
850.14	22710
850.275	22729
850.41	22706
850.545	22698
850.68	22752
850.815	22748
850.95	22763
851.085	22892
851.22	22744
851.355	22771
851.49	22683
851.625	22637
851.76	22645
851.895	22508
852.03	22538
852.165	22748
852.299	22778
852.434	22755
852.569	22653
852.703	22771
852.838	22721
852.973	22687
853.107	22740
853.242	22615
853.376	22607
853.511	22405
853.645	22443
853.78	22645
853.914	22588
854.048	22577
854.183	22527
854.317	22584
854.451	22790
854.585	22523
854.72	22504
854.854	22645
854.988	22371
855.122	22580
855.256	22447
855.39	22413
855.524	22607
855.658	22538
855.792	22634
855.926	22538
856.06	22626
856.194	22470
856.327	22554
856.461	22436
856.595	22489
856.729	22504
856.862	22618
856.996	22489
857.13	22622
857.263	22634
857.397	22569
857.53	22500
857.664	22569
857.797	22489
857.931	22649
858.064	22622
858.197	22569
858.331	22424
858.464	22394
858.597	22375
858.731	22485
858.864	22440
858.997	22474
859.13	22455
859.263	22470
859.396	22538
859.529	22436
859.662	22432
859.795	22447
859.928	22516
860.061	22618
860.194	22615
860.327	22649
860.46	22489
860.592	22634
860.725	22679
860.858	22573
860.99	22531
861.123	22478
861.256	22535
861.388	22459
861.521	23235
861.653	22421
861.786	22295
861.918	22360
862.05	22413
862.183	22371
862.315	22382
862.447	22478
862.58	22546
862.712	22200
862.844	22192
862.976	22284
863.108	22329
863.24	22637
863.372	22135
863.504	22303
863.636	22223
863.768	22246
863.9	22257
864.032	22116
864.164	22188
864.296	22314
864.428	22367
864.559	22249
864.691	22284
864.823	22204
864.954	22109
865.086	22131
865.217	22135
865.349	21827
865.48	22067
865.612	22013
865.743	22219
865.875	22059
866.006	21994
866.137	22036
866.269	22116
866.4	22093
866.531	22055
866.662	22017
866.793	22032
866.924	21975
867.055	21960
867.186	22093
867.317	21915
867.448	21922
867.579	21968
867.71	21835
867.841	21884
867.972	22074
868.103	21949
868.233	22090
868.364	21972
868.495	22070
868.625	22314
868.756	22325
868.886	22036
869.017	22268
869.147	22356
869.278	22303
869.408	22257
869.539	22253
869.669	22371
869.799	22344
869.929	22360
870.06	22455
870.19	22554
870.32	22516
870.45	22603
870.58	22736
870.71	22687
870.84	22828
870.97	22672
871.1	22538
871.23	22866
871.36	22873
871.489	22725
871.619	22736
871.749	22797
871.879	22858
872.008	22911
872.138	22843
872.267	22854
872.397	22759
872.526	22713
872.656	22668
872.785	22713
872.915	22850
873.044	22919
873.173	22702
873.303	22953
873.432	22972
873.561	22946
873.69	22961
873.819	23056
873.948	22934
874.077	22858
874.206	22824
874.335	22904
874.464	23022
874.593	23121
874.722	22991
874.851	23155
874.979	23159
875.108	23105
875.237	23143
875.365	22942
875.494	23037
875.623	23121
875.751	22976
875.88	23014
876.008	23273
876.136	23284
876.265	23429
876.393	23562
876.521	23585
876.65	23566
876.778	23558
876.906	23368
877.034	23395
877.162	23493
877.29	23284
877.418	23444
877.546	23406
877.674	23440
877.802	23505
877.93	23551
878.058	23471
878.185	23296
878.313	23353
878.441	23341
878.568	23223
878.696	23318
878.824	23387
878.951	23429
879.079	23657
879.206	23707
879.333	23672
879.461	23482
879.588	23471
879.715	23558
879.842	23840
879.97	23448
880.097	23239
880.224	23254
880.351	23227
880.478	23235
880.605	23189
880.732	23197
880.859	23608
880.986	23079
881.112	23216
881.239	22999
881.366	23037
881.493	22812
881.619	22858
881.746	22729
881.872	22885
881.999	22672
882.125	22592
882.252	22896
882.378	22771
882.505	22927
882.631	22672
882.757	22474
882.883	22516
883.01	22523
883.136	22500
883.262	22405
883.388	22371
883.514	22436
883.64	22485
883.766	22447
883.892	22185
884.018	22200
884.143	22386
884.269	22485
884.395	22291
884.52	22143
884.646	22105
884.772	21983
884.897	21953
885.023	22074
885.148	22276
885.274	22363
885.399	22211
885.524	22291
885.65	21983
885.775	22074
885.9	22067
886.025	22287
886.15	22219
886.275	22090
886.4	21994
886.525	22013
886.65	22044
886.775	22029
886.9	22207
887.025	22291
887.149	22070
887.274	21922
887.399	21994
887.523	21816
887.648	21819
887.773	21663
887.897	21873
888.021	21895
888.146	21751
888.27	21983
888.395	21934
888.519	21964
888.643	21949
888.767	21827
888.891	21869
889.015	21614
889.139	21732
889.263	21736
889.387	21682
889.511	21827
889.635	21652
889.759	21637
889.883	21576
890.006	21717
890.13	21789
890.254	21561
890.377	21675
890.501	21424
890.624	21386
890.748	21416
890.871	21302
890.995	21184
891.118	21207
891.241	21294
891.364	21176
891.488	21291
891.611	21203
891.734	21313
891.857	21367
891.98	21150
892.103	21195
892.226	21264
892.349	21169
892.471	21028
892.594	21127
892.717	21226
892.839	21036
892.962	21070
893.085	21112
893.207	21135
893.33	21036
893.452	20956
893.575	21116
893.697	21070
893.819	21302
893.941	21306
894.064	21173
894.186	21043
894.308	21100
894.43	21169
894.552	21150
894.674	21123
894.796	20967
894.918	20967
895.04	20967
895.161	21260
895.283	21093
895.405	20929
895.526	21161
895.648	21085
895.769	21039
895.891	21058
896.012	21138
896.134	21104
896.255	21150
896.376	21001
896.498	21070
896.619	21047
896.74	21058
896.861	21081
896.982	21268
897.103	21511
897.224	21359
897.345	21226
897.466	21199
897.587	21199
897.708	21302
897.828	21329
897.949	21173
898.07	21192
898.19	21283
898.311	21237
898.431	21241
898.552	21188
898.672	21401
898.792	21435
898.913	21241
899.033	21237
899.153	21127
899.273	20986
899.393	21032
899.513	21127
899.633	21024
899.753	21142
899.873	20929
899.993	20963
900.113	21024
900.232	21013
900.352	20952
900.472	20807
900.591	20697
900.711	20769
900.83	20796
900.95	20830
901.069	20800
901.189	20826
901.308	20358
901.427	20362
901.546	20438
901.665	20408
901.784	20358
901.904	20183
902.023	20100
902.141	19932
902.26	20016
902.379	20054
902.498	19814
902.617	19868
902.735	19925
902.854	19742
902.973	19890
903.091	19563
903.21	19499
903.328	19518
903.446	19472
903.565	19403
903.683	19213
903.801	19175
903.919	19278
904.038	19259
904.156	19103
904.274	19137
904.392	19038
904.51	18886
904.627	19023
904.745	19183
904.863	19110
904.981	18947
905.098	18787
905.216	18734
905.334	18764
905.451	18734
905.569	18848
905.686	18768
905.803	18665
905.921	18521
906.038	18570
906.155	18448
906.272	18429
906.389	18391
906.506	18220
906.623	18300
906.74	18239
906.857	18133
906.974	18285
907.091	18174
907.208	18391
907.324	18224
907.441	18205
907.557	17973
907.674	17954
907.79	17920
907.907	17897
908.023	18072
908.139	18007
908.256	17912
908.372	17798
908.488	17786
908.604	17748
908.72	17714
908.836	17661
908.952	17653
909.068	17707
909.184	17813
909.3	17600
909.415	17596
909.531	17661
909.647	17554
909.762	17296
909.878	17337
909.993	17372
910.108	17349
910.224	17318
910.339	17334
910.454	17136
910.57	17136
910.685	17124
910.8	17356
910.915	17277
911.03	17258
911.145	17048
911.259	17037
911.374	16900
911.489	16809
911.604	16763
911.718	16664
911.833	16664
911.947	16649
912.062	16592
912.176	16618
912.291	16618
912.405	16733
912.519	16869
912.633	16934
912.748	16740
912.862	16641
912.976	16398
913.09	16409
913.204	16379
913.318	16485
913.431	16489
913.545	16584
913.659	16573
913.772	16417
913.886	16322
914	16207
914.113	16398
914.226	16390
914.34	16280
914.453	16150
914.566	16379
914.68	16097
914.793	16097
914.906	15903
915.019	15918
915.132	15755
915.245	15793
915.358	15888
915.47	15880
915.583	15793
915.696	15918
915.809	15903
915.921	15975
916.034	15755
916.146	15762
916.259	15774
916.371	15812
916.483	15781
916.595	15610
916.708	15797
916.82	15641
916.932	15595
917.044	15538
917.156	15580
917.268	15572
917.38	15587
917.491	15469
917.603	15500
917.715	15675
917.826	15553
917.938	15473
918.049	15363
918.161	15443
918.272	15542
918.384	15580
918.495	15454
918.606	15294
918.717	15154
918.828	15374
918.939	15241
919.05	15218
919.161	15184
919.272	15036
919.383	15116
919.494	15241
919.604	15431
919.715	15283
919.826	15127
919.936	15184
920.047	15256
920.157	15294
920.267	15310
920.378	15370
920.488	15135
920.598	15321
920.708	15401
920.818	15378
920.928	15313
921.038	15469
921.148	15462
921.258	15138
921.368	15047
921.477	14967
921.587	14849
921.697	14800
921.806	14899
921.916	14826
922.025	14598
922.134	14625
922.244	14552
922.353	14583
922.462	14412
922.571	14434
922.68	14244
922.789	14115
922.898	14142
923.007	14172
923.116	14172
923.224	14115
923.333	14054
923.442	13902
923.55	13997
923.659	13986
923.767	13970
923.876	13997
923.984	13967
924.092	13887
924.201	13936
924.309	13940
924.417	13970
924.525	13875
924.633	13841
924.741	14587
924.849	13544
924.956	13799
925.064	13681
925.172	13476
925.279	13514
925.387	13571
925.494	13525
925.602	13696
925.709	13521
925.816	13381
925.924	13514
926.031	13559
926.138	13529
926.245	13571
926.352	13415
926.459	13537
926.566	13495
926.673	13506
926.779	13331
926.886	13255
926.993	13160
927.099	13232
927.206	13118
927.312	13095
927.419	13152
927.525	13095
927.631	13171
927.737	12958
927.843	12901
927.95	12897
928.056	12859
928.162	12783
928.267	13008
928.373	13544
928.479	12989
928.585	12711
928.69	12856
928.796	12886
928.901	12669
929.007	12593
929.112	12741
929.218	12738
929.323	12623
929.428	12574
929.533	12677
929.638	12547
929.743	12517
929.848	12593
929.953	12513
930.058	12498
930.163	12235
930.267	12342
930.372	12467
930.477	12239
930.581	12513
930.685	12300
930.79	12110
930.894	12216
930.998	12171
931.103	12235
931.207	11916
931.311	11847
931.415	11775
931.519	11543
931.623	11562
