Data from test_V78500241_296.txt Node
Date: Fri Mar 25 15:43:51 CST 2022
User: usil
Spectrometer: V785-0024
Trigger mode: 0
Integration Time (sec): 4.000000E-1
Scans to average: 1
Nonlinearity correction enabled: false
Boxcar width: 0
Storing dark spectrum: false
XAxis mode: Wavelengths
Number of Pixels in Spectrum: 1024
>>>>>Begin Spectral Data<<<<<
801.071	29147
801.214	29265
801.356	28995
801.499	28965
801.641	28740
801.783	28805
801.926	28904
802.068	28869
802.211	28717
802.353	28596
802.496	28649
802.638	28428
802.78	28451
802.923	28348
803.065	28497
803.208	28569
803.35	28531
803.492	28504
803.635	28710
803.777	28489
803.919	28767
804.061	28984
804.204	28736
804.346	28565
804.488	28497
804.63	28577
804.773	28504
804.915	28519
805.057	28733
805.199	28733
805.341	28698
805.483	28687
805.626	28733
805.768	28611
805.91	28782
806.052	28679
806.194	28512
806.336	28904
806.478	28927
806.62	28698
806.762	28896
806.904	29003
807.046	29227
807.188	29174
807.33	29261
807.472	29220
807.614	29003
807.756	29117
807.898	29018
808.04	28809
808.182	28824
808.324	28934
808.465	28923
808.607	29086
808.749	29189
808.891	29486
809.033	29558
809.174	29440
809.316	29280
809.458	29216
809.6	29254
809.741	29417
809.883	29486
810.025	29600
810.166	29509
810.308	29585
810.45	29539
810.591	29573
810.733	29368
810.875	29330
811.016	29250
811.158	29212
811.299	29429
811.441	29497
811.582	29554
811.724	29330
811.865	29254
812.007	29242
812.148	29326
812.29	29311
812.431	29471
812.573	29687
812.714	29691
812.855	29798
812.997	29939
813.138	29954
813.279	29950
813.421	29935
813.562	29752
813.703	29490
813.845	29383
813.986	29208
814.127	28934
814.268	28927
814.41	28980
814.551	28904
814.692	29136
814.833	28942
814.974	28900
815.115	28980
815.256	28782
815.397	28740
815.539	28911
815.68	28706
815.821	28748
815.962	28828
816.103	28550
816.244	28611
816.385	28500
816.526	28356
816.666	28325
816.807	28261
816.948	28421
817.089	28268
817.23	28192
817.371	28253
817.512	28207
817.653	28067
817.793	28128
817.934	28166
818.075	28329
818.216	28272
818.356	28078
818.497	27979
818.638	27850
818.778	27899
818.919	27785
819.06	27968
819.2	28013
819.341	28082
819.481	28143
819.622	28314
819.762	28500
819.903	28390
820.043	28303
820.184	28360
820.324	28055
820.465	28382
820.605	28325
820.746	28158
820.886	28040
821.026	28192
821.167	28109
821.307	28257
821.447	28105
821.588	28078
821.728	27800
821.868	27778
822.008	27576
822.149	27534
822.289	27561
822.429	27332
822.569	27230
822.709	27112
822.849	27100
822.99	27173
823.13	27001
823.27	26979
823.41	26823
823.55	26918
823.69	26804
823.83	26864
823.97	26807
824.11	26583
824.25	26579
824.389	26522
824.529	26674
824.669	26606
824.809	26724
824.949	26845
825.089	26762
825.228	26731
825.368	26511
825.508	26560
825.648	26507
825.787	26533
825.927	26541
826.067	26514
826.206	26332
826.346	26560
826.485	26602
826.625	26488
826.765	26522
826.904	26587
827.044	26282
827.183	26313
827.323	26176
827.462	26252
827.601	26039
827.741	26016
827.88	26058
828.02	26027
828.159	26142
828.298	26126
828.437	26286
828.577	26027
828.716	26305
828.855	26069
828.994	25841
829.134	25849
829.273	25772
829.412	25822
829.551	25784
829.69	25746
829.829	25822
829.968	25871
830.107	25932
830.246	25791
830.385	25632
830.524	25662
830.663	25620
830.802	25487
830.941	25441
831.08	25468
831.219	25518
831.357	25529
831.496	25727
831.635	25449
831.774	25335
831.913	25266
832.051	25209
832.19	25168
832.329	25255
832.467	25122
832.606	25187
832.744	25107
832.883	25103
833.022	25008
833.16	25015
833.299	25129
833.437	25183
833.576	25038
833.714	25107
833.852	25175
833.991	25110
834.129	25168
834.267	25141
834.406	25129
834.544	25038
834.682	25046
834.821	25023
834.959	25304
835.097	25050
835.235	25034
835.373	25019
835.511	25145
835.65	24954
835.788	24890
835.926	24787
836.064	24814
836.202	24757
836.34	24825
836.478	24905
836.615	24905
836.753	24852
836.891	24989
837.029	24882
837.167	24798
837.305	24639
837.443	24623
837.58	24707
837.718	24795
837.856	24707
837.993	24631
838.131	24589
838.269	24726
838.406	24608
838.544	24445
838.681	24311
838.819	24308
838.956	24026
839.094	24171
839.231	24232
839.369	24262
839.506	24604
839.643	24399
839.781	24167
839.918	24087
840.055	24018
840.193	24083
840.33	24034
840.467	24159
840.604	24076
840.742	24369
840.879	23923
841.016	24045
841.153	23984
841.29	24087
841.427	24091
841.564	24091
841.701	23992
841.838	23893
841.975	23855
842.112	23912
842.249	23889
842.385	23885
842.522	23942
842.659	23901
842.796	23672
842.933	23737
843.069	23760
843.206	23638
843.343	23741
843.479	23687
843.616	23619
843.752	23501
843.889	23493
844.025	23551
844.162	23376
844.298	23646
844.435	23573
844.571	23406
844.708	23509
844.844	23642
844.98	23600
845.117	23710
845.253	23425
845.389	23364
845.525	23345
845.661	23311
845.798	23140
845.934	23261
846.07	23197
846.206	23140
846.342	23269
846.478	23147
846.614	22946
846.75	22820
846.886	22915
847.022	22927
847.158	22904
847.294	22927
847.429	22942
847.565	22805
847.701	23162
847.837	22565
847.972	22615
848.108	22782
848.244	22561
848.379	22542
848.515	22462
848.65	22546
848.786	22413
848.921	22398
849.057	22691
849.192	22451
849.328	22459
849.463	22607
849.598	22421
849.734	22268
849.869	22329
850.004	22204
850.14	22352
850.275	22204
850.41	22143
850.545	22158
850.68	22265
850.815	22173
850.95	22207
851.085	22413
851.22	22242
851.355	22200
851.49	22219
851.625	22185
851.76	22055
851.895	22021
852.03	22032
852.165	22215
852.299	22257
852.434	22272
852.569	22200
852.703	22215
852.838	22181
852.973	22367
853.107	22318
853.242	22143
853.376	22063
853.511	21941
853.645	22002
853.78	22120
853.914	22124
854.048	22078
854.183	21930
854.317	22032
854.451	22249
854.585	22029
854.72	21960
854.854	21979
854.988	21979
855.122	21998
855.256	21911
855.39	21922
855.524	21941
855.658	22131
855.792	22032
855.926	22166
856.06	21998
856.194	22181
856.327	21968
856.461	22006
856.595	21869
856.729	22059
856.862	22067
856.996	22067
857.13	22128
857.263	22150
857.397	22101
857.53	21918
857.664	22055
857.797	22032
857.931	22051
858.064	21991
858.197	22109
858.331	22055
858.464	21884
858.597	21861
858.731	21869
858.864	21968
858.997	21899
859.13	22017
859.263	21987
859.396	22074
859.529	21865
859.662	21941
859.795	21907
859.928	21979
860.061	22139
860.194	22059
860.327	22070
860.46	21865
860.592	21953
860.725	22166
860.858	22169
860.99	21994
861.123	21899
861.256	21934
861.388	22059
861.521	22523
861.653	21800
861.786	21812
861.918	21838
862.05	21819
862.183	21899
862.315	22021
862.447	22093
862.58	21972
862.712	21671
862.844	21698
862.976	21762
863.108	21724
863.24	22032
863.372	21629
863.504	21633
863.636	21519
863.768	21564
863.9	21587
864.032	21576
864.164	21618
864.296	21778
864.428	21739
864.559	21652
864.691	21800
864.823	21572
864.954	21686
865.086	21698
865.217	21511
865.349	21439
865.48	21519
865.612	21618
865.743	21641
865.875	21534
866.006	21492
866.137	21583
866.269	21568
866.4	21538
866.531	21545
866.662	21386
866.793	21424
866.924	21496
867.055	21447
867.186	21431
867.317	21351
867.448	21294
867.579	21450
867.71	21389
867.841	21397
867.972	21416
868.103	21431
868.233	21416
868.364	21397
868.495	21545
868.625	21549
868.756	21709
868.886	21679
869.017	21709
869.147	21797
869.278	21793
869.408	21705
869.539	21637
869.669	21816
869.799	21739
869.929	21827
870.06	21869
870.19	22013
870.32	22025
870.45	21934
870.58	22040
870.71	22185
870.84	22093
870.97	21991
871.1	22013
871.23	22242
871.36	22322
871.489	22158
871.619	22177
871.749	22265
871.879	22344
872.008	22344
872.138	22333
872.267	22162
872.397	22154
872.526	22112
872.656	22036
872.785	22067
872.915	22363
873.044	22455
873.173	22341
873.303	22265
873.432	22325
873.561	22413
873.69	22284
873.819	22493
873.948	22500
874.077	22375
874.206	22272
874.335	22325
874.464	22451
874.593	22516
874.722	22508
874.851	22656
874.979	22493
875.108	22577
875.237	22531
875.365	22538
875.494	22470
875.623	22706
875.751	22546
875.88	22508
876.008	22569
876.136	22649
876.265	22984
876.393	23060
876.521	23014
876.65	23075
876.778	22896
876.906	22801
877.034	22774
877.162	22786
877.29	22793
877.418	22900
877.546	23037
877.674	22790
877.802	22820
877.93	22850
878.058	22831
878.185	22752
878.313	22839
878.441	22885
878.568	22831
878.696	22843
878.824	22923
878.951	22968
879.079	23052
879.206	23079
879.333	23064
879.461	22881
879.588	22965
879.715	22968
879.842	23086
879.97	23037
880.097	22687
880.224	22691
880.351	22744
880.478	22786
880.605	22729
880.732	22653
880.859	22957
880.986	22702
881.112	22679
881.239	22531
881.366	22432
881.493	22360
881.619	22223
881.746	22344
881.872	22405
881.999	22291
882.125	22181
882.252	22337
882.378	22234
882.505	22310
882.631	22139
882.757	21983
882.883	22093
883.01	22090
883.136	22010
883.262	21991
883.388	21720
883.514	22055
883.64	21972
883.766	22044
883.892	21838
884.018	21865
884.143	21945
884.269	22017
884.395	21743
884.52	21595
884.646	21625
884.772	21580
884.897	21481
885.023	21720
885.148	21694
885.274	21736
885.399	21610
885.524	21576
885.65	21709
885.775	21553
885.9	21542
886.025	21663
886.15	21641
886.275	21568
886.4	21610
886.525	21473
886.65	21454
886.775	21530
886.9	21553
887.025	21751
887.149	21679
887.274	21302
887.399	21279
887.523	21439
887.648	21325
887.773	21199
887.897	21382
888.021	21504
888.146	21195
888.27	21332
888.395	21435
888.519	21332
888.643	21329
888.767	21336
888.891	21302
889.015	21119
889.139	21283
889.263	21039
889.387	21275
889.511	21291
889.635	21294
889.759	21028
889.883	21066
890.006	21199
890.13	21165
890.254	21176
890.377	21074
890.501	20743
890.624	20906
890.748	20891
890.871	20735
890.995	20693
891.118	20613
891.241	20693
891.364	20663
891.488	20933
891.611	20762
891.734	20716
891.857	20708
891.98	20693
892.103	20689
892.226	20724
892.349	20606
892.471	20530
892.594	20632
892.717	20667
892.839	20705
892.962	20587
893.085	20712
893.207	20571
893.33	20446
893.452	20507
893.575	20682
893.697	20549
893.819	20651
893.941	20781
894.064	20670
894.186	20442
894.308	20473
894.43	20602
894.552	20743
894.674	20556
894.796	20518
894.918	20541
895.04	20514
895.161	20701
895.283	20617
895.405	20530
895.526	20476
895.648	20583
895.769	20617
895.891	20522
896.012	20682
896.134	20648
896.255	20632
896.376	20545
896.498	20636
896.619	20674
896.74	20640
896.861	20689
896.982	20880
897.103	21058
897.224	20804
897.345	20902
897.466	20754
897.587	20849
897.708	20891
897.828	20758
897.949	20758
898.07	20712
898.19	20712
898.311	20804
898.431	20693
898.552	20826
898.672	20887
898.792	20944
898.913	20804
899.033	20598
899.153	20522
899.273	20480
899.393	20503
899.513	20514
899.633	20507
899.753	20518
899.873	20366
899.993	20511
900.113	20415
900.232	20522
900.352	20370
900.472	20347
900.591	20252
900.711	20362
900.83	20202
900.95	20339
901.069	20271
901.189	20229
901.308	19959
901.427	19887
901.546	19864
901.665	19883
901.784	19734
901.904	19811
902.023	19674
902.141	19407
902.26	19354
902.379	19419
902.498	19415
902.617	19430
902.735	19263
902.854	19251
902.973	19228
903.091	19057
903.21	18973
903.328	19034
903.446	18947
903.565	18821
903.683	18829
903.801	18650
903.919	18757
904.038	18700
904.156	18513
904.274	18616
904.392	18490
904.51	18635
904.627	18559
904.745	18700
904.863	18570
904.981	18273
905.098	18319
905.216	18197
905.334	18182
905.451	18247
905.569	18155
905.686	18239
905.803	18182
905.921	18045
906.038	18110
906.155	18079
906.272	17817
906.389	18041
906.506	17707
906.623	17722
906.74	17733
906.857	17634
906.974	17642
907.091	17771
907.208	17889
907.324	17786
907.441	17665
907.557	17471
907.674	17410
907.79	17364
907.907	17391
908.023	17474
908.139	17539
908.256	17356
908.372	17273
908.488	17235
908.604	17250
908.72	17094
908.836	17067
908.952	17124
909.068	17025
909.184	17147
909.3	17136
909.415	17170
909.531	17117
909.647	16934
909.762	16885
909.878	16820
909.993	16866
910.108	16752
910.224	16774
910.339	16759
910.454	16683
910.57	16698
910.685	16512
910.8	16797
910.915	16763
911.03	16584
911.145	16542
911.259	16447
911.374	16500
911.489	16371
911.604	16291
911.718	16128
911.833	16105
911.947	16150
912.062	15991
912.176	16147
912.291	16188
912.405	16101
912.519	16367
912.633	16280
912.748	16169
912.862	16017
912.976	15907
913.09	15895
913.204	15854
913.318	15895
913.431	16120
913.545	15934
913.659	16006
913.772	15937
913.886	15797
914	15747
914.113	15876
914.226	15926
914.34	15705
914.453	15622
914.566	15728
914.68	15629
914.793	15652
914.906	15443
915.019	15378
915.132	15256
915.245	15374
915.358	15393
915.47	15351
915.583	15382
915.696	15405
915.809	15416
915.921	15504
916.034	15279
916.146	15252
916.259	15211
916.371	15294
916.483	15283
916.595	15199
916.708	15161
916.82	15188
916.932	15188
917.044	15138
917.156	15123
917.268	15013
917.38	14990
917.491	15047
917.603	14899
917.715	15074
917.826	15123
917.938	14895
918.049	14883
918.161	14895
918.272	15127
918.384	15001
918.495	14910
918.606	14792
918.717	14655
918.828	14739
918.939	14773
919.05	14701
919.161	14644
919.272	14636
919.383	14583
919.494	14800
919.604	14891
919.715	14689
919.826	14606
919.936	14682
920.047	14689
920.157	14689
920.267	14834
920.378	14617
920.488	14583
920.598	14853
920.708	14933
920.818	14883
920.928	14842
921.038	14910
921.148	14937
921.258	14507
921.368	14495
921.477	14328
921.587	14381
921.697	14267
921.806	14465
921.916	14202
922.025	14138
922.134	14069
922.244	14092
922.353	14065
922.462	13890
922.571	13837
922.68	13803
922.789	13636
922.898	13715
923.007	13582
923.116	13761
923.224	13578
923.333	13674
923.442	13483
923.55	13510
923.659	13578
923.767	13681
923.876	13464
923.984	13521
924.092	13468
924.201	13460
924.309	13415
924.417	13396
924.525	13331
924.633	13362
924.741	14202
924.849	13091
924.956	13236
925.064	13164
925.172	12928
925.279	13042
925.387	13065
925.494	13168
925.602	13236
925.709	13141
925.816	13034
925.924	13023
926.031	13187
926.138	13046
926.245	13042
926.352	12973
926.459	12977
926.566	13053
926.673	12981
926.779	12863
926.886	12829
926.993	12589
927.099	12669
927.206	12555
927.312	12612
927.419	12662
927.525	12601
927.631	12677
927.737	12532
927.843	12479
927.95	12353
928.056	12429
928.162	12540
928.267	12544
928.373	13012
928.479	12551
928.585	12235
928.69	12448
928.796	12460
928.901	12372
929.007	12144
929.112	12300
929.218	12194
929.323	12182
929.428	12121
929.533	12319
929.638	12034
929.743	12163
929.848	12197
929.953	12091
930.058	11973
930.163	11893
930.267	11851
930.372	11946
930.477	11783
930.581	12038
930.685	11885
930.79	11745
930.894	11794
930.998	11680
931.103	11802
931.207	11444
931.311	11326
931.415	11288
931.519	11079
931.623	11121
