Data from test_V78500241_2495.txt Node
Date: Fri Mar 25 15:59:05 CST 2022
User: usil
Spectrometer: V785-0024
Trigger mode: 0
Integration Time (sec): 4.000000E-1
Scans to average: 1
Nonlinearity correction enabled: false
Boxcar width: 0
Storing dark spectrum: false
XAxis mode: Wavelengths
Number of Pixels in Spectrum: 1024
>>>>>Begin Spectral Data<<<<<
801.071	28523
801.214	28542
801.356	28310
801.499	28386
801.641	28226
801.783	28314
801.926	28238
802.068	28147
802.211	28109
802.353	28036
802.496	27884
802.638	27975
802.78	27956
802.923	27698
803.065	27690
803.208	27869
803.35	27937
803.492	27926
803.635	28192
803.777	28040
803.919	28051
804.061	28337
804.204	28265
804.346	28029
804.488	28029
804.63	28204
804.773	28173
804.915	28181
805.057	28314
805.199	28105
805.341	28112
805.483	28238
805.626	28272
805.768	28242
805.91	28329
806.052	28276
806.194	28204
806.336	28474
806.478	28276
806.62	28192
806.762	28409
806.904	28535
807.046	28740
807.188	28706
807.33	28634
807.472	28809
807.614	28687
807.756	28706
807.898	28717
808.04	28443
808.182	28455
808.324	28611
808.465	28721
808.607	28812
808.749	29056
808.891	28915
809.033	29010
809.174	28961
809.316	29102
809.458	28847
809.6	28934
809.741	29044
809.883	29010
810.025	29204
810.166	29280
810.308	29189
810.45	29102
810.591	29155
810.733	28790
810.875	28774
811.016	28908
811.158	28843
811.299	28984
811.441	29025
811.582	29105
811.724	28892
811.865	28908
812.007	29048
812.148	28961
812.29	29018
812.431	29090
812.573	29261
812.714	29391
812.855	29452
812.997	29611
813.138	29619
813.279	29729
813.421	29490
813.562	29353
813.703	29071
813.845	29124
813.986	28839
814.127	28759
814.268	28729
814.41	28774
814.551	28759
814.692	28713
814.833	28626
814.974	28535
815.115	28611
815.256	28527
815.397	28417
815.539	28577
815.68	28424
815.821	28341
815.962	28363
816.103	28637
816.244	28310
816.385	28192
816.526	28226
816.666	28162
816.807	27934
816.948	28010
817.089	28006
817.23	28105
817.371	27979
817.512	27907
817.653	27930
817.793	27922
817.934	28029
818.075	27956
818.216	27911
818.356	27888
818.497	27819
818.638	27587
818.778	27720
818.919	27800
819.06	27698
819.2	27903
819.341	28013
819.481	27873
819.622	28063
819.762	28325
819.903	28219
820.043	28188
820.184	27968
820.324	28090
820.465	28223
820.605	28025
820.746	28124
820.886	27945
821.026	28055
821.167	28017
821.307	28158
821.447	28067
821.588	27827
821.728	27778
821.868	27667
822.008	27625
822.149	27443
822.289	27298
822.429	27230
822.569	27085
822.709	27085
822.849	26986
822.99	26986
823.13	26876
823.27	26948
823.41	26670
823.55	26693
823.69	26731
823.83	26910
823.97	26701
824.11	26469
824.25	26568
824.389	26556
824.529	26594
824.669	26686
824.809	26651
824.949	26606
825.089	26781
825.228	26594
825.368	26320
825.508	26427
825.648	26389
825.787	26412
825.927	26568
826.067	26415
826.206	26587
826.346	26480
826.485	26552
826.625	26431
826.765	26465
826.904	26511
827.044	26149
827.183	26168
827.323	26202
827.462	26210
827.601	26183
827.741	26069
827.88	26027
828.02	26119
828.159	26058
828.298	26096
828.437	26149
828.577	26096
828.716	26298
828.855	26145
828.994	25757
829.134	25864
829.273	25951
829.412	25750
829.551	25814
829.69	25921
829.829	25849
829.968	25928
830.107	25913
830.246	25799
830.385	25826
830.524	25750
830.663	25677
830.802	25540
830.941	25472
831.08	25556
831.219	25597
831.357	25525
831.496	25757
831.635	25544
831.774	25434
831.913	25430
832.051	25331
832.19	25270
832.329	25293
832.467	25190
832.606	25168
832.744	25038
832.883	25217
833.022	25050
833.16	25129
833.299	25202
833.437	25263
833.576	25099
833.714	25187
833.852	25388
833.991	25255
834.129	25282
834.267	25263
834.406	25225
834.544	25190
834.682	25228
834.821	25183
834.959	25358
835.097	25141
835.235	25278
835.373	25278
835.511	25202
835.65	24985
835.788	25202
835.926	25027
836.064	24833
836.202	24901
836.34	25004
836.478	25095
836.615	24947
836.753	25000
836.891	25015
837.029	25061
837.167	24840
837.305	24806
837.443	24954
837.58	24814
837.718	25057
837.856	24837
837.993	25008
838.131	24821
838.269	24734
838.406	24844
838.544	24578
838.681	24418
838.819	24464
838.956	24395
839.094	24258
839.231	24357
839.369	24483
839.506	24749
839.643	24502
839.781	24338
839.918	24300
840.055	24228
840.193	24277
840.33	24178
840.467	24106
840.604	24232
840.742	24486
840.879	24102
841.016	24121
841.153	24140
841.29	24273
841.427	24232
841.564	24125
841.701	24315
841.838	24076
841.975	24095
842.112	24018
842.249	23942
842.385	24079
842.522	24102
842.659	24011
842.796	23904
842.933	24091
843.069	23988
843.206	24003
843.343	24045
843.479	23973
843.616	23969
843.752	23798
843.889	23821
844.025	23912
844.162	23691
844.298	23737
844.435	23756
844.571	23824
844.708	23798
844.844	23901
844.98	23946
845.117	23847
845.253	23790
845.389	23600
845.525	23726
845.661	23619
845.798	23547
845.934	23501
846.07	23501
846.206	23585
846.342	23611
846.478	23478
846.614	23231
846.75	23151
846.886	23178
847.022	23273
847.158	23204
847.294	23303
847.429	23246
847.565	23193
847.701	23395
847.837	22911
847.972	22877
848.108	23067
848.244	23086
848.379	22858
848.515	22854
848.65	22759
848.786	22816
848.921	22805
849.057	22961
849.192	22927
849.328	22706
849.463	22896
849.598	22668
849.734	22725
849.869	22668
850.004	22649
850.14	22618
850.275	22474
850.41	22459
850.545	22565
850.68	22615
850.815	22588
850.95	22611
851.085	22694
851.22	22622
851.355	22561
851.49	22508
851.625	22542
851.76	22535
851.895	22470
852.03	22508
852.165	22626
852.299	22645
852.434	22672
852.569	22580
852.703	22493
852.838	22668
852.973	22801
853.107	22611
853.242	22607
853.376	22504
853.511	22295
853.645	22360
853.78	22500
853.914	22455
854.048	22230
854.183	22462
854.317	22291
854.451	22527
854.585	22485
854.72	22360
854.854	22512
854.988	22226
855.122	22443
855.256	22318
855.39	22344
855.524	22443
855.658	22405
855.792	22291
855.926	22417
856.06	22455
856.194	22470
856.327	22428
856.461	22325
856.595	22344
856.729	22394
856.862	22523
856.996	22337
857.13	22481
857.263	22481
857.397	22485
857.53	22303
857.664	22348
857.797	22531
857.931	22478
858.064	22462
858.197	22535
858.331	22440
858.464	22398
858.597	22322
858.731	22390
858.864	22185
858.997	22314
859.13	22382
859.263	22474
859.396	22470
859.529	22386
859.662	22379
859.795	22462
859.928	22428
860.061	22573
860.194	22603
860.327	22443
860.46	22451
860.592	22462
860.725	22554
860.858	22531
860.99	22371
861.123	22424
861.256	22284
861.388	22398
861.521	23155
861.653	22249
861.786	22154
861.918	22135
862.05	22322
862.183	22291
862.315	22329
862.447	22428
862.58	22261
862.712	22139
862.844	22017
862.976	22154
863.108	22166
863.24	22466
863.372	22051
863.504	22090
863.636	22200
863.768	22105
863.9	21964
864.032	22029
864.164	22101
864.296	22078
864.428	22188
864.559	22226
864.691	22234
864.823	22143
864.954	22135
865.086	22177
865.217	22017
865.349	21873
865.48	21937
865.612	21987
865.743	22120
865.875	21968
866.006	21968
866.137	21934
866.269	21895
866.4	22029
866.531	21880
866.662	21930
866.793	21819
866.924	21873
867.055	21934
867.186	22036
867.317	21838
867.448	21831
867.579	21956
867.71	21876
867.841	21850
867.972	21888
868.103	21930
868.233	21998
868.364	21892
868.495	22010
868.625	22116
868.756	22325
868.886	22063
869.017	22097
869.147	22249
869.278	22295
869.408	22188
869.539	22219
869.669	22310
869.799	22253
869.929	22257
870.06	22204
870.19	22337
870.32	22474
870.45	22398
870.58	22569
870.71	22649
870.84	22691
870.97	22569
871.1	22561
871.23	22710
871.36	22786
871.489	22706
871.619	22679
871.749	22698
871.879	22706
872.008	22809
872.138	22869
872.267	22687
872.397	22675
872.526	22550
872.656	22569
872.785	22694
872.915	22706
873.044	22721
873.173	22725
873.303	22717
873.432	22786
873.561	22847
873.69	22759
873.819	22755
873.948	22782
874.077	22721
874.206	22729
874.335	22736
874.464	22896
874.593	23018
874.722	23044
874.851	23064
874.979	23025
875.108	23098
875.237	23033
875.365	22740
875.494	22927
875.623	22923
875.751	22919
875.88	22980
876.008	23052
876.136	23200
876.265	23364
876.393	23490
876.521	23459
876.65	23444
876.778	23406
876.906	23463
877.034	23280
877.162	23303
877.29	23330
877.418	23296
877.546	23395
877.674	23368
877.802	23376
877.93	23337
878.058	23250
878.185	23147
878.313	23227
878.441	23330
878.568	23178
878.696	23242
878.824	23337
878.951	23391
879.079	23566
879.206	23630
879.333	23478
879.461	23452
879.588	23501
879.715	23421
879.842	23570
879.97	23368
880.097	23170
880.224	23189
880.351	23143
880.478	23280
880.605	23132
880.732	23090
880.859	23307
880.986	23143
881.112	23204
881.239	23022
881.366	22908
881.493	22850
881.619	22748
881.746	22706
881.872	22729
881.999	22702
882.125	22577
882.252	22725
882.378	22630
882.505	22725
882.631	22489
882.757	22432
882.883	22428
883.01	22413
883.136	22344
883.262	22238
883.388	22226
883.514	22478
883.64	22436
883.766	22188
883.892	22078
884.018	22109
884.143	22371
884.269	22481
884.395	22093
884.52	21953
884.646	22048
884.772	22006
884.897	21937
885.023	22067
885.148	22188
885.274	22044
885.399	22082
885.524	22090
885.65	22070
885.775	21884
885.9	21861
886.025	22074
886.15	22086
886.275	21915
886.4	21888
886.525	22044
886.65	21972
886.775	21793
886.9	22040
887.025	22226
887.149	21998
887.274	21857
887.399	21739
887.523	21762
887.648	21625
887.773	21648
887.897	21778
888.021	21899
888.146	21724
888.27	21857
888.395	21865
888.519	21888
888.643	21762
888.767	21945
888.891	21701
889.015	21515
889.139	21686
889.263	21534
889.387	21656
889.511	21759
889.635	21591
889.759	21450
889.883	21660
890.006	21572
890.13	21682
890.254	21428
890.377	21485
890.501	21329
890.624	21237
890.748	21363
890.871	21226
890.995	21047
891.118	21116
891.241	21192
891.364	21077
891.488	21123
891.611	21017
891.734	21104
891.857	21176
891.98	21017
892.103	21096
892.226	21013
892.349	21108
892.471	20948
892.594	20914
892.717	21074
892.839	20990
892.962	20967
893.085	21165
893.207	21081
893.33	20891
893.452	20963
893.575	20990
893.697	20895
893.819	21165
893.941	21116
894.064	21051
894.186	20944
894.308	20960
894.43	21062
894.552	21066
894.674	20967
894.796	20891
894.918	21024
895.04	20967
895.161	20994
895.283	21032
895.405	20876
895.526	20921
895.648	21051
895.769	20994
895.891	20895
896.012	21017
896.134	20998
896.255	20967
896.376	21001
896.498	21043
896.619	21093
896.74	20975
896.861	20956
896.982	21340
897.103	21439
897.224	21264
897.345	21199
897.466	21066
897.587	21154
897.708	21287
897.828	21252
897.949	21222
898.07	21104
898.19	21173
898.311	21272
898.431	21169
898.552	21108
898.672	21348
898.792	21298
898.913	21085
899.033	21085
899.153	21020
899.273	20834
899.393	20807
899.513	21024
899.633	20948
899.753	21020
899.873	20933
899.993	20876
900.113	20883
900.232	20963
900.352	20830
900.472	20678
900.591	20632
900.711	20727
900.83	20686
900.95	20815
901.069	20693
901.189	20613
901.308	20355
901.427	20199
901.546	20256
901.665	20324
901.784	20305
901.904	20187
902.023	20145
902.141	19871
902.26	19788
902.379	20005
902.498	19776
902.617	19731
902.735	19887
902.854	19864
902.973	19784
903.091	19506
903.21	19540
903.328	19308
903.446	19316
903.565	19308
903.683	19263
903.801	19221
903.919	19247
904.038	19217
904.156	19114
904.274	19118
904.392	19027
904.51	18958
904.627	18985
904.745	18985
904.863	19034
904.981	18791
905.098	18745
905.216	18681
905.334	18654
905.451	18639
905.569	18658
905.686	18707
905.803	18658
905.921	18525
906.038	18494
906.155	18414
906.272	18277
906.389	18296
906.506	18277
906.623	18270
906.74	18235
906.857	18095
906.974	18152
907.091	18304
907.208	18380
907.324	18228
907.441	18057
907.557	17908
907.674	17908
907.79	17859
907.907	17920
908.023	17999
908.139	17958
908.256	17767
908.372	17767
908.488	17824
908.604	17714
908.72	17615
908.836	17634
908.952	17665
909.068	17760
909.184	17668
909.3	17630
909.415	17703
909.531	17627
909.647	17414
909.762	17303
909.878	17258
909.993	17258
910.108	17322
910.224	17356
910.339	17204
910.454	17174
910.57	17143
910.685	17022
910.8	17417
910.915	17261
911.03	17075
911.145	16987
911.259	16850
911.374	16927
911.489	16820
911.604	16778
911.718	16596
911.833	16645
911.947	16637
912.062	16489
912.176	16687
912.291	16558
912.405	16599
912.519	16713
912.633	16828
912.748	16656
912.862	16637
912.976	16466
913.09	16337
913.204	16424
913.318	16409
913.431	16519
913.545	16489
913.659	16558
913.772	16344
913.886	16261
914	16215
914.113	16253
914.226	16310
914.34	16166
914.453	16173
914.566	16272
914.68	16143
914.793	16093
914.906	15956
915.019	15789
915.132	15816
915.245	15747
915.358	15869
915.47	15838
915.583	15762
915.696	15888
915.809	15892
915.921	15994
916.034	15816
916.146	15739
916.259	15739
916.371	15831
916.483	15671
916.595	15576
916.708	15580
916.82	15660
916.932	15557
917.044	15618
917.156	15656
917.268	15523
917.38	15584
917.491	15431
917.603	15397
917.715	15469
917.826	15515
917.938	15405
918.049	15135
918.161	15389
918.272	15481
918.384	15466
918.495	15408
918.606	15260
918.717	15112
918.828	15154
918.939	15252
919.05	15009
919.161	15226
919.272	14986
919.383	15017
919.494	15146
919.604	15393
919.715	15207
919.826	15032
919.936	15100
920.047	15241
920.157	15142
920.267	15443
920.378	15154
920.488	15150
920.598	15264
920.708	15397
920.818	15249
920.928	15283
921.038	15416
921.148	15306
921.258	15222
921.368	14982
921.477	14876
921.587	14868
921.697	14754
921.806	14762
921.916	14746
922.025	14598
922.134	14484
922.244	14511
922.353	14556
922.462	14332
922.571	14290
922.68	14149
922.789	14149
922.898	14111
923.007	14134
923.116	14126
923.224	14092
923.333	14077
923.442	14073
923.55	13963
923.659	14020
923.767	13993
923.876	13890
923.984	13959
924.092	13894
924.201	13902
924.309	13887
924.417	13913
924.525	13776
924.633	13826
924.741	14434
924.849	13578
924.956	13696
925.064	13609
925.172	13582
925.279	13563
925.387	13651
925.494	13674
925.602	13647
925.709	13666
925.816	13430
925.924	13422
926.031	13613
926.138	13487
926.245	13480
926.352	13384
926.459	13445
926.566	13616
926.673	13346
926.779	13190
926.886	13213
926.993	13168
927.099	13118
927.206	13065
927.312	13072
927.419	13118
927.525	13042
927.631	13099
927.737	12973
927.843	12924
927.95	12783
928.056	12943
928.162	12863
928.267	12878
928.373	13548
928.479	12966
928.585	12734
928.69	12878
928.796	12913
928.901	12734
929.007	12662
929.112	12768
929.218	12711
929.323	12639
929.428	12612
929.533	12764
929.638	12502
929.743	12540
929.848	12646
929.953	12509
930.058	12433
930.163	12258
930.267	12330
930.372	12467
930.477	12247
930.581	12509
930.685	12327
930.79	12171
930.894	12216
930.998	12178
931.103	12311
931.207	11878
931.311	11798
931.415	11775
931.519	11551
931.623	11551
