Data from test_V78500241_3575.txt Node
Date: Fri Mar 25 16:06:34 CST 2022
User: usil
Spectrometer: V785-0024
Trigger mode: 0
Integration Time (sec): 4.000000E-1
Scans to average: 1
Nonlinearity correction enabled: false
Boxcar width: 0
Storing dark spectrum: false
XAxis mode: Wavelengths
Number of Pixels in Spectrum: 1024
>>>>>Begin Spectral Data<<<<<
801.071	28873
801.214	28763
801.356	28588
801.499	28413
801.641	28310
801.783	28409
801.926	28363
802.068	28337
802.211	28493
802.353	28226
802.496	28162
802.638	28101
802.78	27945
802.923	28044
803.065	27895
803.208	27991
803.35	28154
803.492	28333
803.635	28390
803.777	28131
803.919	28322
804.061	28615
804.204	28379
804.346	28322
804.488	28147
804.63	28360
804.773	28287
804.915	28352
805.057	28485
805.199	28386
805.341	28291
805.483	28348
805.626	28637
805.768	28367
805.91	28580
806.052	28478
806.194	28417
806.336	28645
806.478	28470
806.62	28447
806.762	28710
806.904	28710
807.046	28919
807.188	28919
807.33	28873
807.472	29174
807.614	28946
807.756	28904
807.898	28782
808.04	28767
808.182	28634
808.324	28763
808.465	28698
808.607	29121
808.749	29124
808.891	29280
809.033	29185
809.174	29254
809.316	29258
809.458	29227
809.6	29102
809.741	29322
809.883	29345
810.025	29604
810.166	29406
810.308	29497
810.45	29299
810.591	29414
810.733	29231
810.875	29136
811.016	29227
811.158	29269
811.299	29322
811.441	29307
811.582	29326
811.724	29166
811.865	29254
812.007	29090
812.148	29185
812.29	29273
812.431	29322
812.573	29589
812.714	29558
812.855	29817
812.997	29828
813.138	30018
813.279	29969
813.421	29748
813.562	29585
813.703	29661
813.845	29375
813.986	29155
814.127	29014
814.268	29044
814.41	28938
814.551	28801
814.692	28984
814.833	28892
814.974	28862
815.115	28976
815.256	28774
815.397	28782
815.539	28736
815.68	28805
815.821	28774
815.962	28820
816.103	28736
816.244	28580
816.385	28459
816.526	28455
816.666	28409
816.807	28177
816.948	28268
817.089	28265
817.23	28253
817.371	28196
817.512	28188
817.653	28040
817.793	28249
817.934	28238
818.075	28265
818.216	28211
818.356	28166
818.497	27987
818.638	27953
818.778	27842
818.919	28036
819.06	28078
819.2	28223
819.341	28268
819.481	28226
819.622	28470
819.762	28641
819.903	28516
820.043	28500
820.184	28337
820.324	28382
820.465	28356
820.605	28375
820.746	28352
820.886	28169
821.026	28379
821.167	28398
821.307	28398
821.447	28272
821.588	28200
821.728	28006
821.868	27774
822.008	27739
822.149	27652
822.289	27637
822.429	27408
822.569	27340
822.709	27447
822.849	27260
822.99	27218
823.13	27161
823.27	27203
823.41	27039
823.55	26975
823.69	26956
823.83	27028
823.97	26982
824.11	26857
824.25	26796
824.389	26842
824.529	27017
824.669	26785
824.809	27028
824.949	26963
825.089	26933
825.228	26838
825.368	26674
825.508	26785
825.648	26796
825.787	26750
825.927	26868
826.067	26819
826.206	26727
826.346	26765
826.485	26712
826.625	26617
826.765	26914
826.904	26902
827.044	26613
827.183	26514
827.323	26389
827.462	26587
827.601	26526
827.741	26526
827.88	26545
828.02	26339
828.159	26427
828.298	26495
828.437	26621
828.577	26568
828.716	26583
828.855	26362
828.994	26271
829.134	26153
829.273	26164
829.412	26362
829.551	26088
829.69	26126
829.829	26206
829.968	26157
830.107	26298
830.246	26210
830.385	26130
830.524	26062
830.663	26027
830.802	25928
830.941	25784
831.08	25830
831.219	25913
831.357	25917
831.496	25936
831.635	25780
831.774	25685
831.913	25807
832.051	25537
832.19	25567
832.329	25590
832.467	25419
832.606	25422
832.744	25346
832.883	25335
833.022	25400
833.16	25495
833.299	25445
833.437	25362
833.576	25472
833.714	25438
833.852	25499
833.991	25715
834.129	25597
834.267	25537
834.406	25559
834.544	25483
834.682	25438
834.821	25525
834.959	25635
835.097	25525
835.235	25537
835.373	25563
835.511	25468
835.65	25384
835.788	25285
835.926	25217
836.064	25171
836.202	25244
836.34	25225
836.478	25232
836.615	25316
836.753	25221
836.891	25354
837.029	25369
837.167	25324
837.305	25255
837.443	25316
837.58	25023
837.718	25369
837.856	25152
837.993	25148
838.131	25088
838.269	25023
838.406	25057
838.544	25034
838.681	24753
838.819	24791
838.956	24585
839.094	24570
839.231	24715
839.369	25031
839.506	24985
839.643	24825
839.781	24521
839.918	24483
840.055	24726
840.193	24642
840.33	24620
840.467	24597
840.604	24601
840.742	24844
840.879	24418
841.016	24452
841.153	24300
841.29	24483
841.427	24395
841.564	24490
841.701	24494
841.838	24437
841.975	24330
842.112	24426
842.249	24464
842.385	24334
842.522	24555
842.659	24327
842.796	24338
842.933	24304
843.069	24133
843.206	24201
843.343	24330
843.479	24239
843.616	24308
843.752	24068
843.889	23965
844.025	24068
844.162	24026
844.298	24228
844.435	24045
844.571	23969
844.708	24091
844.844	24251
844.98	24205
845.117	24091
845.253	23920
845.389	24018
845.525	23999
845.661	23878
845.798	23855
845.934	23779
846.07	23771
846.206	23824
846.342	23980
846.478	23668
846.614	23501
846.75	23512
846.886	23379
847.022	23585
847.158	23505
847.294	23558
847.429	23448
847.565	23436
847.701	23729
847.837	23280
847.972	23193
848.108	23322
848.244	23334
848.379	23147
848.515	23170
848.65	23079
848.786	23075
848.921	22984
849.057	23151
849.192	23170
849.328	23056
849.463	23124
849.598	23109
849.734	22972
849.869	22927
850.004	22877
850.14	22828
850.275	22793
850.41	22797
850.545	22809
850.68	22801
850.815	22900
850.95	22858
851.085	23037
851.22	23025
851.355	22930
851.49	22858
851.625	22809
851.76	22809
851.895	22831
852.03	22748
852.165	22824
852.299	22961
852.434	22873
852.569	22892
852.703	22961
852.838	22919
852.973	23003
853.107	22949
853.242	22702
853.376	22755
853.511	22538
853.645	22759
853.78	22748
853.914	22733
854.048	22812
854.183	22656
854.317	22687
854.451	22896
854.585	22702
854.72	22599
854.854	22713
854.988	22622
855.122	22637
855.256	22535
855.39	22660
855.524	22820
855.658	22691
855.792	22717
855.926	22675
856.06	22725
856.194	22725
856.327	22755
856.461	22664
856.595	22599
856.729	22649
856.862	22664
856.996	22733
857.13	22729
857.263	22831
857.397	22679
857.53	22649
857.664	22828
857.797	22854
857.931	22934
858.064	22630
858.197	22824
858.331	22675
858.464	22607
858.597	22660
858.731	22778
858.864	22569
858.997	22641
859.13	22679
859.263	22656
859.396	22793
859.529	22660
859.662	22584
859.795	22622
859.928	22839
860.061	22801
860.194	22873
860.327	22679
860.46	22649
860.592	22744
860.725	22854
860.858	22687
860.99	22702
861.123	22634
861.256	22653
861.388	22649
861.521	23505
861.653	22618
861.786	22421
861.918	22451
862.05	22615
862.183	22702
862.315	22645
862.447	22618
862.58	22577
862.712	22443
862.844	22371
862.976	22519
863.108	22554
863.24	22942
863.372	22310
863.504	22432
863.636	22379
863.768	22451
863.9	22428
864.032	22303
864.164	22344
864.296	22405
864.428	22497
864.559	22413
864.691	22565
864.823	22402
864.954	22333
865.086	22200
865.217	22230
865.349	22154
865.48	22268
865.612	22371
865.743	22333
865.875	22268
866.006	22253
866.137	22261
866.269	22185
866.4	22166
866.531	22166
866.662	22158
866.793	22192
866.924	22337
867.055	22169
867.186	22169
867.317	22215
867.448	22002
867.579	22025
867.71	22226
867.841	22207
867.972	22143
868.103	22097
868.233	22242
868.364	22116
868.495	22325
868.625	22371
868.756	22436
868.886	22375
869.017	22352
869.147	22592
869.278	22664
869.408	22443
869.539	22443
869.669	22531
869.799	22409
869.929	22641
870.06	22565
870.19	22717
870.32	22748
870.45	22706
870.58	22698
870.71	22828
870.84	22752
870.97	22828
871.1	22698
871.23	22984
871.36	22919
871.489	22862
871.619	23018
871.749	22980
871.879	23083
872.008	23136
872.138	23006
872.267	22934
872.397	22934
872.526	22854
872.656	22869
872.785	22847
872.915	23128
873.044	23162
873.173	23147
873.303	22999
873.432	23018
873.561	23075
873.69	23117
873.819	23044
873.948	23235
874.077	23014
874.206	22991
874.335	22949
874.464	23258
874.593	23208
874.722	23193
874.851	23299
874.979	23151
875.108	23372
875.237	23204
875.365	23090
875.494	23197
875.623	23455
875.751	23166
875.88	23315
876.008	23376
876.136	23455
876.265	23687
876.393	23767
876.521	23665
876.65	23764
876.778	23649
876.906	23493
877.034	23638
877.162	23581
877.29	23600
877.418	23627
877.546	23623
877.674	23718
877.802	23596
877.93	23573
878.058	23581
878.185	23364
878.313	23531
878.441	23668
878.568	23337
878.696	23474
878.824	23676
878.951	23649
879.079	23786
879.206	23950
879.333	23828
879.461	23745
879.588	23630
879.715	23855
879.842	23805
879.97	23805
880.097	23429
880.224	23356
880.351	23402
880.478	23452
880.605	23349
880.732	23421
880.859	23714
880.986	23425
881.112	23497
881.239	23220
881.366	23071
881.493	23109
881.619	23083
881.746	23090
881.872	22942
881.999	22991
882.125	22908
882.252	23022
882.378	22953
882.505	23033
882.631	22869
882.757	22649
882.883	22672
883.01	22668
883.136	22603
883.262	22512
883.388	22535
883.514	22752
883.64	22698
883.766	22573
883.892	22402
884.018	22424
884.143	22679
884.269	22702
884.395	22352
884.52	22272
884.646	22352
884.772	22272
884.897	22143
885.023	22348
885.148	22337
885.274	22451
885.399	22341
885.524	22348
885.65	22234
885.775	22329
885.9	22318
886.025	22352
886.15	22246
886.275	22265
886.4	22276
886.525	22230
886.65	22124
886.775	22211
886.9	22204
887.025	22424
887.149	22200
887.274	22097
887.399	22101
887.523	21983
887.648	22021
887.773	21964
887.897	22109
888.021	22070
888.146	21979
888.27	22070
888.395	22124
888.519	21899
888.643	21998
888.767	22032
888.891	21869
889.015	21797
889.139	21918
889.263	21838
889.387	21960
889.511	21998
889.635	21945
889.759	21743
889.883	21857
890.006	21755
890.13	21903
890.254	21785
890.377	21766
890.501	21561
890.624	21610
890.748	21694
890.871	21492
890.995	21405
891.118	21325
891.241	21302
891.364	21431
891.488	21500
891.611	21393
891.734	21268
891.857	21173
891.98	21348
892.103	21420
892.226	21245
892.349	21374
892.471	21138
892.594	21272
892.717	21291
892.839	21154
892.962	21249
893.085	21420
893.207	21199
893.33	21176
893.452	21127
893.575	21264
893.697	21237
893.819	21378
893.941	21408
894.064	21450
894.186	21252
894.308	21214
894.43	21252
894.552	21378
894.674	21226
894.796	21100
894.918	21283
895.04	21230
895.161	21359
895.283	21135
895.405	21218
895.526	21249
895.648	21157
895.769	21135
895.891	21264
896.012	21249
896.134	21332
896.255	21195
896.376	21195
896.498	21256
896.619	21218
896.74	21249
896.861	21218
896.982	21439
897.103	21618
897.224	21458
897.345	21447
897.466	21313
897.587	21511
897.708	21492
897.828	21428
897.949	21351
898.07	21180
898.19	21363
898.311	21568
898.431	21370
898.552	21511
898.672	21424
898.792	21614
898.913	21473
899.033	21302
899.153	21252
899.273	21100
899.393	21135
899.513	21180
899.633	21207
899.753	21131
899.873	21119
899.993	21077
900.113	20994
900.232	21192
900.352	21089
900.472	20792
900.591	20921
900.711	20918
900.83	20887
900.95	21005
901.069	20941
901.189	20891
901.308	20708
901.427	20613
901.546	20469
901.665	20431
901.784	20499
901.904	20328
902.023	20210
902.141	20046
902.26	20043
902.379	20054
902.498	20073
902.617	19997
902.735	20096
902.854	19909
902.973	19833
903.091	19628
903.21	19605
903.328	19620
903.446	19567
903.565	19464
903.683	19502
903.801	19240
903.919	19400
904.038	19407
904.156	19244
904.274	19251
904.392	19232
904.51	19152
904.627	19076
904.745	19114
904.863	19168
904.981	19099
905.098	18954
905.216	18859
905.334	18993
905.451	18844
905.569	18768
905.686	18837
905.803	18867
905.921	18597
906.038	18669
906.155	18715
906.272	18563
906.389	18563
906.506	18418
906.623	18372
906.74	18319
906.857	18311
906.974	18273
907.091	18467
907.208	18509
907.324	18426
907.441	18277
907.557	18133
907.674	18125
907.79	18026
907.907	18034
908.023	18144
908.139	18174
908.256	18114
908.372	17927
908.488	17965
908.604	17726
908.72	17786
908.836	17836
908.952	17851
909.068	17908
909.184	17950
909.3	17817
909.415	17817
909.531	17809
909.647	17665
909.762	17604
909.878	17532
909.993	17467
910.108	17501
910.224	17444
910.339	17444
910.454	17254
910.57	17296
910.685	17124
910.8	17535
910.915	17493
911.03	17326
911.145	17124
911.259	17113
911.374	17132
911.489	17071
911.604	16923
911.718	16786
911.833	16755
911.947	16729
912.062	16653
912.176	16706
912.291	16790
912.405	16942
912.519	16961
912.633	17071
912.748	16976
912.862	16835
912.976	16668
913.09	16653
913.204	16679
913.318	16615
913.431	16645
913.545	16694
913.659	16801
913.772	16497
913.886	16398
914	16462
914.113	16489
914.226	16447
914.34	16440
914.453	16341
914.566	16287
914.68	16371
914.793	16306
914.906	16124
915.019	16036
915.132	15975
915.245	15899
915.358	16124
915.47	16048
915.583	15972
915.696	15994
915.809	16078
915.921	16120
916.034	15972
916.146	15884
916.259	15838
916.371	15895
916.483	15922
916.595	15816
916.708	15781
916.82	15819
916.932	15804
917.044	15766
917.156	15701
917.268	15603
917.38	15663
917.491	15679
917.603	15587
917.715	15675
917.826	15739
917.938	15557
918.049	15447
918.161	15614
918.272	15709
918.384	15580
918.495	15526
918.606	15477
918.717	15329
918.828	15332
918.939	15428
919.05	15233
919.161	15287
919.272	15154
919.383	15100
919.494	15260
919.604	15485
919.715	15420
919.826	15207
919.936	15291
920.047	15401
920.157	15260
920.267	15435
920.378	15272
920.488	15256
920.598	15576
920.708	15610
920.818	15374
920.928	15488
921.038	15542
921.148	15458
921.258	15287
921.368	15165
921.477	15009
921.587	15005
921.697	14910
921.806	15085
921.916	14800
922.025	14739
922.134	14613
922.244	14587
922.353	14655
922.462	14541
922.571	14423
922.68	14324
922.789	14362
922.898	14313
923.007	14263
923.116	14343
923.224	14313
923.333	14298
923.442	14103
923.55	14103
923.659	14126
923.767	14111
923.876	14138
923.984	14084
924.092	13947
924.201	13997
924.309	14062
924.417	13993
924.525	13913
924.633	13902
924.741	14853
924.849	13818
924.956	13818
925.064	13712
925.172	13556
925.279	13616
925.387	13757
925.494	13765
925.602	13734
925.709	13685
925.816	13601
925.924	13590
926.031	13731
926.138	13636
926.245	13567
926.352	13495
926.459	13616
926.566	13620
926.673	13537
926.779	13510
926.886	13403
926.993	13346
927.099	13335
927.206	13072
927.312	13171
927.419	13297
927.525	13232
927.631	13137
927.737	13053
927.843	13034
927.95	12916
928.056	13000
928.162	12939
928.267	13065
928.373	13727
928.479	13061
928.585	12798
928.69	12993
928.796	13023
928.901	12833
929.007	12692
929.112	12894
929.218	12844
929.323	12787
929.428	12734
929.533	12882
929.638	12688
929.743	12734
929.848	12772
929.953	12654
930.058	12464
930.163	12372
930.267	12357
930.372	12460
930.477	12456
930.581	12608
930.685	12452
930.79	12270
930.894	12182
930.998	12213
931.103	12388
931.207	12087
931.311	11897
931.415	11809
931.519	11665
931.623	11596
