Data from test_V78500241_790.txt Node
Date: Fri Mar 25 15:47:16 CST 2022
User: usil
Spectrometer: V785-0024
Trigger mode: 0
Integration Time (sec): 4.000000E-1
Scans to average: 1
Nonlinearity correction enabled: false
Boxcar width: 0
Storing dark spectrum: false
XAxis mode: Wavelengths
Number of Pixels in Spectrum: 1024
>>>>>Begin Spectral Data<<<<<
801.071	27466
801.214	27496
801.356	27184
801.499	27005
801.641	27001
801.783	27077
801.926	27001
802.068	26975
802.211	27009
802.353	26800
802.496	26609
802.638	26537
802.78	26511
802.923	26609
803.065	26556
803.208	26590
803.35	26571
803.492	26686
803.635	26735
803.777	26758
803.919	26864
804.061	27070
804.204	26785
804.346	26807
804.488	26621
804.63	26602
804.773	26693
804.915	26914
805.057	26834
805.199	26845
805.341	26883
805.483	26914
805.626	26830
805.768	26845
805.91	26792
806.052	26967
806.194	26849
806.336	27005
806.478	27017
806.62	26883
806.762	27062
806.904	27154
807.046	27412
807.188	27332
807.33	27207
807.472	27374
807.614	27237
807.756	27283
807.898	27142
808.04	27218
808.182	27222
808.324	27226
808.465	27188
808.607	27488
808.749	27515
808.891	27644
809.033	27625
809.174	27523
809.316	27606
809.458	27534
809.6	27466
809.741	27591
809.883	27671
810.025	27937
810.166	27789
810.308	27812
810.45	27781
810.591	27694
810.733	27610
810.875	27435
811.016	27473
811.158	27519
811.299	27599
811.441	27781
811.582	27766
811.724	27637
811.865	27504
812.007	27511
812.148	27618
812.29	27633
812.431	27595
812.573	27747
812.714	27873
812.855	28029
812.997	28105
813.138	28177
813.279	28223
813.421	28135
813.562	28017
813.703	27945
813.845	27709
813.986	27481
814.127	27363
814.268	27184
814.41	27306
814.551	27138
814.692	27329
814.833	27157
814.974	27085
815.115	27146
815.256	27096
815.397	27020
815.539	27039
815.68	26944
815.821	26910
815.962	27055
816.103	26883
816.244	26781
816.385	26788
816.526	26697
816.666	26613
816.807	26579
816.948	26682
817.089	26541
817.23	26670
817.371	26412
817.512	26336
817.653	26507
817.793	26358
817.934	26571
818.075	26522
818.216	26366
818.356	26450
818.497	26343
818.638	26362
818.778	26271
818.919	26286
819.06	26339
819.2	26301
819.341	26457
819.481	26396
819.622	26636
819.762	26929
819.903	26648
820.043	26644
820.184	26629
820.324	26606
820.465	26743
820.605	26678
820.746	26511
820.886	26480
821.026	26450
821.167	26301
821.307	26697
821.447	26518
821.588	26453
821.728	26374
821.868	26092
822.008	25986
822.149	25906
822.289	25913
822.429	25723
822.569	25613
822.709	25674
822.849	25445
822.99	25381
823.13	25407
823.27	25407
823.41	25282
823.55	25171
823.69	25194
823.83	25289
823.97	25293
824.11	25129
824.25	24973
824.389	25164
824.529	25137
824.669	25148
824.809	25293
824.949	25217
825.089	25221
825.228	25084
825.368	24973
825.508	24848
825.648	25004
825.787	25042
825.927	25103
826.067	24840
826.206	24894
826.346	25076
826.485	25031
826.625	24913
826.765	25156
826.904	24943
827.044	24722
827.183	24661
827.323	24673
827.462	24673
827.601	24734
827.741	24578
827.88	24745
828.02	24593
828.159	24684
828.298	24650
828.437	24741
828.577	24604
828.716	24806
828.855	24574
828.994	24418
829.134	24555
829.273	24319
829.412	24289
829.551	24388
829.69	24350
829.829	24369
829.968	24441
830.107	24403
830.246	24350
830.385	24190
830.524	24311
830.663	24163
830.802	24079
830.941	24041
831.08	23954
831.219	24026
831.357	23999
831.496	24194
831.635	24003
831.774	23946
831.913	23912
832.051	23710
832.19	23790
832.329	23767
832.467	23520
832.606	23619
832.744	23627
832.883	23619
833.022	23577
833.16	23642
833.299	23649
833.437	23589
833.576	23809
833.714	23794
833.852	23684
833.991	23665
834.129	23851
834.267	23779
834.406	23771
834.544	23718
834.682	23676
834.821	23661
834.959	23897
835.097	23649
835.235	23745
835.373	23558
835.511	23649
835.65	23600
835.788	23448
835.926	23474
836.064	23395
836.202	23455
836.34	23573
836.478	23623
836.615	23505
836.753	23638
836.891	23528
837.029	23649
837.167	23531
837.305	23459
837.443	23376
837.58	23318
837.718	23600
837.856	23448
837.993	23410
838.131	23303
838.269	23311
838.406	23261
838.544	23174
838.681	22957
838.819	23014
838.956	22961
839.094	22854
839.231	22812
839.369	23029
839.506	23303
839.643	23033
839.781	22850
839.918	22774
840.055	22904
840.193	22763
840.33	22793
840.467	22782
840.604	22816
840.742	22934
840.879	22691
841.016	22778
841.153	22683
841.29	22801
841.427	22748
841.564	22786
841.701	22717
841.838	22790
841.975	22729
842.112	22702
842.249	22546
842.385	22573
842.522	22793
842.659	22672
842.796	22573
842.933	22531
843.069	22489
843.206	22489
843.343	22615
843.479	22618
843.616	22394
843.752	22417
843.889	22348
844.025	22348
844.162	22413
844.298	22443
844.435	22428
844.571	22303
844.708	22398
844.844	22306
844.98	22436
845.117	22413
845.253	22120
845.389	22032
845.525	22120
845.661	22120
845.798	22036
845.934	22105
846.07	21983
846.206	22090
846.342	22192
846.478	22013
846.614	21964
846.75	21724
846.886	21804
847.022	21838
847.158	21884
847.294	21766
847.429	21861
847.565	21800
847.701	21926
847.837	21549
847.972	21321
848.108	21625
848.244	21618
848.379	21374
848.515	21313
848.65	21344
848.786	21439
848.921	21351
849.057	21329
849.192	21466
849.328	21412
849.463	21420
849.598	21428
849.734	21279
849.869	21214
850.004	21150
850.14	21245
850.275	21119
850.41	21074
850.545	20998
850.68	21005
850.815	21146
850.95	21161
851.085	21332
851.22	21184
851.355	21203
851.49	21005
851.625	21020
851.76	21024
851.895	21131
852.03	21066
852.165	21055
852.299	21157
852.434	21241
852.569	21188
852.703	21013
852.838	21313
852.973	21127
853.107	21325
853.242	21024
853.376	20914
853.511	20781
853.645	20986
853.78	21089
853.914	20937
854.048	20948
854.183	20925
854.317	21058
854.451	21070
854.585	20826
854.72	20868
854.854	21119
854.988	20857
855.122	20838
855.256	20781
855.39	20864
855.524	21013
855.658	20933
855.792	21020
855.926	20891
856.06	21028
856.194	20979
856.327	20902
856.461	20872
856.595	20819
856.729	20918
856.862	21123
856.996	21036
857.13	20956
857.263	21077
857.397	21036
857.53	20868
857.664	20944
857.797	21066
857.931	21154
858.064	20956
858.197	21058
858.331	20944
858.464	20921
858.597	20739
858.731	20952
858.864	20883
858.997	20910
859.13	20887
859.263	20998
859.396	21043
859.529	20845
859.662	20921
859.795	20826
859.928	20937
860.061	21017
860.194	21135
860.327	20990
860.46	20971
860.592	21005
860.725	21150
860.858	21123
860.99	20948
861.123	20899
861.256	20838
861.388	21047
861.521	21587
861.653	20895
861.786	20689
861.918	20796
862.05	20727
862.183	21024
862.315	21009
862.447	21058
862.58	20834
862.712	20667
862.844	20750
862.976	20731
863.108	20739
863.24	21188
863.372	20556
863.504	20556
863.636	20644
863.768	20659
863.9	20632
864.032	20629
864.164	20629
864.296	20807
864.428	20899
864.559	20785
864.691	20823
864.823	20686
864.954	20750
865.086	20629
865.217	20518
865.349	20583
865.48	20530
865.612	20594
865.743	20777
865.875	20594
866.006	20514
866.137	20602
866.269	20438
866.4	20511
866.531	20434
866.662	20469
866.793	20541
866.924	20530
867.055	20533
867.186	20450
867.317	20492
867.448	20370
867.579	20412
867.71	20370
867.841	20450
867.972	20442
868.103	20427
868.233	20537
868.364	20347
868.495	20686
868.625	20781
868.756	20823
868.886	20606
869.017	20708
869.147	20838
869.278	20876
869.408	20735
869.539	20632
869.669	20781
869.799	20804
869.929	20902
870.06	20861
870.19	21047
870.32	21077
870.45	20982
870.58	21154
870.71	21230
870.84	21222
870.97	21264
871.1	21096
871.23	21252
871.36	21256
871.489	21127
871.619	21370
871.749	21393
871.879	21431
872.008	21336
872.138	21370
872.267	21378
872.397	21241
872.526	21176
872.656	21218
872.785	21081
872.915	21488
873.044	21397
873.173	21466
873.303	21504
873.432	21336
873.561	21515
873.69	21313
873.819	21332
873.948	21336
874.077	21359
874.206	21386
874.335	21367
874.464	21523
874.593	21633
874.722	21572
874.851	21675
874.979	21595
875.108	21576
875.237	21542
875.365	21466
875.494	21583
875.623	21679
875.751	21545
875.88	21553
876.008	21583
876.136	21774
876.265	22025
876.393	22090
876.521	21987
876.65	22101
876.778	21979
876.906	22013
877.034	21945
877.162	21945
877.29	21915
877.418	21892
877.546	21991
877.674	21956
877.802	21941
877.93	21983
878.058	21880
878.185	21831
878.313	21964
878.441	21937
878.568	21781
878.696	21865
878.824	21956
878.951	21911
879.079	22219
879.206	22265
879.333	22036
879.461	21972
879.588	22040
879.715	22177
879.842	22200
879.97	22059
880.097	21743
880.224	21781
880.351	21770
880.478	21694
880.605	21755
880.732	21698
880.859	21956
880.986	21888
881.112	21732
881.239	21679
881.366	21511
881.493	21469
881.619	21348
881.746	21488
881.872	21310
881.999	21382
882.125	21351
882.252	21424
882.378	21317
882.505	21424
882.631	21161
882.757	21184
882.883	21165
883.01	21116
883.136	21001
883.262	20883
883.388	20921
883.514	21150
883.64	21074
883.766	20918
883.892	20785
884.018	20914
884.143	20918
884.269	21112
884.395	20693
884.52	20545
884.646	20769
884.772	20686
884.897	20533
885.023	20731
885.148	20842
885.274	20765
885.399	20754
885.524	20762
885.65	20663
885.775	20815
885.9	20670
886.025	20724
886.15	20712
886.275	20632
886.4	20621
886.525	20640
886.65	20670
886.775	20549
886.9	20819
887.025	20929
887.149	20659
887.274	20571
887.399	20374
887.523	20537
887.648	20476
887.773	20396
887.897	20522
888.021	20587
888.146	20377
888.27	20503
888.395	20590
888.519	20556
888.643	20465
888.767	20454
888.891	20423
889.015	20233
889.139	20396
889.263	20206
889.387	20290
889.511	20446
889.635	20423
889.759	20244
889.883	20248
890.006	20317
890.13	20317
890.254	20161
890.377	20164
890.501	20005
890.624	20020
890.748	20119
890.871	19970
890.995	19830
891.118	19689
891.241	19833
891.364	19898
891.488	20050
891.611	19757
891.734	19849
891.857	19833
891.98	19757
892.103	19826
892.226	19807
892.349	19913
892.471	19685
892.594	19750
892.717	19841
892.839	19704
892.962	19765
893.085	19780
893.207	19864
893.33	19571
893.452	19666
893.575	19852
893.697	19670
893.819	19864
893.941	19860
894.064	19959
894.186	19670
894.308	19776
894.43	19776
894.552	19887
894.674	19894
894.796	19609
894.918	19693
895.04	19738
895.161	19837
895.283	19826
895.405	19826
895.526	19852
895.648	19780
895.769	19742
895.891	19795
896.012	19894
896.134	19849
896.255	19769
896.376	19761
896.498	19826
896.619	19868
896.74	19803
896.861	19799
896.982	19974
897.103	20263
897.224	20168
897.345	19955
897.466	19913
897.587	19913
897.708	20065
897.828	19967
897.949	19818
898.07	19757
898.19	19871
898.311	20077
898.431	19887
898.552	19894
898.672	20027
898.792	20103
898.913	19875
899.033	19936
899.153	19852
899.273	19670
899.393	19811
899.513	19814
899.633	19734
899.753	19803
899.873	19632
899.993	19803
900.113	19582
900.232	19746
900.352	19651
900.472	19715
900.591	19392
900.711	19556
900.83	19365
900.95	19533
901.069	19658
901.189	19502
901.308	19377
901.427	18993
901.546	19156
901.665	19206
901.784	19228
901.904	19061
902.023	19099
902.141	18707
902.26	18730
902.379	18760
902.498	18650
902.617	18635
902.735	18627
902.854	18601
902.973	18471
903.091	18353
903.21	18353
903.328	18296
903.446	18140
903.565	18159
903.683	18239
903.801	18049
903.919	18095
904.038	18106
904.156	17874
904.274	17920
904.392	17950
904.51	17901
904.627	17859
904.745	17882
904.863	17950
904.981	17657
905.098	17532
905.216	17592
905.334	17623
905.451	17554
905.569	17520
905.686	17661
905.803	17509
905.921	17387
906.038	17387
906.155	17341
906.272	17269
906.389	17223
906.506	17162
906.623	17064
906.74	17121
906.857	16953
906.974	17052
907.091	17216
907.208	17277
907.324	17147
907.441	16919
907.557	16839
907.674	16923
907.79	16793
907.907	16835
908.023	16866
908.139	16869
908.256	16767
908.372	16759
908.488	16656
908.604	16497
908.72	16497
908.836	16584
908.952	16493
909.068	16584
909.184	16653
909.3	16485
909.415	16580
909.531	16519
909.647	16211
909.762	16253
909.878	16211
909.993	16185
910.108	16204
910.224	16272
910.339	16204
910.454	16196
910.57	16006
910.685	15979
910.8	16265
910.915	16242
911.03	16063
911.145	15835
911.259	15804
911.374	15827
911.489	15759
911.604	15755
911.718	15530
911.833	15671
911.947	15534
912.062	15416
912.176	15572
912.291	15667
912.405	15652
912.519	15751
912.633	15724
912.748	15671
912.862	15641
912.976	15424
913.09	15233
913.204	15340
913.318	15466
913.431	15511
913.545	15511
913.659	15412
913.772	15340
913.886	15317
914	15100
914.113	15241
914.226	15336
914.34	15268
914.453	15089
914.566	15275
914.68	15173
914.793	15093
914.906	14883
915.019	14864
915.132	14834
915.245	14872
915.358	14853
915.47	14720
915.583	14849
915.696	14838
915.809	15070
915.921	14929
916.034	14670
916.146	14674
916.259	14739
916.371	14857
916.483	14830
916.595	14663
916.708	14670
916.82	14689
916.932	14621
917.044	14674
917.156	14644
917.268	14480
917.38	14522
917.491	14400
917.603	14518
917.715	14552
917.826	14568
917.938	14408
918.049	14396
918.161	14446
918.272	14693
918.384	14625
918.495	14427
918.606	14263
918.717	14252
918.828	14385
918.939	14301
919.05	14210
919.161	14187
919.272	14054
919.383	14081
919.494	14237
919.604	14408
919.715	14252
919.826	14191
919.936	14214
920.047	14336
920.157	14282
920.267	14415
920.378	14233
920.488	14180
920.598	14511
920.708	14495
920.818	14332
920.928	14339
921.038	14514
921.148	14450
921.258	14176
921.368	14058
921.477	14005
921.587	13936
921.697	13852
921.806	13898
921.916	13814
922.025	13719
922.134	13693
922.244	13506
922.353	13643
922.462	13472
922.571	13510
922.68	13297
922.789	13297
922.898	13346
923.007	13270
923.116	13335
923.224	13312
923.333	13301
923.442	13145
923.55	13042
923.659	13088
923.767	13110
923.876	13053
923.984	13145
924.092	13031
924.201	13000
924.309	13050
924.417	13008
924.525	12886
924.633	12871
924.741	13890
924.849	12795
924.956	12802
925.064	12692
925.172	12616
925.279	12703
925.387	12635
925.494	12730
925.602	12844
925.709	12856
925.816	12650
925.924	12631
926.031	12738
926.138	12620
926.245	12726
926.352	12570
926.459	12787
926.566	12741
926.673	12559
926.779	12414
926.886	12460
926.993	12334
927.099	12277
927.206	12296
927.312	12277
927.419	12365
927.525	12251
927.631	12277
927.737	12228
927.843	12201
927.95	12064
928.056	12072
928.162	12114
928.267	12136
928.373	12768
928.479	12216
928.585	11935
928.69	12049
928.796	12045
928.901	11878
929.007	11840
929.112	12003
929.218	11866
929.323	11817
929.428	11805
929.533	11939
929.638	11756
929.743	11798
929.848	11779
929.953	11809
930.058	11691
930.163	11532
930.267	11596
930.372	11703
930.477	11512
930.581	11684
930.685	11573
930.79	11467
930.894	11436
930.998	11387
931.103	11646
931.207	11155
931.311	11067
931.415	11064
931.519	10869
931.623	10809
