Data from test_V78500241_1622.txt Node
Date: Fri Mar 25 15:53:02 CST 2022
User: usil
Spectrometer: V785-0024
Trigger mode: 0
Integration Time (sec): 4.000000E-1
Scans to average: 1
Nonlinearity correction enabled: false
Boxcar width: 0
Storing dark spectrum: false
XAxis mode: Wavelengths
Number of Pixels in Spectrum: 1024
>>>>>Begin Spectral Data<<<<<
801.071	28234
801.214	28097
801.356	27972
801.499	27759
801.641	27903
801.783	27823
801.926	27869
802.068	27873
802.211	27808
802.353	27641
802.496	27656
802.638	27408
802.78	27431
802.923	27431
803.065	27427
803.208	27439
803.35	27481
803.492	27629
803.635	27660
803.777	27515
803.919	27701
804.061	27835
804.204	27728
804.346	27663
804.488	27603
804.63	27629
804.773	27542
804.915	27709
805.057	27876
805.199	27641
805.341	27743
805.483	27732
805.626	27857
805.768	27633
805.91	27816
806.052	27953
806.194	27709
806.336	28082
806.478	27724
806.62	27800
806.762	28010
806.904	28074
807.046	28310
807.188	28284
807.33	28124
807.472	28398
807.614	28207
807.756	28177
807.898	28109
808.04	28074
808.182	28131
808.324	28131
808.465	28051
808.607	28310
808.749	28417
808.891	28538
809.033	28767
809.174	28516
809.316	28436
809.458	28428
809.6	28443
809.741	28554
809.883	28713
810.025	28683
810.166	28729
810.308	28748
810.45	28656
810.591	28565
810.733	28554
810.875	28485
811.016	28485
811.158	28493
811.299	28485
811.441	28683
811.582	28584
811.724	28455
811.865	28386
812.007	28447
812.148	28447
812.29	28611
812.431	28733
812.573	28858
812.714	28866
812.855	28991
812.997	29067
813.138	29311
813.279	29147
813.421	28999
813.562	28908
813.703	28622
813.845	28668
813.986	28375
814.127	28204
814.268	28234
814.41	28211
814.551	28131
814.692	28173
814.833	28242
814.974	28078
815.115	28169
815.256	28101
815.397	28109
815.539	28097
815.68	27945
815.821	27956
815.962	27926
816.103	27888
816.244	27838
816.385	27808
816.526	27671
816.666	27629
816.807	27427
816.948	27553
817.089	27545
817.23	27583
817.371	27386
817.512	27336
817.653	27443
817.793	27329
817.934	27515
818.075	27306
818.216	27336
818.356	27287
818.497	27393
818.638	27203
818.778	27237
818.919	27287
819.06	27203
819.2	27329
819.341	27401
819.481	27538
819.622	27580
819.762	27842
819.903	27831
820.043	27629
820.184	27660
820.324	27587
820.465	27743
820.605	27610
820.746	27660
820.886	27397
821.026	27519
821.167	27481
821.307	27561
821.447	27507
821.588	27435
821.728	27207
821.868	27131
822.008	27024
822.149	26967
822.289	26891
822.429	26697
822.569	26716
822.709	26743
822.849	26453
822.99	26389
823.13	26499
823.27	26431
823.41	26210
823.55	26214
823.69	26168
823.83	26240
823.97	26298
824.11	26096
824.25	26081
824.389	26084
824.529	26183
824.669	26107
824.809	26195
824.949	26122
825.089	26122
825.228	26122
825.368	25913
825.508	25989
825.648	25963
825.787	26054
825.927	25959
826.067	25879
826.206	25978
826.346	25928
826.485	25894
826.625	25978
826.765	26035
826.904	26031
827.044	25746
827.183	25814
827.323	25632
827.462	25616
827.601	25571
827.741	25666
827.88	25601
828.02	25632
828.159	25609
828.298	25666
828.437	25674
828.577	25586
828.716	25795
828.855	25567
828.994	25468
829.134	25441
829.273	25540
829.412	25308
829.551	25324
829.69	25422
829.829	25525
829.968	25441
830.107	25525
830.246	25377
830.385	25259
830.524	25244
830.663	25145
830.802	25118
830.941	24962
831.08	24890
831.219	25126
831.357	25050
831.496	25339
831.635	24916
831.774	24875
831.913	24833
832.051	24745
832.19	24749
832.329	24791
832.467	24658
832.606	24555
832.744	24601
832.883	24566
833.022	24650
833.16	24707
833.299	24700
833.437	24753
833.576	24665
833.714	24635
833.852	24787
833.991	24722
834.129	24859
834.267	24802
834.406	24635
834.544	24795
834.682	24673
834.821	24658
834.959	24837
835.097	24597
835.235	24749
835.373	24852
835.511	24616
835.65	24684
835.788	24646
835.926	24350
836.064	24426
836.202	24357
836.34	24422
836.478	24779
836.615	24536
836.753	24540
836.891	24589
837.029	24631
837.167	24525
837.305	24384
837.443	24426
837.58	24357
837.718	24391
837.856	24209
837.993	24243
838.131	24247
838.269	24205
838.406	24251
838.544	24114
838.681	23996
838.819	23790
838.956	23798
839.094	23767
839.231	23855
839.369	24068
839.506	24258
839.643	24159
839.781	23832
839.918	23699
840.055	23878
840.193	23729
840.33	23802
840.467	23668
840.604	23840
840.742	23988
840.879	23619
841.016	23592
841.153	23535
841.29	23821
841.427	23653
841.564	23824
841.701	23733
841.838	23638
841.975	23691
842.112	23691
842.249	23543
842.385	23486
842.522	23798
842.659	23608
842.796	23493
842.933	23543
843.069	23501
843.206	23493
843.343	23383
843.479	23512
843.616	23345
843.752	23216
843.889	23322
844.025	23292
844.162	23128
844.298	23296
844.435	23162
844.571	23220
844.708	23318
844.844	23486
844.98	23337
845.117	23356
845.253	23204
845.389	23174
845.525	23075
845.661	23105
845.798	23155
845.934	23132
846.07	22991
846.206	22953
846.342	23098
846.478	22900
846.614	22816
846.75	22687
846.886	22759
847.022	22736
847.158	22672
847.294	22767
847.429	22774
847.565	22706
847.701	22900
847.837	22497
847.972	22462
848.108	22523
848.244	22603
848.379	22314
848.515	22284
848.65	22287
848.786	22344
848.921	22310
849.057	22402
849.192	22459
849.328	22367
849.463	22303
849.598	22265
849.734	22188
849.869	22128
850.004	22154
850.14	22147
850.275	22112
850.41	21975
850.545	22063
850.68	22010
850.815	21968
850.95	22002
851.085	22341
851.22	22223
851.355	22139
851.49	22040
851.625	21979
851.76	22006
851.895	22048
852.03	21934
852.165	22006
852.299	22128
852.434	22226
852.569	22090
852.703	22215
852.838	22135
852.973	22143
853.107	22185
853.242	21987
853.376	21876
853.511	21842
853.645	21869
853.78	21998
853.914	22128
854.048	21812
854.183	21846
854.317	21907
854.451	22181
854.585	21861
854.72	21945
854.854	21956
854.988	21812
855.122	21808
855.256	21812
855.39	21983
855.524	21956
855.658	21972
855.792	21842
855.926	21895
856.06	21949
856.194	22120
856.327	21884
856.461	21907
856.595	21827
856.729	21915
856.862	22097
856.996	21854
857.13	21934
857.263	21987
857.397	21972
857.53	21808
857.664	21778
857.797	22025
857.931	22055
858.064	21953
858.197	21949
858.331	21808
858.464	21835
858.597	21804
858.731	21804
858.864	21873
858.997	21781
859.13	21812
859.263	21953
859.396	22070
859.529	21915
859.662	21793
859.795	21743
859.928	21911
860.061	22135
860.194	22070
860.327	21987
860.46	21987
860.592	22040
860.725	22025
860.858	22017
860.99	21888
861.123	21743
861.256	21800
861.388	21823
861.521	22717
861.653	21823
861.786	21675
861.918	21747
862.05	21755
862.183	21759
862.315	21895
862.447	21888
862.58	21751
862.712	21652
862.844	21652
862.976	21751
863.108	21641
863.24	21987
863.372	21557
863.504	21561
863.636	21713
863.768	21717
863.9	21580
864.032	21580
864.164	21622
864.296	21679
864.428	21705
864.559	21686
864.691	21568
864.823	21648
864.954	21542
865.086	21542
865.217	21553
865.349	21466
865.48	21515
865.612	21637
865.743	21663
865.875	21530
866.006	21447
866.137	21496
866.269	21431
866.4	21443
866.531	21416
866.662	21374
866.793	21397
866.924	21408
867.055	21534
867.186	21424
867.317	21492
867.448	21443
867.579	21450
867.71	21310
867.841	21359
867.972	21416
868.103	21443
868.233	21359
868.364	21268
868.495	21469
868.625	21629
868.756	21755
868.886	21568
869.017	21694
869.147	21747
869.278	21778
869.408	21709
869.539	21675
869.669	21751
869.799	21648
869.929	21857
870.06	21789
870.19	21934
870.32	22010
870.45	21937
870.58	22116
870.71	22048
870.84	22021
870.97	22013
871.1	22131
871.23	22238
871.36	22363
871.489	22215
871.619	22238
871.749	22246
871.879	22257
872.008	22306
872.138	22185
872.267	22257
872.397	22048
872.526	22067
872.656	22158
872.785	22128
872.915	22280
873.044	22306
873.173	22276
873.303	22299
873.432	22226
873.561	22481
873.69	22306
873.819	22314
873.948	22390
874.077	22299
874.206	22211
874.335	22261
874.464	22394
874.593	22481
874.722	22409
874.851	22478
874.979	22470
875.108	22584
875.237	22485
875.365	22421
875.494	22504
875.623	22580
875.751	22421
875.88	22554
876.008	22660
876.136	22793
876.265	22850
876.393	22961
876.521	22919
876.65	22968
876.778	22831
876.906	22824
877.034	22885
877.162	22869
877.29	22908
877.418	22862
877.546	22930
877.674	22839
877.802	22873
877.93	22889
878.058	22908
878.185	22660
878.313	22824
878.441	22702
878.568	22683
878.696	22717
878.824	22797
878.951	22908
879.079	23044
879.206	23124
879.333	22873
879.461	22877
879.588	22953
879.715	22968
879.842	22965
879.97	22873
880.097	22550
880.224	22679
880.351	22656
880.478	22645
880.605	22637
880.732	22702
880.859	22938
880.986	22736
881.112	22809
881.239	22497
881.366	22352
881.493	22303
881.619	22337
881.746	22268
881.872	22177
881.999	22272
882.125	22287
882.252	22230
882.378	22070
882.505	22360
882.631	22093
882.757	22044
882.883	22063
883.01	21846
883.136	21899
883.262	21797
883.388	21781
883.514	21861
883.64	21865
883.766	21724
883.892	21709
884.018	21701
884.143	21800
884.269	21850
884.395	21671
884.52	21405
884.646	21564
884.772	21488
884.897	21378
885.023	21549
885.148	21583
885.274	21644
885.399	21694
885.524	21641
885.65	21534
885.775	21679
885.9	21507
886.025	21686
886.15	21610
886.275	21469
886.4	21389
886.525	21561
886.65	21454
886.775	21511
886.9	21652
887.025	21694
887.149	21542
887.274	21336
887.399	21317
887.523	21473
887.648	21211
887.773	21116
887.897	21374
888.021	21367
888.146	21142
888.27	21450
888.395	21488
888.519	21382
888.643	21336
888.767	21355
888.891	21245
889.015	21203
889.139	21180
889.263	21146
889.387	21169
889.511	21321
889.635	21188
889.759	21127
889.883	21184
890.006	21096
890.13	21241
890.254	20944
890.377	21154
890.501	20845
890.624	20785
890.748	20891
890.871	20800
890.995	20731
891.118	20629
891.241	20598
891.364	20708
891.488	20746
891.611	20674
891.734	20606
891.857	20735
891.98	20655
892.103	20716
892.226	20750
892.349	20560
892.471	20495
892.594	20511
892.717	20609
892.839	20518
892.962	20564
893.085	20594
893.207	20526
893.33	20454
893.452	20446
893.575	20606
893.697	20560
893.819	20743
893.941	20845
894.064	20724
894.186	20564
894.308	20495
894.43	20636
894.552	20644
894.674	20663
894.796	20514
894.918	20636
895.04	20465
895.161	20625
895.283	20575
895.405	20648
895.526	20518
895.648	20461
895.769	20629
895.891	20670
896.012	20549
896.134	20765
896.255	20571
896.376	20511
896.498	20575
896.619	20568
896.74	20659
896.861	20663
896.982	20876
897.103	20971
897.224	20807
897.345	20762
897.466	20762
897.587	20769
897.708	20857
897.828	20876
897.949	20731
898.07	20461
898.19	20716
898.311	20777
898.431	20689
898.552	20815
898.672	20796
898.792	20777
898.913	20773
899.033	20663
899.153	20606
899.273	20400
899.393	20465
899.513	20511
899.633	20431
899.753	20556
899.873	20415
899.993	20617
900.113	20431
900.232	20590
900.352	20476
900.472	20374
900.591	20389
900.711	20351
900.83	20370
900.95	20381
901.069	20419
901.189	20126
901.308	19978
901.427	19841
901.546	19928
901.665	19902
901.784	19947
901.904	19780
902.023	19662
902.141	19487
902.26	19346
902.379	19411
902.498	19407
902.617	19274
902.735	19419
902.854	19464
902.973	19289
903.091	19072
903.21	18993
903.328	19038
903.446	19046
903.565	18909
903.683	18844
903.801	18776
903.919	18806
904.038	18779
904.156	18620
904.274	18730
904.392	18589
904.51	18669
904.627	18658
904.745	18559
904.863	18681
904.981	18395
905.098	18270
905.216	18266
905.334	18300
905.451	18247
905.569	18190
905.686	18262
905.803	18292
905.921	18087
906.038	18152
906.155	17992
906.272	17958
906.389	17897
906.506	17760
906.623	17817
906.74	17885
906.857	17687
906.974	17680
907.091	17863
907.208	17863
907.324	17904
907.441	17649
907.557	17482
907.674	17486
907.79	17433
907.907	17452
908.023	17490
908.139	17566
908.256	17398
908.372	17383
908.488	17429
908.604	17265
908.72	17326
908.836	17193
908.952	17185
909.068	17242
909.184	17345
909.3	17258
909.415	17235
909.531	17261
909.647	16976
909.762	16938
909.878	16805
909.993	16843
910.108	16930
910.224	16896
910.339	16850
910.454	16797
910.57	16683
910.685	16653
910.8	16908
910.915	16957
911.03	16755
911.145	16702
911.259	16569
911.374	16470
911.489	16485
911.604	16363
911.718	16196
911.833	16249
911.947	16185
912.062	16082
912.176	16299
912.291	16352
912.405	16268
912.519	16508
912.633	16481
912.748	16329
912.862	16105
912.976	16044
913.09	15979
913.204	16025
913.318	16044
913.431	16295
913.545	16025
913.659	16211
913.772	15975
913.886	15964
914	15827
914.113	16006
914.226	15922
914.34	15945
914.453	15728
914.566	15869
914.68	15816
914.793	15671
914.906	15515
915.019	15439
915.132	15481
915.245	15492
915.358	15466
915.47	15473
915.583	15397
915.696	15584
915.809	15534
915.921	15519
916.034	15424
916.146	15393
916.259	15363
916.371	15469
916.483	15447
916.595	15233
916.708	15283
916.82	15252
916.932	15294
917.044	15169
917.156	15104
917.268	15207
917.38	15199
917.491	15135
917.603	15135
917.715	15199
917.826	15245
917.938	15074
918.049	14929
918.161	15020
918.272	15176
918.384	15127
918.495	14971
918.606	14883
918.717	14815
918.828	14887
918.939	14895
919.05	14697
919.161	14811
919.272	14621
919.383	14682
919.494	14887
919.604	14994
919.715	14826
919.826	14682
919.936	14773
920.047	14872
920.157	14765
920.267	15024
920.378	14842
920.488	14804
920.598	15001
920.708	15142
920.818	14937
920.928	14952
921.038	15085
921.148	15085
921.258	14727
921.368	14701
921.477	14575
921.587	14537
921.697	14484
921.806	14590
921.916	14358
922.025	14149
922.134	14180
922.244	14092
922.353	14252
922.462	14062
922.571	14046
922.68	13947
922.789	13883
922.898	13788
923.007	13757
923.116	13826
923.224	13856
923.333	13864
923.442	13689
923.55	13582
923.659	13712
923.767	13791
923.876	13537
923.984	13647
924.092	13502
924.201	13616
924.309	13514
924.417	13544
924.525	13472
924.633	13426
924.741	14427
924.849	13274
924.956	13403
925.064	13282
925.172	13099
925.279	13156
925.387	13278
925.494	13202
925.602	13327
925.709	13282
925.816	13213
925.924	13141
926.031	13202
926.138	13209
926.245	13179
926.352	13042
926.459	13240
926.566	13240
926.673	13145
926.779	12913
926.886	12909
926.993	12901
927.099	12795
927.206	12779
927.312	12783
927.419	12844
927.525	12722
927.631	12760
927.737	12684
927.843	12627
927.95	12570
928.056	12616
928.162	12616
928.267	12612
928.373	13320
928.479	12654
928.585	12536
928.69	12582
928.796	12498
928.901	12391
929.007	12277
929.112	12410
929.218	12452
929.323	12308
929.428	12296
929.533	12498
929.638	12228
929.743	12270
929.848	12262
929.953	12213
930.058	12296
930.163	12007
930.267	11988
930.372	12167
930.477	11870
930.581	12148
930.685	12007
930.79	11840
930.894	11916
930.998	11897
931.103	11988
931.207	11634
931.311	11573
931.415	11505
931.519	11277
931.623	11208
