Data from test_V78500241_534.txt Node
Date: Fri Mar 25 15:45:30 CST 2022
User: usil
Spectrometer: V785-0024
Trigger mode: 0
Integration Time (sec): 4.000000E-1
Scans to average: 1
Nonlinearity correction enabled: false
Boxcar width: 0
Storing dark spectrum: false
XAxis mode: Wavelengths
Number of Pixels in Spectrum: 1024
>>>>>Begin Spectral Data<<<<<
801.071	27926
801.214	27835
801.356	27564
801.499	27481
801.641	27424
801.783	27275
801.926	27523
802.068	27321
802.211	27340
802.353	27214
802.496	27066
802.638	27017
802.78	27077
802.923	27028
803.065	26857
803.208	27169
803.35	27096
803.492	27154
803.635	27173
803.777	27131
803.919	27192
804.061	27523
804.204	27150
804.346	27173
804.488	27051
804.63	27058
804.773	26963
804.915	27252
805.057	27268
805.199	27096
805.341	27332
805.483	27287
805.626	27245
805.768	27291
805.91	27275
806.052	27412
806.194	27348
806.336	27568
806.478	27492
806.62	27386
806.762	27374
806.904	27591
807.046	27865
807.188	27797
807.33	27743
807.472	27781
807.614	27717
807.756	27633
807.898	27644
808.04	27545
808.182	27561
808.324	27622
808.465	27622
808.607	27975
808.749	28002
808.891	28036
809.033	28166
809.174	28192
809.316	28067
809.458	28010
809.6	28112
809.741	28261
809.883	28101
810.025	28196
810.166	28352
810.308	28348
810.45	28253
810.591	28257
810.733	27934
810.875	28006
811.016	27964
811.158	27964
811.299	28036
811.441	28207
811.582	28013
811.724	28006
811.865	28078
812.007	27972
812.148	27903
812.29	28074
812.431	28226
812.573	28363
812.714	28474
812.855	28367
812.997	28691
813.138	28774
813.279	28710
813.421	28668
813.562	28557
813.703	28379
813.845	28268
813.986	27998
814.127	27857
814.268	27709
814.41	27720
814.551	27686
814.692	27728
814.833	27637
814.974	27637
815.115	27766
815.256	27580
815.397	27614
815.539	27580
815.68	27443
815.821	27287
815.962	27485
816.103	27450
816.244	27427
816.385	27378
816.526	27310
816.666	27043
816.807	27017
816.948	27051
817.089	27055
817.23	26933
817.371	26952
817.512	26975
817.653	26929
817.793	26986
817.934	26902
818.075	27020
818.216	26880
818.356	26883
818.497	26876
818.638	26815
818.778	26716
818.919	26781
819.06	26838
819.2	26785
819.341	26925
819.481	26994
819.622	27066
819.762	27329
819.903	27119
820.043	27199
820.184	26975
820.324	26937
820.465	27161
820.605	27154
820.746	26990
820.886	26937
821.026	27062
821.167	26956
821.307	27203
821.447	26952
821.588	26823
821.728	26765
821.868	26648
822.008	26511
822.149	26438
822.289	26530
822.429	26214
822.569	26240
822.709	26088
822.849	25894
822.99	26069
823.13	25890
823.27	25928
823.41	25731
823.55	25712
823.69	25784
823.83	25791
823.97	25852
824.11	25704
824.25	25582
824.389	25506
824.529	25563
824.669	25689
824.809	25670
824.949	25693
825.089	25674
825.228	25518
825.368	25285
825.508	25411
825.648	25449
825.787	25502
825.927	25582
826.067	25400
826.206	25434
826.346	25559
826.485	25537
826.625	25571
826.765	25502
826.904	25479
827.044	25339
827.183	25069
827.323	25118
827.462	25316
827.601	25213
827.741	25038
827.88	25164
828.02	25141
828.159	25023
828.298	25213
828.437	25247
828.577	25110
828.716	25190
828.855	25084
828.994	24829
829.134	24840
829.273	24840
829.412	24852
829.551	24776
829.69	24856
829.829	24886
829.968	24909
830.107	24985
830.246	24875
830.385	24700
830.524	24852
830.663	24661
830.802	24661
830.941	24582
831.08	24376
831.219	24681
831.357	24479
831.496	24525
831.635	24422
831.774	24410
831.913	24509
832.051	24167
832.19	24148
832.329	24319
832.467	24133
832.606	23999
832.744	24129
832.883	24007
833.022	24117
833.16	24159
833.299	24117
833.437	24133
833.576	24186
833.714	24197
833.852	24285
833.991	24308
834.129	24262
834.267	24178
834.406	24224
834.544	24251
834.682	24296
834.821	24041
834.959	24403
835.097	24266
835.235	24205
835.373	24136
835.511	24194
835.65	24072
835.788	23969
835.926	23950
836.064	23802
836.202	23859
836.34	23980
836.478	24114
836.615	23961
836.753	24026
836.891	24098
837.029	24026
837.167	23824
837.305	23866
837.443	23885
837.58	23916
837.718	23920
837.856	23977
837.993	23882
838.131	23813
838.269	23627
838.406	23737
838.544	23737
838.681	23672
838.819	23573
838.956	23136
839.094	23318
839.231	23417
839.369	23490
839.506	23672
839.643	23611
839.781	23425
839.918	23292
840.055	23356
840.193	23299
840.33	23379
840.467	23452
840.604	23246
840.742	23459
840.879	23136
841.016	23212
841.153	23090
841.29	23288
841.427	23121
841.564	23551
841.701	23280
841.838	23162
841.975	23117
842.112	22995
842.249	22965
842.385	23033
842.522	23311
842.659	23220
842.796	22839
842.933	23105
843.069	22995
843.206	22972
843.343	23060
843.479	22919
843.616	22961
843.752	22866
843.889	22687
844.025	22930
844.162	22809
844.298	22748
844.435	22782
844.571	22664
844.708	22786
844.844	22862
844.98	22904
845.117	22858
845.253	22702
845.389	22588
845.525	22729
845.661	22569
845.798	22474
845.934	22451
846.07	22447
846.206	22538
846.342	22500
846.478	22493
846.614	22318
846.75	22070
846.886	22287
847.022	22287
847.158	22253
847.294	22230
847.429	22295
847.565	22223
847.701	22565
847.837	21964
847.972	21956
848.108	22192
848.244	22010
848.379	21888
848.515	21766
848.65	21751
848.786	21770
848.921	21679
849.057	21895
849.192	21907
849.328	21895
849.463	21743
849.598	21736
849.734	21618
849.869	21682
850.004	21793
850.14	21549
850.275	21686
850.41	21530
850.545	21553
850.68	21526
850.815	21652
850.95	21587
851.085	21713
851.22	21629
851.355	21530
851.49	21485
851.625	21507
851.76	21694
851.895	21492
852.03	21553
852.165	21496
852.299	21622
852.434	21781
852.569	21606
852.703	21614
852.838	21519
852.973	21766
853.107	21656
853.242	21507
853.376	21370
853.511	21279
853.645	21272
853.78	21443
853.914	21466
854.048	21279
854.183	21462
854.317	21454
854.451	21549
854.585	21405
854.72	21393
854.854	21507
854.988	21374
855.122	21363
855.256	21233
855.39	21370
855.524	21557
855.658	21431
855.792	21443
855.926	21439
856.06	21462
856.194	21488
856.327	21450
856.461	21393
856.595	21428
856.729	21462
856.862	21549
856.996	21526
857.13	21488
857.263	21595
857.397	21488
857.53	21332
857.664	21526
857.797	21530
857.931	21561
858.064	21370
858.197	21431
858.331	21424
858.464	21367
858.597	21203
858.731	21389
858.864	21298
858.997	21374
859.13	21325
859.263	21477
859.396	21397
859.529	21359
859.662	21424
859.795	21370
859.928	21340
860.061	21500
860.194	21606
860.327	21507
860.46	21340
860.592	21443
860.725	21580
860.858	21458
860.99	21408
861.123	21359
861.256	21359
861.388	21393
861.521	22059
861.653	21294
861.786	21116
861.918	21249
862.05	21306
862.183	21321
862.315	21302
862.447	21336
862.58	21218
862.712	21138
862.844	21036
862.976	21154
863.108	21199
863.24	21564
863.372	21062
863.504	21108
863.636	21066
863.768	21062
863.9	21127
864.032	20998
864.164	21013
864.296	21066
864.428	21302
864.559	21184
864.691	21154
864.823	21180
864.954	21081
865.086	21074
865.217	21055
865.349	20952
865.48	21146
865.612	21051
865.743	21256
865.875	20994
866.006	21005
866.137	21028
866.269	20853
866.4	20845
866.531	20845
866.662	20830
866.793	20918
866.924	20906
867.055	21104
867.186	20944
867.317	20842
867.448	20887
867.579	20948
867.71	20853
867.841	20800
867.972	20899
868.103	20918
868.233	21005
868.364	20952
868.495	20998
868.625	21275
868.756	21359
868.886	21032
869.017	21218
869.147	21279
869.278	21325
869.408	21203
869.539	21161
869.669	21287
869.799	21268
869.929	21321
870.06	21199
870.19	21523
870.32	21439
870.45	21557
870.58	21644
870.71	21675
870.84	21629
870.97	21507
871.1	21542
871.23	21793
871.36	21800
871.489	21564
871.619	21781
871.749	21793
871.879	21888
872.008	21934
872.138	21755
872.267	21736
872.397	21717
872.526	21545
872.656	21728
872.785	21576
872.915	21766
873.044	21956
873.173	21861
873.303	21903
873.432	21823
873.561	21968
873.69	21679
873.819	21816
873.948	21842
874.077	21819
874.206	21724
874.335	21800
874.464	21865
874.593	22192
874.722	21968
874.851	22112
874.979	22082
875.108	22120
875.237	21876
875.365	22017
875.494	21975
875.623	22074
875.751	21907
875.88	21998
876.008	22154
876.136	22192
876.265	22394
876.393	22466
876.521	22466
876.65	22489
876.778	22379
876.906	22325
877.034	22246
877.162	22367
877.29	22375
877.418	22299
877.546	22382
877.674	22493
877.802	22344
877.93	22322
878.058	22474
878.185	22226
878.313	22348
878.441	22421
878.568	22150
878.696	22207
878.824	22466
878.951	22493
879.079	22500
879.206	22717
879.333	22523
879.461	22344
879.588	22485
879.715	22565
879.842	22653
879.97	22424
880.097	22238
880.224	22242
880.351	22192
880.478	22135
880.605	22215
880.732	22150
880.859	22424
880.986	22249
881.112	22192
881.239	22051
881.366	21994
881.493	21964
881.619	21766
881.746	21747
881.872	21736
881.999	21705
882.125	21625
882.252	21762
882.378	21682
882.505	21865
882.631	21637
882.757	21481
882.883	21389
883.01	21576
883.136	21507
883.262	21378
883.388	21393
883.514	21488
883.64	21469
883.766	21447
883.892	21237
884.018	21294
884.143	21428
884.269	21473
884.395	21233
884.52	21077
884.646	21100
884.772	21161
884.897	20986
885.023	21138
885.148	21138
885.274	21195
885.399	21116
885.524	21146
885.65	21237
885.775	21112
885.9	21108
886.025	21233
886.15	21203
886.275	21058
886.4	20982
886.525	21100
886.65	21150
886.775	21032
886.9	21252
887.025	21272
887.149	21161
887.274	20872
887.399	20967
887.523	20876
887.648	20746
887.773	20864
887.897	20933
888.021	20979
888.146	20758
888.27	20937
888.395	20883
888.519	20899
888.643	20921
888.767	20914
888.891	20754
889.015	20705
889.139	20746
889.263	20670
889.387	20758
889.511	20876
889.635	20807
889.759	20636
889.883	20720
890.006	20758
890.13	20788
890.254	20594
890.377	20564
890.501	20461
890.624	20396
890.748	20488
890.871	20282
890.995	20309
891.118	20263
891.241	20278
891.364	20282
891.488	20267
891.611	20195
891.734	20214
891.857	20374
891.98	20286
892.103	20271
892.226	20256
892.349	20229
892.471	19997
892.594	20122
892.717	20115
892.839	20103
892.962	20229
893.085	20195
893.207	20145
893.33	20039
893.452	20115
893.575	20286
893.697	20153
893.819	20298
893.941	20294
894.064	20252
894.186	20065
894.308	20016
894.43	20172
894.552	20275
894.674	20267
894.796	20058
894.918	20088
895.04	20119
895.161	20286
895.283	20282
895.405	20100
895.526	20103
895.648	20225
895.769	20202
895.891	20229
896.012	20195
896.134	20191
896.255	20206
896.376	20107
896.498	20191
896.619	20096
896.74	20126
896.861	20324
896.982	20507
897.103	20602
897.224	20514
897.345	20336
897.466	20313
897.587	20339
897.708	20431
897.828	20446
897.949	20313
898.07	20180
898.19	20324
898.311	20400
898.431	20298
898.552	20366
898.672	20396
898.792	20355
898.913	20358
899.033	20267
899.153	20221
899.273	20073
899.393	20164
899.513	20107
899.633	20176
899.753	20134
899.873	20069
899.993	20145
900.113	20081
900.232	20062
900.352	19997
900.472	19936
900.591	19913
900.711	19997
900.83	19925
900.95	19982
901.069	19944
901.189	19780
901.308	19605
901.427	19324
901.546	19495
901.665	19575
901.784	19419
901.904	19419
902.023	19320
902.141	19129
902.26	19034
902.379	19065
902.498	18977
902.617	19019
902.735	19046
902.854	18886
902.973	18802
903.091	18623
903.21	18639
903.328	18707
903.446	18589
903.565	18445
903.683	18471
903.801	18304
903.919	18490
904.038	18403
904.156	18346
904.274	18266
904.392	18243
904.51	18266
904.627	18296
904.745	18285
904.863	18277
904.981	18026
905.098	17832
905.216	17893
905.334	17996
905.451	17882
905.569	17828
905.686	17882
905.803	17984
905.921	17638
906.038	17775
906.155	17748
906.272	17600
906.389	17665
906.506	17433
906.623	17501
906.74	17455
906.857	17349
906.974	17269
907.091	17497
907.208	17535
907.324	17505
907.441	17318
907.557	17220
907.674	17147
907.79	17151
907.907	17136
908.023	17231
908.139	17239
908.256	17018
908.372	17071
908.488	17060
908.604	16847
908.72	16904
908.836	16866
908.952	16774
909.068	16908
909.184	16957
909.3	16881
909.415	16816
909.531	16911
909.647	16653
909.762	16550
909.878	16592
909.993	16603
910.108	16592
910.224	16485
910.339	16474
910.454	16390
910.57	16421
910.685	16402
910.8	16706
910.915	16641
911.03	16409
911.145	16215
911.259	16207
911.374	16242
911.489	16139
911.604	16051
911.718	15907
911.833	16059
911.947	15892
912.062	15762
912.176	15937
912.291	15884
912.405	15968
912.519	16051
912.633	16139
912.748	15949
912.862	15865
912.976	15743
913.09	15610
913.204	15762
913.318	15793
913.431	15793
913.545	15789
913.659	15781
913.772	15595
913.886	15542
914	15492
914.113	15629
914.226	15713
914.34	15603
914.453	15416
914.566	15519
914.68	15397
914.793	15294
914.906	15195
915.019	15116
915.132	15074
915.245	15081
915.358	15176
915.47	15123
915.583	15131
915.696	15226
915.809	15306
915.921	15294
916.034	15074
916.146	15028
916.259	15077
916.371	15211
916.483	15066
916.595	15001
916.708	14971
916.82	14952
916.932	14941
917.044	15009
917.156	14807
917.268	14785
917.38	14792
917.491	14640
917.603	14743
917.715	14887
917.826	14864
917.938	14845
918.049	14674
918.161	14701
918.272	14883
918.384	14868
918.495	14746
918.606	14526
918.717	14556
918.828	14648
918.939	14552
919.05	14514
919.161	14583
919.272	14393
919.383	14404
919.494	14568
919.604	14800
919.715	14514
919.826	14389
919.936	14499
920.047	14617
920.157	14507
920.267	14697
920.378	14499
920.488	14484
920.598	14746
920.708	14872
920.818	14594
920.928	14625
921.038	14902
921.148	14792
921.258	14419
921.368	14415
921.477	14438
921.587	14199
921.697	14172
921.806	14206
921.916	14145
922.025	13947
922.134	13852
922.244	13849
922.353	13875
922.462	13849
922.571	13674
922.68	13586
922.789	13480
922.898	13495
923.007	13544
923.116	13601
923.224	13510
923.333	13472
923.442	13362
923.55	13339
923.659	13449
923.767	13369
923.876	13270
923.984	13441
924.092	13270
924.201	13320
924.309	13343
924.417	13335
924.525	13179
924.633	13156
924.741	13967
924.849	13034
924.956	13160
925.064	12920
925.172	12928
925.279	12951
925.387	12989
925.494	12954
925.602	13114
925.709	12989
925.816	12943
925.924	12859
926.031	12958
926.138	12954
926.245	13012
926.352	12806
926.459	12924
926.566	12962
926.673	12882
926.779	12715
926.886	12688
926.993	12593
927.099	12532
927.206	12585
927.312	12418
927.419	12574
927.525	12521
927.631	12498
927.737	12330
927.843	12376
927.95	12258
928.056	12304
928.162	12395
928.267	12350
928.373	12970
928.479	12399
928.585	12201
928.69	12357
928.796	12418
928.901	12270
929.007	12030
929.112	12239
929.218	12091
929.323	12083
929.428	12076
929.533	12129
929.638	12079
929.743	12011
929.848	12038
929.953	11973
930.058	11954
930.163	11748
930.267	11764
930.372	11855
930.477	11748
930.581	11935
930.685	11824
930.79	11490
930.894	11695
930.998	11577
931.103	11771
931.207	11421
931.311	11330
931.415	11201
931.519	11045
931.623	10976
