Data from test_V78500241_1602.txt Node
Date: Fri Mar 25 15:52:53 CST 2022
User: usil
Spectrometer: V785-0024
Trigger mode: 0
Integration Time (sec): 4.000000E-1
Scans to average: 1
Nonlinearity correction enabled: false
Boxcar width: 0
Storing dark spectrum: false
XAxis mode: Wavelengths
Number of Pixels in Spectrum: 1024
>>>>>Begin Spectral Data<<<<<
801.071	27888
801.214	27854
801.356	27580
801.499	27485
801.641	27252
801.783	27443
801.926	27313
802.068	27511
802.211	27283
802.353	27427
802.496	27028
802.638	26902
802.78	27009
802.923	26952
803.065	26845
803.208	26864
803.35	27093
803.492	27211
803.635	27230
803.777	27268
803.919	27252
804.061	27583
804.204	27272
804.346	27211
804.488	27173
804.63	27176
804.773	27260
804.915	27363
805.057	27473
805.199	27230
805.341	27310
805.483	27351
805.626	27519
805.768	27195
805.91	27447
806.052	27439
806.194	27344
806.336	27488
806.478	27542
806.62	27397
806.762	27587
806.904	27709
807.046	27812
807.188	27895
807.33	27804
807.472	27903
807.614	27762
807.756	27835
807.898	27747
808.04	27698
808.182	27698
808.324	27743
808.465	27793
808.607	27899
808.749	27979
808.891	28048
809.033	28314
809.174	28105
809.316	28025
809.458	27979
809.6	28067
809.741	28295
809.883	28166
810.025	28360
810.166	28200
810.308	28405
810.45	28207
810.591	28112
810.733	28059
810.875	28021
811.016	27888
811.158	27895
811.299	28173
811.441	28280
811.582	28177
811.724	27972
811.865	27903
812.007	28044
812.148	28147
812.29	28063
812.431	28295
812.573	28424
812.714	28432
812.855	28561
812.997	28618
813.138	28812
813.279	28550
813.421	28489
813.562	28443
813.703	28451
813.845	28215
813.986	27983
814.127	27781
814.268	27599
814.41	27804
814.551	27755
814.692	27751
814.833	27641
814.974	27629
815.115	27793
815.256	27507
815.397	27595
815.539	27603
815.68	27534
815.821	27447
815.962	27469
816.103	27507
816.244	27188
816.385	27348
816.526	27291
816.666	27211
816.807	27131
816.948	26979
817.089	27230
817.23	27089
817.371	27070
817.512	27001
817.653	26880
817.793	27062
817.934	27058
818.075	27032
818.216	26819
818.356	26910
818.497	26975
818.638	26743
818.778	26670
818.919	26621
819.06	26960
819.2	26834
819.341	26914
819.481	27039
819.622	27195
819.762	27279
819.903	27150
820.043	27237
820.184	27310
820.324	27142
820.465	27150
820.605	27142
820.746	27108
820.886	27047
821.026	27226
821.167	27154
821.307	27119
821.447	27116
821.588	26933
821.728	26849
821.868	26541
822.008	26499
822.149	26442
822.289	26522
822.429	26164
822.569	26039
822.709	26164
822.849	26065
822.99	25841
823.13	25989
823.27	25841
823.41	25788
823.55	25818
823.69	25830
823.83	25776
823.97	25769
824.11	25571
824.25	25518
824.389	25571
824.529	25750
824.669	25632
824.809	25719
824.949	25655
825.089	25708
825.228	25677
825.368	25453
825.508	25510
825.648	25559
825.787	25468
825.927	25605
826.067	25559
826.206	25674
826.346	25506
826.485	25601
826.625	25540
826.765	25681
826.904	25628
827.044	25293
827.183	25312
827.323	25202
827.462	25221
827.601	25217
827.741	25110
827.88	25221
828.02	25023
828.159	25061
828.298	25274
828.437	25327
828.577	25148
828.716	25206
828.855	25175
828.994	24916
829.134	24958
829.273	25019
829.412	24913
829.551	24897
829.69	24738
829.829	24935
829.968	24996
830.107	24973
830.246	24901
830.385	24833
830.524	24722
830.663	24703
830.802	24715
830.941	24513
831.08	24563
831.219	24692
831.357	24570
831.496	24817
831.635	24547
831.774	24422
831.913	24441
832.051	24171
832.19	24296
832.329	24311
832.467	24079
832.606	24155
832.744	24117
832.883	24038
833.022	24209
833.16	24186
833.299	24239
833.437	24114
833.576	24209
833.714	24213
833.852	24235
833.991	24365
834.129	24235
834.267	24369
834.406	24266
834.544	24292
834.682	24243
834.821	24159
834.959	24330
835.097	24095
835.235	24323
835.373	24178
835.511	24254
835.65	24068
835.788	24076
835.926	23961
836.064	23828
836.202	23817
836.34	24060
836.478	24098
836.615	23901
836.753	24083
836.891	24182
837.029	24068
837.167	23923
837.305	23961
837.443	23859
837.58	23866
837.718	24011
837.856	23923
837.993	23809
838.131	23946
838.269	23866
838.406	23836
838.544	23687
838.681	23501
838.819	23410
838.956	23372
839.094	23452
839.231	23505
839.369	23615
839.506	23771
839.643	23687
839.781	23376
839.918	23395
840.055	23303
840.193	23284
840.33	23250
840.467	23383
840.604	23239
840.742	23577
840.879	23273
841.016	23280
841.153	23170
841.29	23452
841.427	23299
841.564	23414
841.701	23288
841.838	23174
841.975	23204
842.112	23071
842.249	23143
842.385	23003
842.522	23117
842.659	23124
842.796	22938
842.933	23048
843.069	23029
843.206	22915
843.343	23025
843.479	23105
843.616	22949
843.752	22904
843.889	22812
844.025	22904
844.162	22767
844.298	23048
844.435	22782
844.571	22797
844.708	22831
844.844	23018
844.98	22824
845.117	22892
845.253	22691
845.389	22664
845.525	22554
845.661	22584
845.798	22527
845.934	22550
846.07	22554
846.206	22577
846.342	22618
846.478	22596
846.614	22333
846.75	22310
846.886	22185
847.022	22394
847.158	22287
847.294	22257
847.429	22367
847.565	22234
847.701	22508
847.837	22013
847.972	21934
848.108	22059
848.244	22105
848.379	21895
848.515	22067
848.65	21759
848.786	21728
848.921	21968
849.057	21960
849.192	21934
849.328	21968
849.463	21770
849.598	21838
849.734	21823
849.869	21603
850.004	21599
850.14	21557
850.275	21637
850.41	21587
850.545	21553
850.68	21686
850.815	21660
850.95	21705
851.085	21774
851.22	21694
851.355	21622
851.49	21610
851.625	21622
851.76	21534
851.895	21663
852.03	21576
852.165	21610
852.299	21614
852.434	21701
852.569	21698
852.703	21515
852.838	21622
852.973	21667
853.107	21781
853.242	21500
853.376	21424
853.511	21416
853.645	21370
853.78	21591
853.914	21431
854.048	21386
854.183	21492
854.317	21568
854.451	21622
854.585	21488
854.72	21359
854.854	21507
854.988	21332
855.122	21458
855.256	21279
855.39	21447
855.524	21496
855.658	21500
855.792	21450
855.926	21576
856.06	21599
856.194	21572
856.327	21469
856.461	21439
856.595	21405
856.729	21443
856.862	21599
856.996	21534
857.13	21583
857.263	21583
857.397	21564
857.53	21397
857.664	21542
857.797	21557
857.931	21576
858.064	21515
858.197	21618
858.331	21477
858.464	21443
858.597	21424
858.731	21370
858.864	21466
858.997	21397
859.13	21500
859.263	21496
859.396	21587
859.529	21462
859.662	21466
859.795	21393
859.928	21614
860.061	21625
860.194	21656
860.327	21504
860.46	21389
860.592	21580
860.725	21656
860.858	21591
860.99	21545
861.123	21481
861.256	21420
861.388	21500
861.521	22295
861.653	21420
861.786	21222
861.918	21317
862.05	21450
862.183	21450
862.315	21393
862.447	21401
862.58	21515
862.712	21150
862.844	21264
862.976	21370
863.108	21252
863.24	21625
863.372	21104
863.504	21260
863.636	21009
863.768	21245
863.9	21218
864.032	21131
864.164	21222
864.296	21249
864.428	21298
864.559	21230
864.691	21264
864.823	21150
864.954	21127
865.086	21173
865.217	21096
865.349	20933
865.48	21211
865.612	21146
865.743	21230
865.875	21138
866.006	21066
866.137	21081
866.269	20891
866.4	21142
866.531	21009
866.662	21024
866.793	20902
866.924	20918
867.055	21123
867.186	20948
867.317	20998
867.448	20864
867.579	21017
867.71	20975
867.841	20758
867.972	21036
868.103	20941
868.233	21127
868.364	20937
868.495	21199
868.625	21294
868.756	21378
868.886	21165
869.017	21230
869.147	21294
869.278	21370
869.408	21340
869.539	21249
869.669	21302
869.799	21389
869.929	21302
870.06	21306
870.19	21462
870.32	21633
870.45	21641
870.58	21606
870.71	21819
870.84	21633
870.97	21667
871.1	21576
871.23	21869
871.36	21823
871.489	21827
871.619	21922
871.749	21816
871.879	21998
872.008	21888
872.138	21819
872.267	21842
872.397	21762
872.526	21694
872.656	21785
872.785	21797
872.915	21987
873.044	22048
873.173	21907
873.303	21964
873.432	21975
873.561	22074
873.69	21892
873.819	21953
873.948	21972
874.077	21831
874.206	21835
874.335	22006
874.464	22021
874.593	21922
874.722	22055
874.851	22128
874.979	22074
875.108	22097
875.237	22029
875.365	21911
875.494	22097
875.623	22143
875.751	22090
875.88	22086
876.008	22261
876.136	22253
876.265	22516
876.393	22565
876.521	22630
876.65	22607
876.778	22531
876.906	22523
877.034	22478
877.162	22561
877.29	22462
877.418	22402
877.546	22474
877.674	22398
877.802	22451
877.93	22538
878.058	22531
878.185	22348
878.313	22424
878.441	22531
878.568	22284
878.696	22428
878.824	22497
878.951	22516
879.079	22557
879.206	22801
879.333	22733
879.461	22500
879.588	22554
879.715	22535
879.842	22759
879.97	22542
880.097	22287
880.224	22211
880.351	22276
880.478	22318
880.605	22196
880.732	22242
880.859	22512
880.986	22215
881.112	22398
881.239	22101
881.366	21979
881.493	21911
881.619	21941
881.746	21937
881.872	22002
881.999	21873
882.125	21751
882.252	21949
882.378	21831
882.505	21911
882.631	21656
882.757	21515
882.883	21542
883.01	21526
883.136	21553
883.262	21397
883.388	21458
883.514	21652
883.64	21595
883.766	21526
883.892	21386
884.018	21454
884.143	21564
884.269	21614
884.395	21260
884.52	21066
884.646	21100
884.772	21230
884.897	21218
885.023	21336
885.148	21367
885.274	21401
885.399	21237
885.524	21260
885.65	21169
885.775	21222
885.9	21195
886.025	21332
886.15	21218
886.275	21039
886.4	21108
886.525	21127
886.65	21157
886.775	21150
886.9	21252
887.025	21382
887.149	21161
887.274	21070
887.399	20979
887.523	20952
887.648	20929
887.773	20800
887.897	20933
888.021	20971
888.146	20906
888.27	21070
888.395	20937
888.519	20887
888.643	20979
888.767	21020
888.891	20899
889.015	20880
889.139	20834
889.263	20777
889.387	20781
889.511	20861
889.635	20864
889.759	20788
889.883	20617
890.006	20731
890.13	20826
890.254	20689
890.377	20674
890.501	20473
890.624	20537
890.748	20492
890.871	20275
890.995	20271
891.118	20275
891.241	20328
891.364	20282
891.488	20450
891.611	20202
891.734	20225
891.857	20419
891.98	20370
892.103	20385
892.226	20301
892.349	20073
892.471	20122
892.594	20180
892.717	20351
892.839	20214
892.962	20161
893.085	20381
893.207	20229
893.33	20138
893.452	20229
893.575	20176
893.697	20286
893.819	20396
893.941	20476
894.064	20404
894.186	20195
894.308	20149
894.43	20282
894.552	20358
894.674	20195
894.796	20122
894.918	20282
895.04	20221
895.161	20278
895.283	20290
895.405	20077
895.526	20317
895.648	20100
895.769	20267
895.891	20187
896.012	20229
896.134	20347
896.255	20225
896.376	20046
896.498	20233
896.619	20214
896.74	20290
896.861	20271
896.982	20594
897.103	20583
897.224	20400
897.345	20446
897.466	20370
897.587	20393
897.708	20583
897.828	20492
897.949	20431
898.07	20355
898.19	20389
898.311	20552
898.431	20271
898.552	20450
898.672	20549
898.792	20495
898.913	20332
899.033	20229
899.153	20210
899.273	20084
899.393	20134
899.513	20202
899.633	20183
899.753	20168
899.873	20126
899.993	20259
900.113	20050
900.232	20092
900.352	20180
900.472	20046
900.591	20005
900.711	20020
900.83	19894
900.95	19974
901.069	20100
901.189	19890
901.308	19624
901.427	19632
901.546	19510
901.665	19563
901.784	19628
901.904	19521
902.023	19362
902.141	19221
902.26	19110
902.379	19175
902.498	18935
902.617	18981
902.735	19065
902.854	19050
902.973	18890
903.091	18852
903.21	18669
903.328	18669
903.446	18692
903.565	18559
903.683	18547
903.801	18426
903.919	18437
904.038	18494
904.156	18315
904.274	18342
904.392	18197
904.51	18285
904.627	18216
904.745	18395
904.863	18292
904.981	18060
905.098	17980
905.216	18060
905.334	18015
905.451	18064
905.569	18091
905.686	18076
905.803	18022
905.921	17767
906.038	17840
906.155	17805
906.272	17695
906.389	17672
906.506	17471
906.623	17535
906.74	17490
906.857	17478
906.974	17398
907.091	17429
907.208	17592
907.324	17566
907.441	17353
907.557	17246
907.674	17246
907.79	17162
907.907	17147
908.023	17235
908.139	17189
908.256	17216
908.372	17136
908.488	17185
908.604	16961
908.72	16934
908.836	17060
908.952	16934
909.068	16923
909.184	17018
909.3	16961
909.415	16961
909.531	16908
909.647	16782
909.762	16672
909.878	16592
909.993	16630
910.108	16626
910.224	16580
910.339	16603
910.454	16451
910.57	16500
910.685	16299
910.8	16683
910.915	16565
911.03	16440
911.145	16185
911.259	16272
911.374	16242
911.489	16185
911.604	16135
911.718	15998
911.833	15949
911.947	15907
912.062	15720
912.176	15953
912.291	16017
912.405	15998
912.519	16055
912.633	16257
912.748	15922
912.862	15918
912.976	15899
913.09	15690
913.204	15762
913.318	15755
913.431	15953
913.545	15781
913.659	15918
913.772	15785
913.886	15580
914	15553
914.113	15610
914.226	15736
914.34	15587
914.453	15526
914.566	15606
914.68	15466
914.793	15485
914.906	15272
915.019	15275
915.132	15089
915.245	15108
915.358	15207
915.47	15173
915.583	15104
915.696	15131
915.809	15287
915.921	15336
916.034	15169
916.146	15074
916.259	15089
916.371	15150
916.483	15165
916.595	14990
916.708	15039
916.82	15081
916.932	14956
917.044	14967
917.156	15028
917.268	14872
917.38	14891
917.491	14887
917.603	14826
917.715	14902
917.826	14902
917.938	14826
918.049	14663
918.161	14792
918.272	14807
918.384	15032
918.495	14830
918.606	14541
918.717	14606
918.828	14541
918.939	14590
919.05	14560
919.161	14560
919.272	14438
919.383	14377
919.494	14651
919.604	14811
919.715	14503
919.826	14522
919.936	14587
920.047	14640
920.157	14564
920.267	14754
920.378	14640
920.488	14526
920.598	14750
920.708	14906
920.818	14731
920.928	14575
921.038	14800
921.148	14674
921.258	14511
921.368	14473
921.477	14393
921.587	14259
921.697	14130
921.806	14221
921.916	14084
922.025	14024
922.134	13871
922.244	13894
922.353	14046
922.462	13814
922.571	13780
922.68	13624
922.789	13632
922.898	13624
923.007	13411
923.116	13613
923.224	13575
923.333	13537
923.442	13441
923.55	13472
923.659	13415
923.767	13476
923.876	13373
923.984	13491
924.092	13343
924.201	13354
924.309	13392
924.417	13274
924.525	13232
924.633	13259
924.741	14187
924.849	13034
924.956	13293
925.064	13034
925.172	13038
925.279	13012
925.387	13046
925.494	13000
925.602	13251
925.709	13015
925.816	12863
925.924	12897
926.031	13061
926.138	12939
926.245	12981
926.352	12897
926.459	12947
926.566	12935
926.673	12837
926.779	12772
926.886	12772
926.993	12612
927.099	12528
927.206	12513
927.312	12521
927.419	12627
927.525	12502
927.631	12601
927.737	12433
927.843	12399
927.95	12369
928.056	12414
928.162	12376
928.267	12372
928.373	13000
928.479	12509
928.585	12228
928.69	12353
928.796	12399
928.901	12258
929.007	12091
929.112	12216
929.218	12136
929.323	12159
929.428	12106
929.533	12266
929.638	12064
929.743	11931
929.848	12121
929.953	12072
930.058	11942
930.163	11855
930.267	11809
930.372	11958
930.477	11817
930.581	12076
930.685	11840
930.79	11623
930.894	11710
930.998	11630
931.103	11790
931.207	11417
931.311	11364
931.415	11303
931.519	10991
931.623	11048
