Data from test_V78500241_167.txt Node
Date: Fri Mar 25 15:42:57 CST 2022
User: usil
Spectrometer: V785-0024
Trigger mode: 0
Integration Time (sec): 4.000000E-1
Scans to average: 1
Nonlinearity correction enabled: false
Boxcar width: 0
Storing dark spectrum: false
XAxis mode: Wavelengths
Number of Pixels in Spectrum: 1024
>>>>>Begin Spectral Data<<<<<
801.071	29866
801.214	29524
801.356	29395
801.499	29292
801.641	29102
801.783	29273
801.926	29231
802.068	29181
802.211	29197
802.353	29162
802.496	28896
802.638	28957
802.78	28900
802.923	28675
803.065	28580
803.208	28759
803.35	28843
803.492	28869
803.635	29067
803.777	28801
803.919	29048
804.061	29132
804.204	29083
804.346	28900
804.488	28782
804.63	28961
804.773	28736
804.915	28953
805.057	28991
805.199	28877
805.341	29064
805.483	29117
805.626	29235
805.768	29056
805.91	29048
806.052	28972
806.194	28984
806.336	29273
806.478	29086
806.62	29071
806.762	29258
806.904	29284
807.046	29566
807.188	29478
807.33	29379
807.472	29425
807.614	29334
807.756	29391
807.898	29254
808.04	29296
808.182	29204
808.324	29220
808.465	29269
808.607	29307
808.749	29497
808.891	29691
809.033	29809
809.174	29687
809.316	29524
809.458	29592
809.6	29440
809.741	29737
809.883	29680
810.025	29805
810.166	29939
810.308	29923
810.45	29756
810.591	29843
810.733	29596
810.875	29459
811.016	29433
811.158	29486
811.299	29752
811.441	29714
811.582	29615
811.724	29589
811.865	29558
812.007	29668
812.148	29551
812.29	29630
812.431	29653
812.573	29942
812.714	29927
812.855	30148
812.997	30076
813.138	30304
813.279	30148
813.421	30038
813.562	30106
813.703	29862
813.845	29939
813.986	29486
814.127	29334
814.268	29284
814.41	29216
814.551	29223
814.692	29265
814.833	29147
814.974	29079
815.115	29200
815.256	29022
815.397	28953
815.539	28938
815.68	28900
815.821	28927
815.962	28934
816.103	28949
816.244	28740
816.385	28664
816.526	28706
816.666	28493
816.807	28386
816.948	28451
817.089	28554
817.23	28512
817.371	28325
817.512	28318
817.653	28310
817.793	28314
817.934	28390
818.075	28268
818.216	28344
818.356	28284
818.497	28223
818.638	28090
818.778	28036
818.919	28154
819.06	28158
819.2	28101
819.341	28177
819.481	28344
819.622	28421
819.762	28645
819.903	28622
820.043	28481
820.184	28394
820.324	28341
820.465	28500
820.605	28440
820.746	28367
820.886	28303
821.026	28280
821.167	28424
821.307	28390
821.447	28226
821.588	28120
821.728	28105
821.868	27949
822.008	27705
822.149	27793
822.289	27701
822.429	27572
822.569	27340
822.709	27332
822.849	27488
822.99	27192
823.13	27116
823.27	27028
823.41	26967
823.55	26906
823.69	27028
823.83	27039
823.97	26975
824.11	26765
824.25	26724
824.389	26826
824.529	26838
824.669	26819
824.809	26887
824.949	26864
825.089	26842
825.228	26800
825.368	26625
825.508	26644
825.648	26625
825.787	26613
825.927	26686
826.067	26644
826.206	26590
826.346	26693
826.485	26507
826.625	26564
826.765	26735
826.904	26720
827.044	26351
827.183	26412
827.323	26195
827.462	26256
827.601	26362
827.741	26374
827.88	26408
828.02	26145
828.159	26138
828.298	26206
828.437	26294
828.577	26404
828.716	26370
828.855	26202
828.994	25947
829.134	25986
829.273	25932
829.412	25944
829.551	25879
829.69	25906
829.829	26016
829.968	25966
830.107	26084
830.246	25963
830.385	25822
830.524	25757
830.663	25731
830.802	25594
830.941	25483
831.08	25525
831.219	25415
831.357	25655
831.496	25734
831.635	25403
831.774	25430
831.913	25445
832.051	25217
832.19	25365
832.329	25255
832.467	25175
832.606	24954
832.744	25069
832.883	25110
833.022	25099
833.16	25091
833.299	24989
833.437	25031
833.576	25232
833.714	25171
833.852	25160
833.991	25088
834.129	25232
834.267	25274
834.406	25137
834.544	25050
834.682	25137
834.821	24977
834.959	25206
835.097	25107
835.235	25183
835.373	25129
835.511	25095
835.65	25034
835.788	25042
835.926	24692
836.064	24673
836.202	24745
836.34	24985
836.478	25031
836.615	24928
836.753	24989
836.891	24939
837.029	24890
837.167	24905
837.305	24833
837.443	24825
837.58	24681
837.718	24897
837.856	24749
837.993	24639
838.131	24726
838.269	24486
838.406	24692
838.544	24494
838.681	24330
838.819	24448
838.956	24235
839.094	24163
839.231	24129
839.369	24285
839.506	24460
839.643	24456
839.781	24098
839.918	24148
840.055	24129
840.193	24015
840.33	24076
840.467	24057
840.604	24098
840.742	24315
840.879	23935
841.016	23980
841.153	23961
841.29	24041
841.427	24030
841.564	24079
841.701	24129
841.838	23920
841.975	23783
842.112	24022
842.249	23904
842.385	23657
842.522	24064
842.659	23703
842.796	23653
842.933	23649
843.069	23630
843.206	23661
843.343	23805
843.479	23752
843.616	23714
843.752	23410
843.889	23379
844.025	23524
844.162	23463
844.298	23551
844.435	23539
844.571	23410
844.708	23406
844.844	23558
844.98	23577
845.117	23707
845.253	23433
845.389	23345
845.525	23261
845.661	23288
845.798	23155
845.934	23212
846.07	23128
846.206	23136
846.342	23318
846.478	23048
846.614	22923
846.75	22672
846.886	22858
847.022	22889
847.158	22858
847.294	22763
847.429	22797
847.565	22877
847.701	23086
847.837	22626
847.972	22481
848.108	22603
848.244	22630
848.379	22428
848.515	22470
848.65	22402
848.786	22527
848.921	22459
849.057	22440
849.192	22459
849.328	22451
849.463	22375
849.598	22325
849.734	22181
849.869	22238
850.004	22223
850.14	22147
850.275	22234
850.41	22185
850.545	21926
850.68	22204
850.815	22169
850.95	22215
851.085	22337
851.22	22268
851.355	22128
851.49	22166
851.625	22128
851.76	22101
851.895	22074
852.03	22017
852.165	22074
852.299	22242
852.434	22207
852.569	22135
852.703	22097
852.838	22093
852.973	22280
853.107	22215
853.242	22048
853.376	22010
853.511	21846
853.645	21895
853.78	22078
853.914	21842
854.048	21911
854.183	21945
854.317	21918
854.451	22086
854.585	21816
854.72	21994
854.854	21907
854.988	21884
855.122	21930
855.256	21816
855.39	21876
855.524	21991
855.658	22002
855.792	21934
855.926	21922
856.06	22002
856.194	22078
856.327	21949
856.461	21857
856.595	21876
856.729	21876
856.862	21941
856.996	21884
857.13	21968
857.263	21945
857.397	22032
857.53	21915
857.664	22013
857.797	22078
857.931	22139
858.064	21983
858.197	21979
858.331	21975
858.464	21861
858.597	21823
858.731	21789
858.864	21797
858.997	21892
859.13	21857
859.263	21846
859.396	21934
859.529	21869
859.662	21751
859.795	21781
859.928	21873
860.061	22010
860.194	22093
860.327	21926
860.46	21804
860.592	22070
860.725	21949
860.858	21857
860.99	21911
861.123	21736
861.256	21778
861.388	21960
861.521	22516
861.653	21808
861.786	21675
861.918	21663
862.05	21892
862.183	21842
862.315	21774
862.447	21907
862.58	21751
862.712	21682
862.844	21500
862.976	21625
863.108	21705
863.24	21823
863.372	21561
863.504	21568
863.636	21523
863.768	21576
863.9	21610
864.032	21428
864.164	21504
864.296	21595
864.428	21538
864.559	21500
864.691	21519
864.823	21599
864.954	21462
865.086	21428
865.217	21610
865.349	21302
865.48	21431
865.612	21363
865.743	21633
865.875	21439
866.006	21332
866.137	21363
866.269	21454
866.4	21416
866.531	21416
866.662	21287
866.793	21397
866.924	21367
867.055	21507
867.186	21313
867.317	21321
867.448	21359
867.579	21268
867.71	21291
867.841	21218
867.972	21222
868.103	21340
868.233	21420
868.364	21302
868.495	21500
868.625	21610
868.756	21622
868.886	21462
869.017	21641
869.147	21720
869.278	21656
869.408	21610
869.539	21633
869.669	21618
869.799	21682
869.929	21759
870.06	21717
870.19	21888
870.32	21854
870.45	21842
870.58	21979
870.71	22082
870.84	22021
870.97	22067
871.1	21998
871.23	22177
871.36	22147
871.489	21975
871.619	22177
871.749	22074
871.879	22192
872.008	22211
872.138	22162
872.267	22223
872.397	22139
872.526	21987
872.656	21968
872.785	21987
872.915	22188
873.044	22306
873.173	22215
873.303	22280
873.432	22070
873.561	22242
873.69	22166
873.819	22154
873.948	22223
874.077	22196
874.206	22200
874.335	22230
874.464	22291
874.593	22390
874.722	22356
874.851	22470
874.979	22413
875.108	22512
875.237	22337
875.365	22337
875.494	22341
875.623	22485
875.751	22390
875.88	22432
876.008	22622
876.136	22569
876.265	22801
876.393	22984
876.521	22904
876.65	22919
876.778	22786
876.906	22706
877.034	22694
877.162	22923
877.29	22698
877.418	22839
877.546	22634
877.674	22748
877.802	22679
877.93	22668
878.058	22748
878.185	22607
878.313	22736
878.441	22828
878.568	22561
878.696	22759
878.824	22729
878.951	22801
879.079	22957
879.206	23052
879.333	22961
879.461	22896
879.588	22843
879.715	22999
879.842	23014
879.97	22869
880.097	22588
880.224	22485
880.351	22569
880.478	22538
880.605	22561
880.732	22413
880.859	22835
880.986	22622
881.112	22634
881.239	22485
881.366	22390
881.493	22177
881.619	22173
881.746	22287
881.872	22154
881.999	22120
882.125	22097
882.252	22215
882.378	22249
882.505	22192
882.631	22040
882.757	21926
882.883	21937
883.01	21743
883.136	21869
883.262	21660
883.388	21694
883.514	21880
883.64	21937
883.766	21861
883.892	21682
884.018	21591
884.143	21854
884.269	21857
884.395	21633
884.52	21530
884.646	21454
884.772	21428
884.897	21538
885.023	21595
885.148	21625
885.274	21557
885.399	21545
885.524	21439
885.65	21435
885.775	21469
885.9	21507
886.025	21637
886.15	21564
886.275	21405
886.4	21458
886.525	21496
886.65	21325
886.775	21416
886.9	21519
887.025	21701
887.149	21367
887.274	21283
887.399	21313
887.523	21142
887.648	21264
887.773	21127
887.897	21287
888.021	21317
888.146	21154
888.27	21230
888.395	21249
888.519	21260
888.643	21325
888.767	21233
888.891	21165
889.015	21028
889.139	21039
889.263	20925
889.387	21116
889.511	21195
889.635	21127
889.759	20929
889.883	20925
890.006	20979
890.13	21024
890.254	21005
890.377	20963
890.501	20815
890.624	20727
890.748	20769
890.871	20640
890.995	20575
891.118	20564
891.241	20594
891.364	20541
891.488	20773
891.611	20564
891.734	20617
891.857	20617
891.98	20511
892.103	20583
892.226	20556
892.349	20503
892.471	20301
892.594	20530
892.717	20564
892.839	20499
892.962	20511
893.085	20549
893.207	20446
893.33	20324
893.452	20328
893.575	20389
893.697	20396
893.819	20545
893.941	20636
894.064	20697
894.186	20343
894.308	20336
894.43	20526
894.552	20575
894.674	20594
894.796	20199
894.918	20347
895.04	20442
895.161	20541
895.283	20492
895.405	20454
895.526	20492
895.648	20385
895.769	20568
895.891	20590
896.012	20625
896.134	20495
896.255	20389
896.376	20427
896.498	20507
896.619	20495
896.74	20473
896.861	20598
896.982	20933
897.103	20944
897.224	20906
897.345	20773
897.466	20678
897.587	20781
897.708	20773
897.828	20727
897.949	20644
898.07	20606
898.19	20663
898.311	20724
898.431	20743
898.552	20693
898.672	20701
898.792	20716
898.913	20693
899.033	20571
899.153	20465
899.273	20320
899.393	20298
899.513	20393
899.633	20514
899.753	20385
899.873	20294
899.993	20408
900.113	20355
900.232	20393
900.352	20347
900.472	20298
900.591	20096
900.711	20107
900.83	20096
900.95	20290
901.069	20130
901.189	20043
901.308	19784
901.427	19696
901.546	19776
901.665	19822
901.784	19708
901.904	19525
902.023	19464
902.141	19331
902.26	19358
902.379	19274
902.498	19240
902.617	19202
902.735	19270
902.854	19152
902.973	19129
903.091	18886
903.21	18829
903.328	18863
903.446	18715
903.565	18684
903.683	18707
903.801	18540
903.919	18654
904.038	18608
904.156	18532
904.274	18494
904.392	18403
904.51	18517
904.627	18479
904.745	18414
904.863	18479
904.981	18228
905.098	18034
905.216	18057
905.334	18182
905.451	18159
905.569	18087
905.686	18178
905.803	18019
905.921	17916
906.038	18003
906.155	17893
906.272	17733
906.389	17901
906.506	17566
906.623	17615
906.74	17596
906.857	17570
906.974	17505
907.091	17707
907.208	17680
907.324	17611
907.441	17505
907.557	17353
907.674	17341
907.79	17254
907.907	17387
908.023	17345
908.139	17421
908.256	17311
908.372	17136
908.488	17223
908.604	17045
908.72	16999
908.836	17003
908.952	16911
909.068	16991
909.184	17140
909.3	16934
909.415	17064
909.531	16984
909.647	16744
909.762	16653
909.878	16611
909.993	16656
910.108	16698
910.224	16493
910.339	16687
910.454	16577
910.57	16531
910.685	16398
910.8	16752
910.915	16622
911.03	16497
911.145	16280
911.259	16261
911.374	16223
911.489	16192
911.604	16143
911.718	16029
911.833	16006
911.947	15968
912.062	15823
912.176	16055
912.291	16063
912.405	16051
912.519	16169
912.633	16181
912.748	16128
912.862	15949
912.976	15739
913.09	15660
913.204	15762
913.318	15762
913.431	15892
913.545	15941
913.659	15823
913.772	15717
913.886	15629
914	15545
914.113	15660
914.226	15713
914.34	15591
914.453	15447
914.566	15694
914.68	15534
914.793	15443
914.906	15230
915.019	15279
915.132	15119
915.245	15211
915.358	15272
915.47	15195
915.583	15252
915.696	15226
915.809	15317
915.921	15416
916.034	15150
916.146	15047
916.259	15058
916.371	15112
916.483	15146
916.595	15184
916.708	15074
916.82	15024
916.932	15039
917.044	14925
917.156	14986
917.268	14906
917.38	14857
917.491	14819
917.603	14937
917.715	14944
917.826	14952
917.938	14853
918.049	14583
918.161	14724
918.272	14868
918.384	14872
918.495	14765
918.606	14632
918.717	14518
918.828	14674
918.939	14606
919.05	14454
919.161	14564
919.272	14419
919.383	14450
919.494	14552
919.604	14792
919.715	14644
919.826	14309
919.936	14499
920.047	14583
920.157	14568
920.267	14796
920.378	14564
920.488	14393
920.598	14632
920.708	14857
920.818	14674
920.928	14533
921.038	14788
921.148	14750
921.258	14495
921.368	14408
921.477	14271
921.587	14225
921.697	14145
921.806	14294
921.916	14157
922.025	13917
922.134	13951
922.244	13902
922.353	13928
922.462	13742
922.571	13700
922.68	13582
922.789	13495
922.898	13544
923.007	13480
923.116	13506
923.224	13502
923.333	13403
923.442	13358
923.55	13251
923.659	13339
923.767	13438
923.876	13289
923.984	13369
924.092	13171
924.201	13152
924.309	13308
924.417	13320
924.525	13209
924.633	13179
924.741	13826
924.849	13042
924.956	13114
925.064	12901
925.172	12901
925.279	12859
925.387	13008
925.494	12943
925.602	13088
925.709	13031
925.816	12833
925.924	12909
926.031	12977
926.138	12897
926.245	12947
926.352	12791
926.459	12886
926.566	12909
926.673	12772
926.779	12715
926.886	12631
926.993	12540
927.099	12601
927.206	12490
927.312	12513
927.419	12547
927.525	12475
927.631	12528
927.737	12475
927.843	12285
927.95	12224
928.056	12262
928.162	12296
928.267	12346
928.373	13046
928.479	12410
928.585	12083
928.69	12235
928.796	12243
928.901	12216
929.007	12041
929.112	12239
929.218	12163
929.323	12038
929.428	12053
929.533	12129
929.638	11885
929.743	11973
929.848	11969
929.953	11901
930.058	11824
930.163	11703
930.267	11783
930.372	11897
930.477	11688
930.581	11847
930.685	11764
930.79	11577
930.894	11585
930.998	11592
931.103	11611
931.207	11311
931.311	11254
931.415	11117
931.519	10968
931.623	10934
