Data from test_V78500241_86.txt Node
Date: Fri Mar 25 15:42:23 CST 2022
User: usil
Spectrometer: V785-0024
Trigger mode: 0
Integration Time (sec): 4.000000E-1
Scans to average: 1
Nonlinearity correction enabled: false
Boxcar width: 0
Storing dark spectrum: false
XAxis mode: Wavelengths
Number of Pixels in Spectrum: 1024
>>>>>Begin Spectral Data<<<<<
801.071	30129
801.214	29870
801.356	29901
801.499	29676
801.641	29577
801.783	29551
801.926	29448
802.068	29562
802.211	29391
802.353	29425
802.496	29220
802.638	29140
802.78	29041
802.923	28930
803.065	29098
803.208	29136
803.35	29250
803.492	29326
803.635	29147
803.777	29223
803.919	29368
804.061	29516
804.204	29303
804.346	29155
804.488	29273
804.63	29246
804.773	29098
804.915	29368
805.057	29421
805.199	29159
805.341	29410
805.483	29398
805.626	29265
805.768	29280
805.91	29436
806.052	29387
806.194	29402
806.336	29535
806.478	29265
806.62	29231
806.762	29520
806.904	29528
807.046	29809
807.188	29726
807.33	29680
807.472	29908
807.614	29634
807.756	29687
807.898	29596
808.04	29665
808.182	29360
808.324	29589
808.465	29566
808.607	29745
808.749	29931
808.891	29882
809.033	30098
809.174	29927
809.316	29980
809.458	29920
809.6	29923
809.741	30038
809.883	30034
810.025	30133
810.166	30190
810.308	30144
810.45	30289
810.591	30011
810.733	30038
810.875	29767
811.016	29836
811.158	29756
811.299	30064
811.441	30144
811.582	29954
811.724	29889
811.865	29817
812.007	29855
812.148	29878
812.29	29920
812.431	30125
812.573	30209
812.714	30182
812.855	30479
812.997	30437
813.138	30654
813.279	30452
813.421	30445
813.562	30224
813.703	30041
813.845	30117
813.986	29710
814.127	29497
814.268	29501
814.41	29573
814.551	29486
814.692	29562
814.833	29345
814.974	29265
815.115	29436
815.256	29410
815.397	29223
815.539	29360
815.68	29235
815.821	29025
815.962	29204
816.103	29193
816.244	29117
816.385	28957
816.526	28877
816.666	28790
816.807	28679
816.948	28710
817.089	28637
817.23	28531
817.371	28683
817.512	28641
817.653	28485
817.793	28493
817.934	28603
818.075	28599
818.216	28523
818.356	28451
818.497	28386
818.638	28310
818.778	28257
818.919	28310
819.06	28276
819.2	28447
819.341	28603
819.481	28440
819.622	28626
819.762	28957
819.903	28736
820.043	28702
820.184	28519
820.324	28596
820.465	28542
820.605	28618
820.746	28561
820.886	28462
821.026	28592
821.167	28504
821.307	28565
821.447	28504
821.588	28356
821.728	28185
821.868	28032
822.008	27949
822.149	27903
822.289	27759
822.429	27622
822.569	27561
822.709	27538
822.849	27351
822.99	27348
823.13	27287
823.27	27336
823.41	27077
823.55	27058
823.69	27089
823.83	27070
823.97	27112
824.11	27005
824.25	26891
824.389	26998
824.529	27005
824.669	26960
824.809	27043
824.949	26990
825.089	27043
825.228	26834
825.368	26754
825.508	26678
825.648	26777
825.787	26773
825.927	26739
826.067	26670
826.206	26644
826.346	26735
826.485	26769
826.625	26823
826.765	26906
826.904	26796
827.044	26526
827.183	26412
827.323	26434
827.462	26579
827.601	26442
827.741	26244
827.88	26408
828.02	26282
828.159	26320
828.298	26381
828.437	26495
828.577	26339
828.716	26453
828.855	26233
828.994	26149
829.134	26153
829.273	26107
829.412	25913
829.551	25921
829.69	26020
829.829	26058
829.968	26012
830.107	26081
830.246	25970
830.385	25982
830.524	25906
830.663	25917
830.802	25780
830.941	25601
831.08	25632
831.219	25753
831.357	25685
831.496	25826
831.635	25540
831.774	25445
831.913	25434
832.051	25339
832.19	25369
832.329	25445
832.467	25137
832.606	25259
832.744	25088
832.883	25103
833.022	25072
833.16	25168
833.299	25343
833.437	25122
833.576	25175
833.714	25331
833.852	25244
833.991	25320
834.129	25206
834.267	25331
834.406	25225
834.544	25251
834.682	25263
834.821	25103
834.959	25293
835.097	25088
835.235	25084
835.373	25156
835.511	25053
835.65	24977
835.788	24943
835.926	24962
836.064	24783
836.202	24795
836.34	24966
836.478	25000
836.615	24859
836.753	24989
836.891	25088
837.029	24951
837.167	24920
837.305	24947
837.443	24875
837.58	24924
837.718	24981
837.856	24825
837.993	24627
838.131	24757
838.269	24669
838.406	24696
838.544	24665
838.681	24456
838.819	24380
838.956	24327
839.094	24304
839.231	24224
839.369	24388
839.506	24650
839.643	24342
839.781	24277
839.918	24072
840.055	24182
840.193	24049
840.33	24045
840.467	24171
840.604	24102
840.742	24353
840.879	23996
841.016	24053
841.153	24007
841.29	24205
841.427	23980
841.564	24011
841.701	23920
841.838	23863
841.975	23882
842.112	24087
842.249	24022
842.385	23859
842.522	24057
842.659	23859
842.796	23676
842.933	23691
843.069	23665
843.206	23771
843.343	23729
843.479	23634
843.616	23703
843.752	23493
843.889	23547
844.025	23520
844.162	23459
844.298	23634
844.435	23406
844.571	23455
844.708	23531
844.844	23619
844.98	23543
845.117	23520
845.253	23505
845.389	23326
845.525	23406
845.661	23326
845.798	23296
845.934	23258
846.07	23220
846.206	23212
846.342	23185
846.478	23212
846.614	22961
846.75	22831
846.886	22854
847.022	22915
847.158	22911
847.294	22812
847.429	22949
847.565	22911
847.701	23086
847.837	22668
847.972	22626
848.108	22645
848.244	22755
848.379	22402
848.515	22421
848.65	22561
848.786	22405
848.921	22424
849.057	22531
849.192	22409
849.328	22348
849.463	22462
849.598	22329
849.734	22413
849.869	22299
850.004	22166
850.14	22158
850.275	22162
850.41	21930
850.545	22063
850.68	22082
850.815	22112
850.95	22074
851.085	22356
851.22	22219
851.355	22177
851.49	22101
851.625	22002
851.76	22116
851.895	22017
852.03	21972
852.165	22169
852.299	22211
852.434	22196
852.569	22101
852.703	22124
852.838	22120
852.973	22188
853.107	22173
853.242	22029
853.376	21987
853.511	21926
853.645	21899
853.78	22059
853.914	21953
854.048	21922
854.183	21937
854.317	21915
854.451	21987
854.585	21956
854.72	21915
854.854	21960
854.988	21838
855.122	21953
855.256	21781
855.39	21915
855.524	22048
855.658	22074
855.792	21964
855.926	21945
856.06	21983
856.194	21960
856.327	21903
856.461	21838
856.595	21842
856.729	21759
856.862	22078
856.996	21827
857.13	21899
857.263	22044
857.397	21922
857.53	21827
857.664	21956
857.797	21922
857.931	22010
858.064	21838
858.197	21960
858.331	21854
858.464	21831
858.597	21587
858.731	21835
858.864	21903
858.997	21797
859.13	21937
859.263	21899
859.396	21930
859.529	21717
859.662	21747
859.795	21762
859.928	21778
860.061	21880
860.194	21960
860.327	21732
860.46	21854
860.592	21964
860.725	21987
860.858	21911
860.99	21876
861.123	21732
861.256	21644
861.388	21789
861.521	22386
861.653	21717
861.786	21663
861.918	21629
862.05	21823
862.183	21880
862.315	21945
862.447	21915
862.58	21823
862.712	21568
862.844	21633
862.976	21698
863.108	21500
863.24	21926
863.372	21351
863.504	21454
863.636	21458
863.768	21622
863.9	21477
864.032	21428
864.164	21511
864.296	21443
864.428	21667
864.559	21492
864.691	21485
864.823	21515
864.954	21439
865.086	21450
865.217	21523
865.349	21355
865.48	21382
865.612	21481
865.743	21439
865.875	21393
866.006	21249
866.137	21431
866.269	21351
866.4	21340
866.531	21340
866.662	21279
866.793	21291
866.924	21275
867.055	21393
867.186	21275
867.317	21214
867.448	21275
867.579	21272
867.71	21256
867.841	21287
867.972	21268
868.103	21241
868.233	21218
868.364	21279
868.495	21321
868.625	21454
868.756	21648
868.886	21389
869.017	21526
869.147	21679
869.278	21660
869.408	21610
869.539	21641
869.669	21591
869.799	21667
869.929	21671
870.06	21462
870.19	21743
870.32	21766
870.45	21907
870.58	21892
870.71	21998
870.84	21987
870.97	21861
871.1	21972
871.23	22147
871.36	22082
871.489	21956
871.619	22112
871.749	22135
871.879	22139
872.008	22128
872.138	22059
872.267	22109
872.397	21956
872.526	22010
872.656	21895
872.785	21915
872.915	22139
873.044	22352
873.173	22074
873.303	22169
873.432	22303
873.561	22284
873.69	22272
873.819	22162
873.948	22253
874.077	22044
874.206	22188
874.335	22074
874.464	22291
874.593	22284
874.722	22314
874.851	22333
874.979	22325
875.108	22500
875.237	22306
875.365	22253
875.494	22322
875.623	22512
875.751	22284
875.88	22344
876.008	22478
876.136	22531
876.265	22740
876.393	22801
876.521	22782
876.65	22919
876.778	22782
876.906	22656
877.034	22717
877.162	22653
877.29	22740
877.418	22748
877.546	22649
877.674	22664
877.802	22691
877.93	22752
878.058	22653
878.185	22504
878.313	22694
878.441	22660
878.568	22538
878.696	22516
878.824	22725
878.951	22774
879.079	22839
879.206	22923
879.333	22831
879.461	22771
879.588	22805
879.715	22793
879.842	22995
879.97	22729
880.097	22531
880.224	22588
880.351	22485
880.478	22466
880.605	22462
880.732	22561
880.859	22828
880.986	22516
881.112	22500
881.239	22337
881.366	22181
881.493	22272
881.619	22166
881.746	22154
881.872	22211
881.999	22063
882.125	21983
882.252	22135
882.378	22181
882.505	22257
882.631	22067
882.757	21934
882.883	21888
883.01	21926
883.136	21854
883.262	21717
883.388	21800
883.514	21915
883.64	21876
883.766	21800
883.892	21568
884.018	21667
884.143	21713
884.269	21869
884.395	21477
884.52	21367
884.646	21374
884.772	21450
884.897	21298
885.023	21382
885.148	21637
885.274	21625
885.399	21660
885.524	21447
885.65	21420
885.775	21458
885.9	21355
886.025	21553
886.15	21576
886.275	21233
886.4	21306
886.525	21420
886.65	21272
886.775	21443
886.9	21660
887.025	21568
887.149	21458
887.274	21161
887.399	21218
887.523	21119
887.648	21203
887.773	21020
887.897	21370
888.021	21279
888.146	21150
888.27	21294
888.395	21264
888.519	21192
888.643	21298
888.767	21165
888.891	21127
889.015	21032
889.139	20979
889.263	20853
889.387	21062
889.511	21089
889.635	21138
889.759	20937
889.883	20990
890.006	20899
890.13	20887
890.254	20956
890.377	20754
890.501	20670
890.624	20651
890.748	20705
890.871	20549
890.995	20427
891.118	20454
891.241	20454
891.364	20560
891.488	20537
891.611	20446
891.734	20503
891.857	20503
891.98	20617
892.103	20621
892.226	20488
892.349	20495
892.471	20320
892.594	20450
892.717	20503
892.839	20473
892.962	20381
893.085	20507
893.207	20423
893.33	20427
893.452	20286
893.575	20347
893.697	20358
893.819	20632
893.941	20602
894.064	20632
894.186	20328
894.308	20381
894.43	20450
894.552	20701
894.674	20480
894.796	20313
894.918	20473
895.04	20419
895.161	20446
895.283	20442
895.405	20362
895.526	20366
895.648	20400
895.769	20507
895.891	20480
896.012	20461
896.134	20423
896.255	20377
896.376	20282
896.498	20484
896.619	20537
896.74	20457
896.861	20621
896.982	20746
897.103	20925
897.224	20686
897.345	20769
897.466	20655
897.587	20682
897.708	20834
897.828	20773
897.949	20530
898.07	20522
898.19	20701
898.311	20568
898.431	20575
898.552	20598
898.672	20644
898.792	20712
898.913	20571
899.033	20400
899.153	20374
899.273	20252
899.393	20347
899.513	20389
899.633	20328
899.753	20328
899.873	20313
899.993	20374
900.113	20191
900.232	20362
900.352	20172
900.472	20172
900.591	20077
900.711	20115
900.83	20050
900.95	20206
901.069	20229
901.189	20046
901.308	19799
901.427	19693
901.546	19708
901.665	19696
901.784	19750
901.904	19651
902.023	19407
902.141	19362
902.26	19202
902.379	19266
902.498	19179
902.617	18951
902.735	19175
902.854	19114
902.973	19194
903.091	18932
903.21	18734
903.328	18852
903.446	18692
903.565	18597
903.683	18612
903.801	18502
903.919	18642
904.038	18578
904.156	18441
904.274	18483
904.392	18456
904.51	18308
904.627	18410
904.745	18494
904.863	18414
904.981	18133
905.098	18098
905.216	18022
905.334	18030
905.451	18144
905.569	17999
905.686	18038
905.803	18049
905.921	17901
906.038	17988
906.155	17878
906.272	17710
906.389	17718
906.506	17615
906.623	17634
906.74	17665
906.857	17429
906.974	17455
907.091	17608
907.208	17779
907.324	17570
907.441	17383
907.557	17395
907.674	17181
907.79	17109
907.907	17147
908.023	17246
908.139	17113
908.256	17254
908.372	17128
908.488	17045
908.604	17010
908.72	16930
908.836	16889
908.952	16942
909.068	16957
909.184	17029
909.3	16835
909.415	16919
909.531	16930
909.647	16580
909.762	16596
909.878	16554
909.993	16577
910.108	16660
910.224	16546
910.339	16603
910.454	16451
910.57	16295
910.685	16356
910.8	16634
910.915	16508
911.03	16421
911.145	16234
911.259	16280
911.374	16215
911.489	16074
911.604	16048
911.718	15937
911.833	15956
911.947	15816
912.062	15793
912.176	15876
912.291	16051
912.405	15884
912.519	16112
912.633	16044
912.748	15934
912.862	15827
912.976	15785
913.09	15656
913.204	15713
913.318	15690
913.431	15842
913.545	15622
913.659	15888
913.772	15736
913.886	15443
914	15557
914.113	15641
914.226	15591
914.34	15580
914.453	15466
914.566	15564
914.68	15473
914.793	15370
914.906	15306
915.019	15157
915.132	15077
915.245	15165
915.358	15226
915.47	15173
915.583	15146
915.696	15188
915.809	15325
915.921	15313
916.034	15043
916.146	15085
916.259	15024
916.371	15256
916.483	15188
916.595	15070
916.708	14906
916.82	14918
916.932	15017
917.044	14967
917.156	14960
917.268	14815
917.38	14891
917.491	14880
917.603	14895
917.715	14929
917.826	14891
917.938	14746
918.049	14613
918.161	14750
918.272	14876
918.384	14944
918.495	14754
918.606	14598
918.717	14587
918.828	14518
918.939	14537
919.05	14454
919.161	14568
919.272	14366
919.383	14362
919.494	14518
919.604	14705
919.715	14511
919.826	14415
919.936	14476
920.047	14598
920.157	14552
920.267	14750
920.378	14511
920.488	14377
920.598	14689
920.708	14754
920.818	14571
920.928	14636
921.038	14720
921.148	14636
921.258	14511
921.368	14366
921.477	14259
921.587	14252
921.697	14016
921.806	14237
921.916	14149
922.025	13940
922.134	13909
922.244	13807
922.353	13890
922.462	13776
922.571	13814
922.68	13537
922.789	13403
922.898	13419
923.007	13457
923.116	13502
923.224	13460
923.333	13487
923.442	13297
923.55	13339
923.659	13365
923.767	13293
923.876	13308
923.984	13369
924.092	13263
924.201	13255
924.309	13228
924.417	13301
924.525	13156
924.633	13217
924.741	13936
924.849	12993
924.956	13088
925.064	12913
925.172	12882
925.279	12897
925.387	12947
925.494	12916
925.602	13008
925.709	12928
925.816	12821
925.924	12947
926.031	12951
926.138	12833
926.245	12932
926.352	12696
926.459	13008
926.566	12878
926.673	12795
926.779	12589
926.886	12696
926.993	12410
927.099	12475
927.206	12475
927.312	12441
927.419	12536
927.525	12517
927.631	12521
927.737	12422
927.843	12391
927.95	12186
928.056	12258
928.162	12353
928.267	12399
928.373	13015
928.479	12380
928.585	12213
928.69	12144
928.796	12258
928.901	12285
929.007	11980
929.112	12121
929.218	12068
929.323	11980
929.428	12034
929.533	12064
929.638	11939
929.743	12007
929.848	12030
929.953	11912
930.058	11798
930.163	11733
930.267	11703
930.372	11889
930.477	11627
930.581	11767
930.685	11722
930.79	11539
930.894	11573
930.998	11505
931.103	11615
931.207	11330
931.311	11201
931.415	11102
931.519	10930
931.623	10938
