Data from test_V78500241_2557.txt Node
Date: Fri Mar 25 15:59:30 CST 2022
User: usil
Spectrometer: V785-0024
Trigger mode: 0
Integration Time (sec): 4.000000E-1
Scans to average: 1
Nonlinearity correction enabled: false
Boxcar width: 0
Storing dark spectrum: false
XAxis mode: Wavelengths
Number of Pixels in Spectrum: 1024
>>>>>Begin Spectral Data<<<<<
801.071	28755
801.214	28637
801.356	28599
801.499	28432
801.641	28261
801.783	28306
801.926	28261
802.068	28325
802.211	28280
802.353	28143
802.496	28013
802.638	27903
802.78	28013
802.923	27747
803.065	27854
803.208	27804
803.35	27960
803.492	28070
803.635	28166
803.777	27930
803.919	28200
804.061	28443
804.204	28299
804.346	28078
804.488	28124
804.63	28166
804.773	28112
804.915	28409
805.057	28360
805.199	28287
805.341	28249
805.483	28207
805.626	28360
805.768	28306
805.91	28341
806.052	28428
806.194	28341
806.336	28577
806.478	28329
806.62	28284
806.762	28554
806.904	28660
807.046	28904
807.188	28805
807.33	28828
807.472	29010
807.614	28839
807.756	28668
807.898	28744
808.04	28580
808.182	28607
808.324	28831
808.465	28744
808.607	28915
808.749	29083
808.891	29147
809.033	29292
809.174	29143
809.316	29117
809.458	28869
809.6	29147
809.741	29185
809.883	29143
810.025	29292
810.166	29307
810.308	29296
810.45	29254
810.591	29220
810.733	29048
810.875	29037
811.016	28980
811.158	29124
811.299	29052
811.441	29102
811.582	29246
811.724	29181
811.865	29136
812.007	29044
812.148	29197
812.29	29048
812.431	29322
812.573	29497
812.714	29433
812.855	29482
812.997	29566
813.138	29920
813.279	29718
813.421	29425
813.562	29524
813.703	29421
813.845	29398
813.986	29090
814.127	28938
814.268	28782
814.41	28793
814.551	28721
814.692	28710
814.833	28672
814.974	28706
815.115	28675
815.256	28569
815.397	28793
815.539	28694
815.68	28542
815.821	28470
815.962	28713
816.103	28641
816.244	28470
816.385	28459
816.526	28333
816.666	28196
816.807	27934
816.948	28040
817.089	28230
817.23	28268
817.371	28109
817.512	28086
817.653	28006
817.793	27968
817.934	28124
818.075	28105
818.216	28036
818.356	28177
818.497	27899
818.638	27732
818.778	27717
818.919	27926
819.06	27793
819.2	28013
819.341	28025
819.481	28116
819.622	28211
819.762	28504
819.903	28325
820.043	28314
820.184	28284
820.324	28173
820.465	28337
820.605	28253
820.746	28234
820.886	28025
821.026	28143
821.167	28268
821.307	28348
821.447	28101
821.588	28067
821.728	27861
821.868	27713
822.008	27568
822.149	27618
822.289	27542
822.429	27321
822.569	27325
822.709	27188
822.849	27036
822.99	27161
823.13	27226
823.27	26979
823.41	26788
823.55	26773
823.69	26918
823.83	26925
823.97	26758
824.11	26568
824.25	26537
824.389	26686
824.529	26720
824.669	26644
824.809	26765
824.949	26716
825.089	26792
825.228	26686
825.368	26560
825.508	26655
825.648	26617
825.787	26667
825.927	26735
826.067	26651
826.206	26575
826.346	26689
826.485	26708
826.625	26518
826.765	26731
826.904	26590
827.044	26473
827.183	26404
827.323	26328
827.462	26446
827.601	26328
827.741	26343
827.88	26393
828.02	26233
828.159	26263
828.298	26332
828.437	26309
828.577	26244
828.716	26294
828.855	26149
828.994	26024
829.134	25826
829.273	26005
829.412	26012
829.551	25917
829.69	25959
829.829	26020
829.968	26027
830.107	26100
830.246	26008
830.385	25906
830.524	25830
830.663	25887
830.802	25715
830.941	25620
831.08	25658
831.219	25655
831.357	25704
831.496	25852
831.635	25666
831.774	25567
831.913	25464
832.051	25304
832.19	25259
832.329	25358
832.467	25259
832.606	25190
832.744	25152
832.883	25335
833.022	25206
833.16	25384
833.299	25441
833.437	25430
833.576	25373
833.714	25129
833.852	25392
833.991	25324
834.129	25392
834.267	25491
834.406	25362
834.544	25365
834.682	25304
834.821	25388
834.959	25544
835.097	25373
835.235	25308
835.373	25198
835.511	25274
835.65	25145
835.788	25190
835.926	24909
836.064	25034
836.202	24928
836.34	25114
836.478	25331
836.615	25000
836.753	25091
836.891	25282
837.029	25057
837.167	25107
837.305	24924
837.443	24958
837.58	25050
837.718	25072
837.856	24992
837.993	24962
838.131	25000
838.269	24897
838.406	24863
838.544	24829
838.681	24623
838.819	24741
838.956	24544
839.094	24399
839.231	24521
839.369	24810
839.506	24924
839.643	24722
839.781	24585
839.918	24490
840.055	24555
840.193	24388
840.33	24391
840.467	24372
840.604	24330
840.742	24601
840.879	24315
841.016	24247
841.153	24254
841.29	24532
841.427	24311
841.564	24433
841.701	24285
841.838	24277
841.975	24239
842.112	24178
842.249	24110
842.385	24167
842.522	24330
842.659	24171
842.796	24038
842.933	24053
843.069	24053
843.206	24121
843.343	24148
843.479	24083
843.616	24098
843.752	23950
843.889	23851
844.025	23958
844.162	23809
844.298	24030
844.435	23794
844.571	23851
844.708	23992
844.844	24133
844.98	24083
845.117	23984
845.253	23870
845.389	23737
845.525	23794
845.661	23722
845.798	23668
845.934	23634
846.07	23703
846.206	23634
846.342	23767
846.478	23756
846.614	23467
846.75	23311
846.886	23406
847.022	23391
847.158	23315
847.294	23220
847.429	23406
847.565	23360
847.701	23551
847.837	23121
847.972	22965
848.108	23178
848.244	23200
848.379	22972
848.515	22816
848.65	22873
848.786	22987
848.921	23060
849.057	23083
849.192	22999
849.328	22999
849.463	22862
849.598	22831
849.734	22835
849.869	22786
850.004	22687
850.14	22649
850.275	22801
850.41	22649
850.545	22717
850.68	22580
850.815	22725
850.95	22713
851.085	22987
851.22	22790
851.355	22771
851.49	22660
851.625	22630
851.76	22698
851.895	22615
852.03	22691
852.165	22740
852.299	22713
852.434	22805
852.569	22725
852.703	22656
852.838	22729
852.973	22854
853.107	22778
853.242	22656
853.376	22573
853.511	22363
853.645	22382
853.78	22535
853.914	22470
854.048	22402
854.183	22447
854.317	22485
854.451	22767
854.585	22451
854.72	22634
854.854	22618
854.988	22447
855.122	22432
855.256	22382
855.39	22436
855.524	22550
855.658	22550
855.792	22592
855.926	22493
856.06	22421
856.194	22557
856.327	22466
856.461	22371
856.595	22535
856.729	22519
856.862	22656
856.996	22504
857.13	22577
857.263	22603
857.397	22634
857.53	22440
857.664	22645
857.797	22645
857.931	22645
858.064	22584
858.197	22641
858.331	22527
858.464	22436
858.597	22363
858.731	22432
858.864	22417
858.997	22443
859.13	22459
859.263	22508
859.396	22599
859.529	22557
859.662	22436
859.795	22531
859.928	22577
860.061	22618
860.194	22664
860.327	22466
860.46	22531
860.592	22557
860.725	22683
860.858	22603
860.99	22546
861.123	22261
861.256	22489
861.388	22596
861.521	23193
861.653	22386
861.786	22276
861.918	22333
862.05	22428
862.183	22493
862.315	22455
862.447	22596
862.58	22478
862.712	22150
862.844	22154
862.976	22341
863.108	22249
863.24	22641
863.372	22223
863.504	22181
863.636	22181
863.768	22371
863.9	22166
864.032	22162
864.164	22226
864.296	22154
864.428	22402
864.559	22162
864.691	22382
864.823	22154
864.954	22135
865.086	22188
865.217	22131
865.349	22105
865.48	22006
865.612	22109
865.743	22169
865.875	22166
866.006	22074
866.137	22158
866.269	22131
866.4	21972
866.531	22059
866.662	22120
866.793	21888
866.924	21960
867.055	22097
867.186	21979
867.317	22036
867.448	21956
867.579	22025
867.71	21945
867.841	21979
867.972	21899
868.103	22051
868.233	21953
868.364	22010
868.495	22109
868.625	22185
868.756	22325
868.886	22246
869.017	22238
869.147	22390
869.278	22325
869.408	22325
869.539	22360
869.669	22398
869.799	22375
869.929	22443
870.06	22417
870.19	22641
870.32	22580
870.45	22660
870.58	22702
870.71	22733
870.84	22687
870.97	22618
871.1	22683
871.23	22759
871.36	22843
871.489	22763
871.619	22850
871.749	22740
871.879	22843
872.008	22953
872.138	22839
872.267	22881
872.397	22729
872.526	22675
872.656	22809
872.785	22706
872.915	22877
873.044	22881
873.173	22873
873.303	22866
873.432	22919
873.561	23132
873.69	22885
873.819	22877
873.948	22957
874.077	22949
874.206	22820
874.335	22767
874.464	23105
874.593	23159
874.722	22953
874.851	23189
874.979	23166
875.108	23010
875.237	23075
875.365	22976
875.494	23064
875.623	23140
875.751	23033
875.88	23067
876.008	23181
876.136	23254
876.265	23501
876.393	23703
876.521	23585
876.65	23528
876.778	23531
876.906	23520
877.034	23463
877.162	23429
877.29	23539
877.418	23512
877.546	23379
877.674	23444
877.802	23398
877.93	23433
878.058	23402
878.185	23258
878.313	23334
878.441	23265
878.568	23261
878.696	23349
878.824	23471
878.951	23459
879.079	23577
879.206	23710
879.333	23566
879.461	23391
879.588	23478
879.715	23581
879.842	23596
879.97	23600
880.097	23315
880.224	23254
880.351	23353
880.478	23250
880.605	23189
880.732	23239
880.859	23501
880.986	23349
881.112	23353
881.239	23109
881.366	23052
881.493	23037
881.619	22790
881.746	22889
881.872	22831
881.999	22847
882.125	22740
882.252	22744
882.378	22835
882.505	22801
882.631	22641
882.757	22607
882.883	22557
883.01	22440
883.136	22421
883.262	22348
883.388	22405
883.514	22546
883.64	22516
883.766	22379
883.892	22219
884.018	22417
884.143	22276
884.269	22474
884.395	22223
884.52	22067
884.646	22131
884.772	22021
884.897	21930
885.023	22074
885.148	22253
885.274	22238
885.399	22257
885.524	22139
885.65	22166
885.775	22048
885.9	22188
886.025	22109
886.15	22242
886.275	22036
886.4	22074
886.525	22097
886.65	21991
886.775	21956
886.9	22207
887.025	22306
887.149	22055
887.274	21854
887.399	21945
887.523	21895
887.648	21751
887.773	21846
887.897	22082
888.021	21892
888.146	21778
888.27	21945
888.395	21934
888.519	21907
888.643	21915
888.767	21831
888.891	21751
889.015	21595
889.139	21713
889.263	21625
889.387	21789
889.511	21869
889.635	21850
889.759	21610
889.883	21686
890.006	21728
890.13	21732
890.254	21644
890.377	21606
890.501	21363
890.624	21447
890.748	21507
890.871	21386
890.995	21260
891.118	21306
891.241	21203
891.364	21226
891.488	21348
891.611	21218
891.734	21203
891.857	21252
891.98	21256
892.103	21386
892.226	21268
892.349	21135
892.471	21180
892.594	21203
892.717	21203
892.839	21176
892.962	21176
893.085	21131
893.207	21127
893.33	21096
893.452	21127
893.575	21138
893.697	21032
893.819	21291
893.941	21348
894.064	21313
894.186	21066
894.308	21005
894.43	21169
894.552	21279
894.674	21169
894.796	21024
894.918	21096
895.04	21070
895.161	21184
895.283	21192
895.405	21051
895.526	21192
895.648	21104
895.769	21123
895.891	21203
896.012	21230
896.134	21116
896.255	21207
896.376	21043
896.498	21192
896.619	21222
896.74	21199
896.861	21211
896.982	21462
897.103	21534
897.224	21378
897.345	21336
897.466	21252
897.587	21340
897.708	21492
897.828	21321
897.949	21252
898.07	21173
898.19	21256
898.311	21466
898.431	21226
898.552	21412
898.672	21393
898.792	21405
898.913	21302
899.033	21165
899.153	21161
899.273	21051
899.393	21119
899.513	21062
899.633	21074
899.753	21058
899.873	21001
899.993	21047
900.113	21135
900.232	21039
900.352	21074
900.472	20914
900.591	20731
900.711	20857
900.83	20826
900.95	20918
901.069	20876
901.189	20724
901.308	20507
901.427	20431
901.546	20442
901.665	20507
901.784	20408
901.904	20282
902.023	20180
902.141	19944
902.26	19940
902.379	20043
902.498	19883
902.617	19868
902.735	19894
902.854	19833
902.973	19826
903.091	19518
903.21	19616
903.328	19575
903.446	19544
903.565	19403
903.683	19350
903.801	19278
903.919	19187
904.038	19240
904.156	19065
904.274	19171
904.392	19091
904.51	19099
904.627	19141
904.745	19187
904.863	19274
904.981	18829
905.098	18715
905.216	18692
905.334	18783
905.451	18863
905.569	18764
905.686	18825
905.803	18722
905.921	18460
906.038	18764
906.155	18612
906.272	18479
906.389	18544
906.506	18220
906.623	18296
906.74	18159
906.857	18049
906.974	18262
907.091	18292
907.208	18407
907.324	18270
907.441	18121
907.557	17992
907.674	18019
907.79	17817
907.907	18015
908.023	17984
908.139	18038
908.256	17988
908.372	17870
908.488	17836
908.604	17748
908.72	17657
908.836	17748
908.952	17638
909.068	17627
909.184	17817
909.3	17714
909.415	17802
909.531	17802
909.647	17482
909.762	17471
909.878	17497
909.993	17421
910.108	17360
910.224	17383
910.339	17452
910.454	17311
910.57	17143
910.685	17136
910.8	17414
910.915	17235
911.03	17193
911.145	17037
911.259	16999
911.374	16957
911.489	16862
911.604	16866
911.718	16774
911.833	16771
911.947	16668
912.062	16596
912.176	16550
912.291	16713
912.405	16744
912.519	16908
912.633	16843
912.748	16736
912.862	16694
912.976	16660
913.09	16386
913.204	16592
913.318	16565
913.431	16615
913.545	16706
913.659	16588
913.772	16531
913.886	16360
914	16337
914.113	16348
914.226	16428
914.34	16398
914.453	16257
914.566	16398
914.68	16173
914.793	16188
914.906	16032
915.019	15960
915.132	15895
915.245	15956
915.358	15968
915.47	15918
915.583	15892
915.696	15911
915.809	16101
915.921	15983
916.034	15823
916.146	15819
916.259	15797
916.371	15819
916.483	15823
916.595	15667
916.708	15808
916.82	15736
916.932	15603
917.044	15652
917.156	15660
917.268	15477
917.38	15629
917.491	15477
917.603	15580
917.715	15553
917.826	15561
917.938	15401
918.049	15344
918.161	15500
918.272	15599
918.384	15648
918.495	15473
918.606	15310
918.717	15226
918.828	15332
918.939	15249
919.05	15260
919.161	15211
919.272	15093
919.383	15119
919.494	15287
919.604	15416
919.715	15268
919.826	15062
919.936	15169
920.047	15268
920.157	15218
920.267	15355
920.378	15218
920.488	15176
920.598	15351
920.708	15557
920.818	15420
920.928	15340
921.038	15458
921.148	15439
921.258	15264
921.368	15100
921.477	14998
921.587	14918
921.697	14785
921.806	14868
921.916	14712
922.025	14701
922.134	14590
922.244	14541
922.353	14629
922.462	14473
922.571	14355
922.68	14176
922.789	14267
922.898	14195
923.007	14187
923.116	14267
923.224	14172
923.333	14172
923.442	14119
923.55	14054
923.659	14176
923.767	14130
923.876	14043
923.984	14039
924.092	13871
924.201	13955
924.309	13879
924.417	13974
924.525	13913
924.633	13932
924.741	14785
924.849	13662
924.956	13890
925.064	13590
925.172	13525
925.279	13514
925.387	13586
925.494	13628
925.602	13639
925.709	13658
925.816	13518
925.924	13571
926.031	13575
926.138	13567
926.245	13662
926.352	13441
926.459	13529
926.566	13571
926.673	13388
926.779	13350
926.886	13346
926.993	13137
927.099	13156
927.206	13114
927.312	13050
927.419	13107
927.525	13118
927.631	13194
927.737	13076
927.843	12985
927.95	12878
928.056	12973
928.162	12962
928.267	12989
928.373	13502
928.479	13095
928.585	12802
928.69	12878
928.796	12928
928.901	12802
929.007	12662
929.112	12859
929.218	12692
929.323	12654
929.428	12585
929.533	12779
929.638	12616
929.743	12673
929.848	12597
929.953	12517
930.058	12475
930.163	12361
930.267	12414
930.372	12536
930.477	12243
930.581	12429
930.685	12452
930.79	12117
930.894	12224
930.998	12133
931.103	12300
931.207	11950
931.311	11836
931.415	11824
931.519	11558
931.623	11551
