Data from test_V78500241_69.txt Node
Date: Fri Mar 25 15:42:16 CST 2022
User: usil
Spectrometer: V785-0024
Trigger mode: 0
Integration Time (sec): 4.000000E-1
Scans to average: 1
Nonlinearity correction enabled: false
Boxcar width: 0
Storing dark spectrum: false
XAxis mode: Wavelengths
Number of Pixels in Spectrum: 1024
>>>>>Begin Spectral Data<<<<<
801.071	29999
801.214	29885
801.356	29695
801.499	29531
801.641	29448
801.783	29482
801.926	29562
802.068	29372
802.211	29315
802.353	29204
802.496	29056
802.638	29086
802.78	28987
802.923	28942
803.065	28965
803.208	28942
803.35	29044
803.492	29162
803.635	29159
803.777	29075
803.919	29250
804.061	29653
804.204	29254
804.346	29212
804.488	29189
804.63	29147
804.773	28900
804.915	29170
805.057	29193
805.199	29159
805.341	29326
805.483	29315
805.626	29227
805.768	29155
805.91	29337
806.052	29269
806.194	29337
806.336	29478
806.478	29277
806.62	29334
806.762	29433
806.904	29524
807.046	29783
807.188	29707
807.33	29672
807.472	29657
807.614	29551
807.756	29448
807.898	29452
808.04	29444
808.182	29398
808.324	29455
808.465	29490
808.607	29543
808.749	29741
808.891	29954
809.033	29999
809.174	29939
809.316	29714
809.458	29874
809.6	29866
809.741	29809
809.883	29920
810.025	30171
810.166	30091
810.308	30133
810.45	29969
810.591	30003
810.733	29718
810.875	29729
811.016	29623
811.158	29718
811.299	29859
811.441	29969
811.582	29935
811.724	29794
811.865	29672
812.007	29832
812.148	29741
812.29	29859
812.431	29927
812.573	30159
812.714	30296
812.855	30163
812.997	30289
813.138	30525
813.279	30079
813.421	30197
813.562	30152
813.703	29988
813.845	29992
813.986	29684
814.127	29478
814.268	29433
814.41	29554
814.551	29349
814.692	29372
814.833	29322
814.974	29356
815.115	29353
815.256	29277
815.397	29280
815.539	29178
815.68	29128
815.821	28949
815.962	28987
816.103	28953
816.244	28995
816.385	28812
816.526	28828
816.666	28615
816.807	28504
816.948	28569
817.089	28710
817.23	28500
817.371	28466
817.512	28379
817.653	28470
817.793	28322
817.934	28466
818.075	28401
818.216	28493
818.356	28356
818.497	28322
818.638	28044
818.778	28135
818.919	28135
819.06	28215
819.2	28432
819.341	28276
819.481	28363
819.622	28493
819.762	28717
819.903	28740
820.043	28474
820.184	28390
820.324	28424
820.465	28451
820.605	28489
820.746	28363
820.886	28215
821.026	28409
821.167	28314
821.307	28474
821.447	28348
821.588	28295
821.728	28223
821.868	27964
822.008	27804
822.149	27884
822.289	27766
822.429	27439
822.569	27408
822.709	27370
822.849	27222
822.99	27317
823.13	27329
823.27	27150
823.41	27036
823.55	26918
823.69	26994
823.83	27005
823.97	26914
824.11	26842
824.25	26750
824.389	26781
824.529	26823
824.669	26815
824.809	27005
824.949	26792
825.089	26948
825.228	26899
825.368	26674
825.508	26735
825.648	26621
825.787	26663
825.927	26670
826.067	26552
826.206	26492
826.346	26655
826.485	26571
826.625	26507
826.765	26686
826.904	26621
827.044	26358
827.183	26313
827.323	26153
827.462	26309
827.601	26385
827.741	26278
827.88	26202
828.02	26191
828.159	26206
828.298	26374
828.437	26347
828.577	26259
828.716	26214
828.855	26096
828.994	26073
829.134	25925
829.273	26096
829.412	25894
829.551	25894
829.69	25849
829.829	25898
829.968	25890
830.107	25951
830.246	25887
830.385	25879
830.524	25753
830.663	25552
830.802	25647
830.941	25282
831.08	25373
831.219	25403
831.357	25578
831.496	25624
831.635	25358
831.774	25373
831.913	25225
832.051	25209
832.19	25221
832.329	25122
832.467	24970
832.606	25000
832.744	24966
832.883	24985
833.022	25072
833.16	25072
833.299	24985
833.437	24966
833.576	24970
833.714	25152
833.852	25065
833.991	25171
834.129	25187
834.267	24973
834.406	25099
834.544	25031
834.682	24992
834.821	25126
834.959	25171
835.097	25000
835.235	24935
835.373	24863
835.511	24939
835.65	24871
835.788	24932
835.926	24661
836.064	24620
836.202	24612
836.34	24806
836.478	24951
836.615	24745
836.753	24814
836.891	24909
837.029	24875
837.167	24684
837.305	24627
837.443	24741
837.58	24772
837.718	24741
837.856	24776
837.993	24540
838.131	24688
838.269	24467
838.406	24692
838.544	24471
838.681	24213
838.819	24155
838.956	24133
839.094	24053
839.231	24159
839.369	24224
839.506	24452
839.643	24330
839.781	24026
839.918	23882
840.055	24087
840.193	23916
840.33	24030
840.467	23920
840.604	23931
840.742	24292
840.879	23863
841.016	24034
841.153	23916
841.29	24022
841.427	23901
841.564	23885
841.701	23923
841.838	23767
841.975	23783
842.112	23794
842.249	23729
842.385	23615
842.522	23771
842.659	23695
842.796	23623
842.933	23611
843.069	23482
843.206	23421
843.343	23630
843.479	23467
843.616	23493
843.752	23448
843.889	23364
844.025	23577
844.162	23368
844.298	23440
844.435	23288
844.571	23334
844.708	23345
844.844	23444
844.98	23376
845.117	23543
845.253	23269
845.389	23098
845.525	23185
845.661	23048
845.798	22995
845.934	23136
846.07	22995
846.206	23090
846.342	23109
846.478	23010
846.614	22710
846.75	22710
846.886	22656
847.022	22866
847.158	22744
847.294	22763
847.429	22713
847.565	22694
847.701	22972
847.837	22462
847.972	22622
848.108	22451
848.244	22542
848.379	22310
848.515	22447
848.65	22341
848.786	22344
848.921	22223
849.057	22371
849.192	22428
849.328	22257
849.463	22215
849.598	22284
849.734	22177
849.869	22128
850.004	21949
850.14	22029
850.275	21987
850.41	21975
850.545	22010
850.68	21926
850.815	21880
850.95	21922
851.085	22036
851.22	21953
851.355	21979
851.49	21911
851.625	21949
851.76	21728
851.895	21892
852.03	21785
852.165	21998
852.299	21903
852.434	22116
852.569	21865
852.703	21892
852.838	21930
852.973	22010
853.107	22150
853.242	21819
853.376	21774
853.511	21747
853.645	21743
853.78	21926
853.914	21869
854.048	21789
854.183	21766
854.317	21819
854.451	21865
854.585	21724
854.72	21679
854.854	21857
854.988	21732
855.122	21778
855.256	21587
855.39	21652
855.524	21759
855.658	21808
855.792	21648
855.926	21770
856.06	21838
856.194	21835
856.327	21587
856.461	21652
856.595	21766
856.729	21648
856.862	21895
856.996	21831
857.13	21781
857.263	21743
857.397	21717
857.53	21736
857.664	21804
857.797	21774
857.931	21846
858.064	21812
858.197	21789
858.331	21583
858.464	21671
858.597	21568
858.731	21663
858.864	21553
858.997	21686
859.13	21739
859.263	21690
859.396	21861
859.529	21690
859.662	21583
859.795	21732
859.928	21701
860.061	21797
860.194	21770
860.327	21698
860.46	21743
860.592	21709
860.725	21800
860.858	21690
860.99	21622
861.123	21568
861.256	21618
861.388	21720
861.521	22257
861.653	21496
861.786	21439
861.918	21530
862.05	21701
862.183	21698
862.315	21774
862.447	21755
862.58	21819
862.712	21424
862.844	21374
862.976	21431
863.108	21447
863.24	21766
863.372	21287
863.504	21420
863.636	21397
863.768	21359
863.9	21389
864.032	21252
864.164	21226
864.296	21523
864.428	21424
864.559	21313
864.691	21488
864.823	21386
864.954	21348
865.086	21283
865.217	21195
865.349	21108
865.48	21165
865.612	21241
865.743	21310
865.875	21135
866.006	21207
866.137	21355
866.269	21245
866.4	21294
866.531	21203
866.662	21127
866.793	21199
866.924	21195
867.055	21119
867.186	21203
867.317	21195
867.448	21108
867.579	21119
867.71	21066
867.841	21039
867.972	21237
868.103	21077
868.233	21222
868.364	21112
868.495	21207
868.625	21321
868.756	21519
868.886	21287
869.017	21378
869.147	21488
869.278	21477
869.408	21389
869.539	21313
869.669	21481
869.799	21462
869.929	21553
870.06	21329
870.19	21641
870.32	21610
870.45	21679
870.58	21953
870.71	21781
870.84	21941
870.97	21694
871.1	21739
871.23	21934
871.36	21918
871.489	21816
871.619	21823
871.749	21789
871.879	22097
872.008	22078
872.138	21953
872.267	21994
872.397	21861
872.526	21789
872.656	21888
872.785	21766
872.915	22040
873.044	22051
873.173	22040
873.303	22017
873.432	22154
873.561	22124
873.69	22025
873.819	21972
873.948	22131
874.077	21964
874.206	21983
874.335	21983
874.464	22086
874.593	22325
874.722	22257
874.851	22261
874.979	22280
875.108	22341
875.237	22139
875.365	22086
875.494	22067
875.623	22207
875.751	22192
875.88	22265
876.008	22459
876.136	22527
876.265	22664
876.393	22847
876.521	22752
876.65	22725
876.778	22687
876.906	22569
877.034	22618
877.162	22592
877.29	22519
877.418	22634
877.546	22542
877.674	22550
877.802	22519
877.93	22523
878.058	22516
878.185	22447
878.313	22611
878.441	22565
878.568	22428
878.696	22504
878.824	22542
878.951	22626
879.079	22713
879.206	22904
879.333	22630
879.461	22653
879.588	22793
879.715	22649
879.842	22877
879.97	22664
880.097	22398
880.224	22500
880.351	22409
880.478	22360
880.605	22375
880.732	22394
880.859	22577
880.986	22432
881.112	22417
881.239	22322
881.366	22295
881.493	22131
881.619	22070
881.746	22013
881.872	21812
881.999	22082
882.125	21918
882.252	22032
882.378	21930
882.505	22059
882.631	21816
882.757	21671
882.883	21797
883.01	21675
883.136	21606
883.262	21622
883.388	21504
883.514	21736
883.64	21622
883.766	21686
883.892	21500
884.018	21572
884.143	21633
884.269	21838
884.395	21542
884.52	21313
884.646	21344
884.772	21211
884.897	21146
885.023	21363
885.148	21416
885.274	21500
885.399	21370
885.524	21317
885.65	21336
885.775	21359
885.9	21302
886.025	21473
886.15	21291
886.275	21336
886.4	21165
886.525	21275
886.65	21199
886.775	21237
886.9	21336
887.025	21519
887.149	21256
887.274	21081
887.399	21119
887.523	20941
887.648	20910
887.773	20937
887.897	21211
888.021	21173
888.146	21039
888.27	21017
888.395	21245
888.519	21154
888.643	21085
888.767	21032
888.891	20956
889.015	20807
889.139	20845
889.263	20838
889.387	21051
889.511	20979
889.635	21024
889.759	20735
889.883	20788
890.006	20834
890.13	20918
890.254	20743
890.377	20880
890.501	20606
890.624	20545
890.748	20560
890.871	20461
890.995	20427
891.118	20362
891.241	20408
891.364	20488
891.488	20518
891.611	20282
891.734	20457
891.857	20522
891.98	20374
892.103	20617
892.226	20423
892.349	20381
892.471	20214
892.594	20294
892.717	20343
892.839	20218
892.962	20385
893.085	20419
893.207	20313
893.33	20058
893.452	20256
893.575	20366
893.697	20324
893.819	20484
893.941	20336
894.064	20465
894.186	20275
894.308	20278
894.43	20336
894.552	20450
894.674	20465
894.796	20221
894.918	20259
895.04	20168
895.161	20355
895.283	20370
895.405	20282
895.526	20271
895.648	20389
895.769	20347
895.891	20317
896.012	20294
896.134	20408
896.255	20381
896.376	20267
896.498	20309
896.619	20412
896.74	20294
896.861	20427
896.982	20739
897.103	20785
897.224	20659
897.345	20629
897.466	20484
897.587	20602
897.708	20571
897.828	20609
897.949	20556
898.07	20370
898.19	20503
898.311	20640
898.431	20377
898.552	20518
898.672	20537
898.792	20705
898.913	20461
899.033	20362
899.153	20347
899.273	20168
899.393	20172
899.513	20275
899.633	20142
899.753	20210
899.873	20164
899.993	20134
900.113	20214
900.232	20187
900.352	20103
900.472	20081
900.591	20024
900.711	20092
900.83	19902
900.95	20073
901.069	20176
901.189	19841
901.308	19689
901.427	19556
901.546	19624
901.665	19708
901.784	19635
901.904	19559
902.023	19415
902.141	19168
902.26	19091
902.379	19137
902.498	19118
902.617	18966
902.735	19053
902.854	19012
902.973	18977
903.091	18612
903.21	18631
903.328	18681
903.446	18555
903.565	18551
903.683	18395
903.801	18403
903.919	18471
904.038	18498
904.156	18247
904.274	18334
904.392	18190
904.51	18224
904.627	18239
904.745	18285
904.863	18292
904.981	18102
905.098	17866
905.216	17977
905.334	17946
905.451	17958
905.569	17832
905.686	18007
905.803	17931
905.921	17726
906.038	17809
906.155	17764
906.272	17699
906.389	17668
906.506	17562
906.623	17463
906.74	17421
906.857	17303
906.974	17452
907.091	17589
907.208	17547
907.324	17512
907.441	17292
907.557	17216
907.674	17159
907.79	17128
907.907	17094
908.023	17277
908.139	17166
908.256	17029
908.372	17025
908.488	17025
908.604	16999
908.72	16892
908.836	16904
908.952	16831
909.068	16687
909.184	16961
909.3	16820
909.415	16850
909.531	16850
909.647	16653
909.762	16516
909.878	16523
909.993	16580
910.108	16466
910.224	16516
910.339	16386
910.454	16413
910.57	16344
910.685	16207
910.8	16561
910.915	16489
911.03	16424
911.145	16154
911.259	16105
911.374	16071
911.489	16101
911.604	16029
911.718	15797
911.833	15911
911.947	15831
912.062	15686
912.176	15816
912.291	15956
912.405	15903
912.519	16101
912.633	16067
912.748	15873
912.862	15895
912.976	15705
913.09	15485
913.204	15557
913.318	15690
913.431	15781
913.545	15671
913.659	15759
913.772	15637
913.886	15545
914	15450
914.113	15671
914.226	15622
914.34	15572
914.453	15386
914.566	15523
914.68	15374
914.793	15424
914.906	15169
915.019	15077
915.132	15017
915.245	15135
915.358	15100
915.47	15119
915.583	15085
915.696	15097
915.809	15211
915.921	15249
916.034	15058
916.146	14963
916.259	14921
916.371	15039
916.483	15043
916.595	14941
916.708	14868
916.82	14880
916.932	14883
917.044	14918
917.156	14845
917.268	14712
917.38	14777
917.491	14659
917.603	14712
917.715	14815
917.826	14796
917.938	14705
918.049	14552
918.161	14629
918.272	14773
918.384	14807
918.495	14651
918.606	14522
918.717	14408
918.828	14522
918.939	14484
919.05	14484
919.161	14442
919.272	14263
919.383	14290
919.494	14454
919.604	14610
919.715	14450
919.826	14252
919.936	14374
920.047	14442
920.157	14499
920.267	14549
920.378	14393
920.488	14332
920.598	14556
920.708	14663
920.818	14530
920.928	14560
921.038	14701
921.148	14686
921.258	14324
921.368	14138
921.477	14092
921.587	14096
921.697	13993
921.806	14088
921.916	13951
922.025	13898
922.134	13769
922.244	13780
922.353	13807
922.462	13658
922.571	13605
922.68	13403
922.789	13422
922.898	13362
923.007	13392
923.116	13403
923.224	13377
923.333	13426
923.442	13206
923.55	13187
923.659	13240
923.767	13293
923.876	13129
923.984	13251
924.092	13141
924.201	13122
924.309	13240
924.417	13053
924.525	13080
924.633	13103
924.741	13947
924.849	12882
924.956	12996
925.064	12791
925.172	12745
925.279	12795
925.387	12882
925.494	12897
925.602	13061
925.709	12890
925.816	12665
925.924	12707
926.031	12875
926.138	12806
926.245	12806
926.352	12715
926.459	12722
926.566	12837
926.673	12692
926.779	12601
926.886	12528
926.993	12445
927.099	12311
927.206	12327
927.312	12308
927.419	12426
927.525	12357
927.631	12407
927.737	12247
927.843	12247
927.95	12194
928.056	12197
928.162	12262
928.267	12289
928.373	12863
928.479	12277
928.585	12053
928.69	12205
928.796	12262
928.901	12022
929.007	11863
929.112	12110
929.218	12083
929.323	11961
929.428	11931
929.533	12057
929.638	11817
929.743	11840
929.848	11863
929.953	11908
930.058	11798
930.163	11596
930.267	11638
930.372	11714
930.477	11528
930.581	11794
930.685	11581
930.79	11497
930.894	11543
930.998	11474
931.103	11554
931.207	11269
931.311	11189
931.415	11090
931.519	10877
931.623	10854
