Data from test_V78500241_665.txt Node
Date: Fri Mar 25 15:46:24 CST 2022
User: usil
Spectrometer: V785-0024
Trigger mode: 0
Integration Time (sec): 4.000000E-1
Scans to average: 1
Nonlinearity correction enabled: false
Boxcar width: 0
Storing dark spectrum: false
XAxis mode: Wavelengths
Number of Pixels in Spectrum: 1024
>>>>>Begin Spectral Data<<<<<
801.071	27416
801.214	27184
801.356	26899
801.499	26857
801.641	26640
801.783	26651
801.926	26777
802.068	26724
802.211	26526
802.353	26625
802.496	26328
802.638	26423
802.78	26328
802.923	26229
803.065	26145
803.208	26355
803.35	26442
803.492	26370
803.635	26495
803.777	26518
803.919	26396
804.061	26777
804.204	26575
804.346	26434
804.488	26469
804.63	26377
804.773	26358
804.915	26621
805.057	26560
805.199	26377
805.341	26575
805.483	26590
805.626	26560
805.768	26545
805.91	26533
806.052	26488
806.194	26602
806.336	26739
806.478	26575
806.62	26644
806.762	26727
806.904	26944
807.046	27074
807.188	26952
807.33	26944
807.472	27009
807.614	26910
807.756	27104
807.898	26838
808.04	26857
808.182	26724
808.324	26868
808.465	26921
808.607	27017
808.749	27161
808.891	27340
809.033	27386
809.174	27321
809.316	27283
809.458	27199
809.6	27157
809.741	27317
809.883	27332
810.025	27466
810.166	27294
810.308	27427
810.45	27420
810.591	27340
810.733	27268
810.875	27192
811.016	27028
811.158	27161
811.299	27355
811.441	27367
811.582	27351
811.724	27275
811.865	27218
812.007	27188
812.148	27226
812.29	27256
812.431	27294
812.573	27526
812.714	27568
812.855	27557
812.997	27842
813.138	27922
813.279	27854
813.421	27812
813.562	27606
813.703	27545
813.845	27481
813.986	27100
814.127	27024
814.268	26891
814.41	26853
814.551	26899
814.692	26933
814.833	26857
814.974	26735
815.115	26823
815.256	26750
815.397	26712
815.539	26743
815.68	26636
815.821	26613
815.962	26667
816.103	26754
816.244	26568
816.385	26465
816.526	26362
816.666	26153
816.807	26103
816.948	26214
817.089	26199
817.23	25932
817.371	26062
817.512	26149
817.653	26073
817.793	26100
817.934	26088
818.075	26206
818.216	26153
818.356	26172
818.497	25982
818.638	25776
818.778	25974
818.919	25799
819.06	25845
819.2	25966
819.341	26031
819.481	26153
819.622	26210
819.762	26446
819.903	26351
820.043	26240
820.184	26248
820.324	26248
820.465	26347
820.605	26263
820.746	26210
820.886	25978
821.026	26191
821.167	26210
821.307	26267
821.447	26195
821.588	26043
821.728	25986
821.868	25742
822.008	25651
822.149	25514
822.289	25704
822.429	25259
822.569	25426
822.709	25335
822.849	25175
822.99	24970
823.13	25107
823.27	24951
823.41	24890
823.55	24753
823.69	24875
823.83	25004
823.97	24810
824.11	24635
824.25	24532
824.389	24700
824.529	24772
824.669	24802
824.809	24920
824.949	24897
825.089	24798
825.228	24707
825.368	24661
825.508	24654
825.648	24631
825.787	24547
825.927	24642
826.067	24464
826.206	24460
826.346	24604
826.485	24536
826.625	24646
826.765	24719
826.904	24635
827.044	24369
827.183	24338
827.323	24251
827.462	24289
827.601	24311
827.741	24308
827.88	24311
828.02	24289
828.159	24209
828.298	24220
828.437	24422
828.577	24243
828.716	24342
828.855	24311
828.994	23786
829.134	23969
829.273	24072
829.412	23980
829.551	23969
829.69	23984
829.829	23996
829.968	24091
830.107	23999
830.246	23954
830.385	23931
830.524	23935
830.663	23733
830.802	23695
830.941	23646
831.08	23585
831.219	23817
831.357	23634
831.496	23817
831.635	23646
831.774	23592
831.913	23467
832.051	23497
832.19	23345
832.329	23520
832.467	23334
832.606	23261
832.744	23193
832.883	23269
833.022	23303
833.16	23292
833.299	23414
833.437	23273
833.576	23429
833.714	23265
833.852	23349
833.991	23391
834.129	23383
834.267	23360
834.406	23250
834.544	23341
834.682	23288
834.821	23273
834.959	23535
835.097	23280
835.235	23425
835.373	23231
835.511	23406
835.65	23121
835.788	23025
835.926	23025
836.064	23052
836.202	22968
836.34	23189
836.478	23284
836.615	23102
836.753	23227
836.891	23185
837.029	23246
837.167	23102
837.305	23090
837.443	23075
837.58	22923
837.718	22938
837.856	22930
837.993	22946
838.131	23029
838.269	22866
838.406	22915
838.544	22927
838.681	22698
838.819	22588
838.956	22478
839.094	22348
839.231	22474
839.369	22656
839.506	22919
839.643	22725
839.781	22451
839.918	22413
840.055	22554
840.193	22523
840.33	22405
840.467	22440
840.604	22451
840.742	22611
840.879	22211
841.016	22363
841.153	22356
841.29	22451
841.427	22363
841.564	22409
841.701	22394
841.838	22379
841.975	22303
842.112	22306
842.249	22196
842.385	22166
842.522	22421
842.659	22276
842.796	22238
842.933	22143
843.069	22143
843.206	22086
843.343	22280
843.479	22344
843.616	22120
843.752	21945
843.889	21937
844.025	21956
844.162	21785
844.298	22036
844.435	21979
844.571	21987
844.708	21907
844.844	22112
844.98	22048
845.117	22029
845.253	21846
845.389	21743
845.525	21975
845.661	21850
845.798	21644
845.934	21751
846.07	21728
846.206	21663
846.342	21736
846.478	21641
846.614	21439
846.75	21393
846.886	21466
847.022	21488
847.158	21389
847.294	21340
847.429	21408
847.565	21447
847.701	21572
847.837	21108
847.972	21089
848.108	21249
848.244	21218
848.379	21203
848.515	21032
848.65	21074
848.786	21051
848.921	21081
849.057	21077
849.192	20994
849.328	21089
849.463	21096
849.598	21005
849.734	20899
849.869	20697
850.004	20762
850.14	20830
850.275	20724
850.41	20655
850.545	20667
850.68	20746
850.815	20823
850.95	20705
851.085	20963
851.22	20857
851.355	20811
851.49	20659
851.625	20663
851.76	20750
851.895	20701
852.03	20697
852.165	20792
852.299	20834
852.434	20929
852.569	20868
852.703	20895
852.838	20857
852.973	20895
853.107	20906
853.242	20651
853.376	20602
853.511	20583
853.645	20590
853.78	20762
853.914	20674
854.048	20514
854.183	20644
854.317	20651
854.451	20842
854.585	20648
854.72	20583
854.854	20644
854.988	20526
855.122	20667
855.256	20518
855.39	20560
855.524	20708
855.658	20705
855.792	20693
855.926	20518
856.06	20530
856.194	20712
856.327	20476
856.461	20442
856.595	20514
856.729	20533
856.862	20579
856.996	20518
857.13	20686
857.263	20682
857.397	20594
857.53	20556
857.664	20602
857.797	20617
857.931	20735
858.064	20640
858.197	20682
858.331	20594
858.464	20530
858.597	20484
858.731	20625
858.864	20602
858.997	20606
859.13	20720
859.263	20590
859.396	20697
859.529	20545
859.662	20469
859.795	20587
859.928	20537
860.061	20758
860.194	20777
860.327	20632
860.46	20549
860.592	20781
860.725	20746
860.858	20609
860.99	20568
861.123	20461
861.256	20450
861.388	20579
861.521	21192
861.653	20473
861.786	20377
861.918	20381
862.05	20644
862.183	20488
862.315	20526
862.447	20670
862.58	20644
862.712	20355
862.844	20218
862.976	20412
863.108	20351
863.24	20697
863.372	20218
863.504	20309
863.636	20278
863.768	20332
863.9	20358
864.032	20191
864.164	20138
864.296	20301
864.428	20339
864.559	20419
864.691	20313
864.823	20339
864.954	20320
865.086	20336
865.217	20225
865.349	20172
865.48	20210
865.612	20202
865.743	20457
865.875	20149
866.006	20202
866.137	20164
866.269	20168
866.4	20237
866.531	20126
866.662	20153
866.793	20126
866.924	20176
867.055	20229
867.186	20229
867.317	20096
867.448	20176
867.579	20153
867.71	20039
867.841	20119
867.972	20153
868.103	20267
868.233	20282
868.364	20153
868.495	20161
868.625	20328
868.756	20488
868.886	20290
869.017	20286
869.147	20427
869.278	20438
869.408	20454
869.539	20358
869.669	20465
869.799	20533
869.929	20537
870.06	20480
870.19	20640
870.32	20762
870.45	20621
870.58	20834
870.71	21032
870.84	20811
870.97	20872
871.1	20804
871.23	20960
871.36	20971
871.489	20842
871.619	21001
871.749	21058
871.879	21024
872.008	21055
872.138	20891
872.267	20986
872.397	20914
872.526	20777
872.656	20868
872.785	20739
872.915	21062
873.044	21081
873.173	21043
873.303	21119
873.432	20998
873.561	21157
873.69	21058
873.819	21036
873.948	21020
874.077	21169
874.206	20929
874.335	21089
874.464	21169
874.593	21260
874.722	21283
874.851	21321
874.979	21321
875.108	21367
875.237	21264
875.365	21123
875.494	21184
875.623	21287
875.751	21207
875.88	21268
876.008	21389
876.136	21454
876.265	21698
876.393	21785
876.521	21812
876.65	21766
876.778	21694
876.906	21523
877.034	21428
877.162	21591
877.29	21469
877.418	21538
877.546	21797
877.674	21557
877.802	21663
877.93	21656
878.058	21523
878.185	21545
878.313	21519
878.441	21595
878.568	21431
878.696	21648
878.824	21644
878.951	21663
879.079	21732
879.206	21884
879.333	21778
879.461	21682
879.588	21770
879.715	21728
879.842	21899
879.97	21591
880.097	21454
880.224	21466
880.351	21485
880.478	21561
880.605	21408
880.732	21306
880.859	21633
880.986	21488
881.112	21428
881.239	21382
881.366	21180
881.493	21116
881.619	21154
881.746	21058
881.872	21005
881.999	20944
882.125	20990
882.252	21062
882.378	21039
882.505	21077
882.631	20876
882.757	20708
882.883	20876
883.01	20773
883.136	20667
883.262	20644
883.388	20587
883.514	20750
883.64	20773
883.766	20571
883.892	20412
884.018	20480
884.143	20724
884.269	20826
884.395	20427
884.52	20438
884.646	20412
884.772	20294
884.897	20244
885.023	20336
885.148	20469
885.274	20454
885.399	20522
885.524	20446
885.65	20317
885.775	20499
885.9	20400
886.025	20393
886.15	20442
886.275	20358
886.4	20275
886.525	20351
886.65	20263
886.775	20374
886.9	20492
887.025	20556
887.149	20434
887.274	20138
887.399	20214
887.523	20149
887.648	20065
887.773	20149
887.897	20256
888.021	20290
888.146	20050
888.27	20267
888.395	20294
888.519	20187
888.643	20161
888.767	20153
888.891	20161
889.015	20054
889.139	20142
889.263	19978
889.387	20176
889.511	20142
889.635	19951
889.759	19986
889.883	19955
890.006	19951
890.13	20024
890.254	19860
890.377	20020
890.501	19791
890.624	19738
890.748	19784
890.871	19613
890.995	19613
891.118	19521
891.241	19468
891.364	19639
891.488	19689
891.611	19445
891.734	19506
891.857	19632
891.98	19594
892.103	19544
892.226	19594
892.349	19422
892.471	19415
892.594	19537
892.717	19441
892.839	19369
892.962	19495
893.085	19499
893.207	19449
893.33	19240
893.452	19525
893.575	19567
893.697	19499
893.819	19582
893.941	19712
894.064	19655
894.186	19438
894.308	19388
894.43	19430
894.552	19655
894.674	19563
894.796	19346
894.918	19449
895.04	19445
895.161	19605
895.283	19422
895.405	19411
895.526	19415
895.648	19438
895.769	19559
895.891	19483
896.012	19601
896.134	19613
896.255	19563
896.376	19495
896.498	19472
896.619	19601
896.74	19506
896.861	19487
896.982	19864
897.103	19967
897.224	19826
897.345	19609
897.466	19613
897.587	19693
897.708	19833
897.828	19811
897.949	19658
898.07	19639
898.19	19742
898.311	19750
898.431	19788
898.552	19647
898.672	19913
898.792	19868
898.913	19742
899.033	19719
899.153	19521
899.273	19460
899.393	19377
899.513	19594
899.633	19521
899.753	19510
899.873	19468
899.993	19533
900.113	19445
900.232	19495
900.352	19457
900.472	19396
900.591	19247
900.711	19251
900.83	19247
900.95	19377
901.069	19445
901.189	19225
901.308	18966
901.427	18817
901.546	18890
901.665	18985
901.784	18897
901.904	18776
902.023	18738
902.141	18399
902.26	18422
902.379	18407
902.498	18262
902.617	18319
902.735	18388
902.854	18346
902.973	18247
903.091	18110
903.21	18022
903.328	18064
903.446	17992
903.565	17912
903.683	17866
903.801	17813
903.919	17901
904.038	17870
904.156	17657
904.274	17726
904.392	17566
904.51	17585
904.627	17535
904.745	17623
904.863	17722
904.981	17387
905.098	17402
905.216	17345
905.334	17444
905.451	17261
905.569	17269
905.686	17345
905.803	17303
905.921	17071
906.038	17098
906.155	17090
906.272	16995
906.389	17098
906.506	16843
906.623	16858
906.74	16782
906.857	16748
906.974	16675
907.091	16892
907.208	16953
907.324	16744
907.441	16656
907.557	16729
907.674	16577
907.79	16451
907.907	16504
908.023	16527
908.139	16561
908.256	16493
908.372	16436
908.488	16386
908.604	16390
908.72	16272
908.836	16272
908.952	16249
909.068	16325
909.184	16402
909.3	16348
909.415	16348
909.531	16284
909.647	16074
909.762	15930
909.878	16006
909.993	15945
910.108	16032
910.224	15964
910.339	15987
910.454	15926
910.57	15842
910.685	15728
910.8	16025
910.915	15949
911.03	15800
911.145	15675
911.259	15534
911.374	15675
911.489	15633
911.604	15515
911.718	15325
911.833	15370
911.947	15294
912.062	15241
912.176	15412
912.291	15450
912.405	15435
912.519	15504
912.633	15549
912.748	15416
912.862	15336
912.976	15214
913.09	15032
913.204	15081
913.318	15203
913.431	15214
913.545	15207
913.659	15264
913.772	15207
913.886	15058
914	15005
914.113	15001
914.226	15138
914.34	15036
914.453	14845
914.566	15116
914.68	14842
914.793	14807
914.906	14678
915.019	14613
915.132	14571
915.245	14606
915.358	14655
915.47	14560
915.583	14545
915.696	14545
915.809	14701
915.921	14804
916.034	14571
916.146	14427
916.259	14442
916.371	14663
916.483	14571
916.595	14488
916.708	14530
916.82	14484
916.932	14419
917.044	14419
917.156	14400
917.268	14385
917.38	14328
917.491	14305
917.603	14328
917.715	14366
917.826	14374
917.938	14244
918.049	14191
918.161	14282
918.272	14431
918.384	14385
918.495	14221
918.606	14081
918.717	14046
918.828	14062
918.939	14092
919.05	13986
919.161	14092
919.272	13833
919.383	13894
919.494	14050
919.604	14263
919.715	14084
919.826	14054
919.936	14027
920.047	14092
920.157	14024
920.267	14164
920.378	13951
920.488	14001
920.598	14168
920.708	14351
920.818	14187
920.928	14267
921.038	14282
921.148	14202
921.258	14035
921.368	13944
921.477	13883
921.587	13696
921.697	13628
921.806	13822
921.916	13727
922.025	13487
922.134	13453
922.244	13453
922.353	13438
922.462	13396
922.571	13225
922.68	13145
922.789	13118
922.898	13034
923.007	12996
923.116	13084
923.224	13137
923.333	13046
923.442	12935
923.55	12817
923.659	12962
923.767	12943
923.876	12878
923.984	12958
924.092	12817
924.201	12840
924.309	12867
924.417	12909
924.525	12734
924.633	12833
924.741	13495
924.849	12464
924.956	12760
925.064	12536
925.172	12422
925.279	12544
925.387	12589
925.494	12570
925.602	12639
925.709	12547
925.816	12464
925.924	12388
926.031	12521
926.138	12441
926.245	12422
926.352	12422
926.459	12460
926.566	12498
926.673	12380
926.779	12334
926.886	12228
926.993	12167
927.099	12087
927.206	12117
927.312	12064
927.419	12136
927.525	12121
927.631	12117
927.737	11969
927.843	12003
927.95	11901
928.056	11939
928.162	11961
928.267	12041
928.373	12646
928.479	11965
928.585	11794
928.69	11813
928.796	11961
928.901	11813
929.007	11707
929.112	11756
929.218	11699
929.323	11737
929.428	11710
929.533	11874
929.638	11623
929.743	11573
929.848	11676
929.953	11634
930.058	11436
930.163	11356
930.267	11337
930.372	11543
930.477	11376
930.581	11547
930.685	11410
930.79	11326
930.894	11296
930.998	11242
931.103	11315
931.207	11003
931.311	10904
931.415	10858
931.519	10668
931.623	10698
