Data from test_V78500241_831.txt Node
Date: Fri Mar 25 15:47:33 CST 2022
User: usil
Spectrometer: V785-0024
Trigger mode: 0
Integration Time (sec): 4.000000E-1
Scans to average: 1
Nonlinearity correction enabled: false
Boxcar width: 0
Storing dark spectrum: false
XAxis mode: Wavelengths
Number of Pixels in Spectrum: 1024
>>>>>Begin Spectral Data<<<<<
801.071	26918
801.214	26724
801.356	26537
801.499	26480
801.641	26339
801.783	26362
801.926	26552
802.068	26313
802.211	26347
802.353	26138
802.496	25944
802.638	26020
802.78	25947
802.923	25894
803.065	26024
803.208	25890
803.35	25970
803.492	26153
803.635	26111
803.777	26058
803.919	26092
804.061	26400
804.204	26100
804.346	26062
804.488	26016
804.63	26202
804.773	25989
804.915	26024
805.057	26012
805.199	26039
805.341	26062
805.483	26237
805.626	26229
805.768	26172
805.91	26180
806.052	26229
806.194	26206
806.336	26320
806.478	26282
806.62	26191
806.762	26343
806.904	26518
807.046	26724
807.188	26629
807.33	26530
807.472	26598
807.614	26495
807.756	26518
807.898	26545
808.04	26343
808.182	26434
808.324	26545
808.465	26598
808.607	26682
808.749	26792
808.891	26952
809.033	27005
809.174	27017
809.316	26826
809.458	26792
809.6	26800
809.741	26842
809.883	26918
810.025	27093
810.166	27142
810.308	27127
810.45	26963
810.591	26918
810.733	26720
810.875	26727
811.016	26667
811.158	26674
811.299	26986
811.441	27017
811.582	26994
811.724	26765
811.865	26853
812.007	26781
812.148	26876
812.29	26807
812.431	27020
812.573	27154
812.714	27272
812.855	27203
812.997	27408
813.138	27496
813.279	27561
813.421	27397
813.562	27355
813.703	27161
813.845	27055
813.986	26918
814.127	26419
814.268	26423
814.41	26434
814.551	26396
814.692	26480
814.833	26461
814.974	26396
815.115	26324
815.256	26286
815.397	26256
815.539	26206
815.68	26180
815.821	26145
815.962	26077
816.103	26267
816.244	26084
816.385	25989
816.526	25982
816.666	25849
816.807	25693
816.948	25917
817.089	25845
817.23	25750
817.371	25685
817.512	25670
817.653	25677
817.793	25632
817.934	25681
818.075	25822
818.216	25677
818.356	25795
818.497	25552
818.638	25426
818.778	25491
818.919	25426
819.06	25559
819.2	25407
819.341	25704
819.481	25597
819.622	25864
819.762	26005
819.903	25951
820.043	25890
820.184	25830
820.324	25795
820.465	25833
820.605	25780
820.746	25753
820.886	25594
821.026	25704
821.167	25750
821.307	25909
821.447	25670
821.588	25525
821.728	25438
821.868	25388
822.008	25148
822.149	25141
822.289	25088
822.429	24920
822.569	24897
822.709	24821
822.849	24677
822.99	24753
823.13	24658
823.27	24566
823.41	24570
823.55	24224
823.69	24422
823.83	24448
823.97	24346
824.11	24254
824.25	24270
824.389	24201
824.529	24357
824.669	24251
824.809	24486
824.949	24399
825.089	24433
825.228	24327
825.368	24194
825.508	24129
825.648	24152
825.787	24095
825.927	24194
826.067	24076
826.206	24072
826.346	24270
826.485	24167
826.625	24117
826.765	24414
826.904	24197
827.044	23851
827.183	23893
827.323	23870
827.462	23946
827.601	23885
827.741	23847
827.88	23851
828.02	23623
828.159	23882
828.298	23901
828.437	23809
828.577	23863
828.716	23927
828.855	23771
828.994	23596
829.134	23600
829.273	23646
829.412	23531
829.551	23543
829.69	23512
829.829	23611
829.968	23653
830.107	23680
830.246	23455
830.385	23505
830.524	23440
830.663	23486
830.802	23292
830.941	23060
831.08	23029
831.219	23124
831.357	23132
831.496	23505
831.635	23124
831.774	23044
831.913	23014
832.051	22812
832.19	22896
832.329	22847
832.467	22889
832.606	22771
832.744	22793
832.883	22843
833.022	22786
833.16	22908
833.299	22953
833.437	22801
833.576	22946
833.714	22866
833.852	22919
833.991	23060
834.129	22965
834.267	22995
834.406	22858
834.544	22877
834.682	22839
834.821	22759
834.959	22984
835.097	22812
835.235	22961
835.373	22748
835.511	22919
835.65	22858
835.788	22679
835.926	22577
836.064	22508
836.202	22557
836.34	22679
836.478	22755
836.615	22816
836.753	22733
836.891	22835
837.029	22717
837.167	22634
837.305	22508
837.443	22649
837.58	22497
837.718	22630
837.856	22660
837.993	22481
838.131	22683
838.269	22481
838.406	22500
838.544	22363
838.681	22299
838.819	22211
838.956	21949
839.094	22097
839.231	22150
839.369	22223
839.506	22440
839.643	22253
839.781	22044
839.918	21972
840.055	21937
840.193	21975
840.33	22036
840.467	22048
840.604	22036
840.742	22333
840.879	21819
841.016	22029
841.153	21892
841.29	22112
841.427	21911
841.564	22086
841.701	22059
841.838	21873
841.975	21861
842.112	21903
842.249	21861
842.385	21610
842.522	22036
842.659	21762
842.796	21759
842.933	21770
843.069	21686
843.206	21717
843.343	21842
843.479	21667
843.616	21770
843.752	21466
843.889	21492
844.025	21526
844.162	21481
844.298	21504
844.435	21523
844.571	21469
844.708	21526
844.844	21580
844.98	21812
845.117	21553
845.253	21462
845.389	21382
845.525	21363
845.661	21317
845.798	21165
845.934	21428
846.07	21230
846.206	21279
846.342	21256
846.478	21306
846.614	21051
846.75	21005
846.886	20975
847.022	21100
847.158	20967
847.294	21009
847.429	21176
847.565	21001
847.701	21218
847.837	20705
847.972	20644
848.108	20811
848.244	20826
848.379	20587
848.515	20438
848.65	20594
848.786	20640
848.921	20571
849.057	20758
849.192	20632
849.328	20606
849.463	20598
849.598	20560
849.734	20549
849.869	20484
850.004	20396
850.14	20480
850.275	20381
850.41	20263
850.545	20320
850.68	20396
850.815	20271
850.95	20358
851.085	20537
851.22	20438
851.355	20294
851.49	20343
851.625	20343
851.76	20301
851.895	20271
852.03	20317
852.165	20370
852.299	20343
852.434	20404
852.569	20412
852.703	20358
852.838	20305
852.973	20404
853.107	20419
853.242	20256
853.376	20115
853.511	20107
853.645	20229
853.78	20153
853.914	20111
854.048	20149
854.183	20176
854.317	20267
854.451	20294
854.585	20149
854.72	20145
854.854	20267
854.988	20065
855.122	20111
855.256	20073
855.39	20237
855.524	20233
855.658	20294
855.792	20183
855.926	20210
856.06	20252
856.194	20282
856.327	20145
856.461	20119
856.595	20073
856.729	20092
856.862	20180
856.996	20168
857.13	20271
857.263	20259
857.397	20225
857.53	20149
857.664	20313
857.797	20427
857.931	20278
858.064	20191
858.197	20256
858.331	20218
858.464	20161
858.597	20130
858.731	20119
858.864	20153
858.997	20027
859.13	20115
859.263	20240
859.396	20317
859.529	20164
859.662	20172
859.795	20149
859.928	20103
860.061	20324
860.194	20271
860.327	20259
860.46	20202
860.592	20237
860.725	20377
860.858	20290
860.99	20244
861.123	20073
861.256	20142
861.388	20081
861.521	20800
861.653	19997
861.786	19913
861.918	19982
862.05	20092
862.183	20100
862.315	20145
862.447	20214
862.58	19993
862.712	19940
862.844	19856
862.976	20115
863.108	20031
863.24	20415
863.372	19875
863.504	19963
863.636	19955
863.768	19993
863.9	19906
864.032	19906
864.164	19947
864.296	19868
864.428	20046
864.559	19989
864.691	19997
864.823	19864
864.954	19887
865.086	19894
865.217	19860
865.349	19830
865.48	19788
865.612	19833
865.743	19978
865.875	19898
866.006	19769
866.137	19833
866.269	19917
866.4	19769
866.531	19776
866.662	19742
866.793	19761
866.924	19723
867.055	19791
867.186	19757
867.317	19837
867.448	19616
867.579	19814
867.71	19860
867.841	19746
867.972	19818
868.103	19788
868.233	19795
868.364	19902
868.495	19807
868.625	19932
868.756	20115
868.886	19963
869.017	20043
869.147	20084
869.278	20187
869.408	20058
869.539	20054
869.669	20111
869.799	20039
869.929	20138
870.06	20031
870.19	20473
870.32	20271
870.45	20370
870.58	20434
870.71	20446
870.84	20549
870.97	20396
871.1	20347
871.23	20663
871.36	20590
871.489	20568
871.619	20583
871.749	20598
871.879	20587
872.008	20743
872.138	20625
872.267	20579
872.397	20450
872.526	20461
872.656	20442
872.785	20450
872.915	20533
873.044	20743
873.173	20552
873.303	20739
873.432	20613
873.561	20678
873.69	20712
873.819	20651
873.948	20655
874.077	20594
874.206	20545
874.335	20602
874.464	20815
874.593	20743
874.722	20815
874.851	20960
874.979	20819
875.108	20899
875.237	20788
875.365	20777
875.494	20823
875.623	21028
875.751	20800
875.88	20986
876.008	20971
876.136	21089
876.265	21344
876.393	21466
876.521	21367
876.65	21363
876.778	21344
876.906	21317
877.034	21214
877.162	21161
877.29	21089
877.418	21211
877.546	21287
877.674	21294
877.802	21264
877.93	21237
878.058	21222
878.185	21028
878.313	21199
878.441	21184
878.568	21138
878.696	21081
878.824	21291
878.951	21279
879.079	21450
879.206	21485
879.333	21473
879.461	21127
879.588	21283
879.715	21393
879.842	21462
879.97	21351
880.097	20963
880.224	20990
880.351	21028
880.478	21131
880.605	20895
880.732	20864
880.859	21294
880.986	21089
881.112	21192
881.239	20998
881.366	20777
881.493	20720
881.619	20579
881.746	20743
881.872	20682
881.999	20606
882.125	20575
882.252	20720
882.378	20644
882.505	20659
882.631	20469
882.757	20370
882.883	20332
883.01	20446
883.136	20332
883.262	20210
883.388	20244
883.514	20408
883.64	20396
883.766	20339
883.892	20138
884.018	20244
884.143	20252
884.269	20454
884.395	20092
884.52	19974
884.646	19951
884.772	19986
884.897	19898
885.023	20073
885.148	20138
885.274	20256
885.399	20088
885.524	19967
885.65	19932
885.775	20024
885.9	19974
886.025	20130
886.15	20142
886.275	19955
886.4	19932
886.525	19974
886.65	19951
886.775	19902
886.9	20115
887.025	20252
887.149	19978
887.274	19776
887.399	19795
887.523	19830
887.648	19803
887.773	19799
887.897	19830
888.021	19947
888.146	19727
888.27	19856
888.395	19925
888.519	19765
888.643	19734
888.767	19742
888.891	19662
889.015	19563
889.139	19666
889.263	19658
889.387	19597
889.511	19818
889.635	19700
889.759	19529
889.883	19639
890.006	19582
890.13	19651
890.254	19487
890.377	19453
890.501	19396
890.624	19327
890.748	19407
890.871	19308
890.995	19228
891.118	19091
891.241	19297
891.364	19008
891.488	19240
891.611	19141
891.734	19228
891.857	19308
891.98	19206
892.103	19270
892.226	19126
892.349	19156
892.471	18935
892.594	19126
892.717	19198
892.839	19107
892.962	19126
893.085	19194
893.207	19179
893.33	19076
893.452	19088
893.575	19251
893.697	19061
893.819	19236
893.941	19308
894.064	19301
894.186	19053
894.308	19137
894.43	19194
894.552	19308
894.674	19240
894.796	19031
894.918	19148
895.04	19069
895.161	19225
895.283	19183
895.405	19091
895.526	19031
895.648	19118
895.769	19198
895.891	19206
896.012	19179
896.134	19251
896.255	19152
896.376	19137
896.498	19145
896.619	19232
896.74	19065
896.861	19285
896.982	19620
897.103	19708
897.224	19483
897.345	19449
897.466	19320
897.587	19403
897.708	19537
897.828	19434
897.949	19346
898.07	19213
898.19	19297
898.311	19400
898.431	19354
898.552	19388
898.672	19495
898.792	19388
898.913	19297
899.033	19331
899.153	19225
899.273	19171
899.393	19129
899.513	19289
899.633	19156
899.753	19129
899.873	19080
899.993	19141
900.113	19141
900.232	19187
900.352	19110
900.472	19137
900.591	18966
900.711	18920
900.83	18932
900.95	19072
901.069	19023
901.189	18806
901.308	18639
901.427	18589
901.546	18521
901.665	18521
901.784	18601
901.904	18334
902.023	18311
902.141	18152
902.26	18087
902.379	18167
902.498	18038
902.617	18030
902.735	18171
902.854	18060
902.973	17992
903.091	17779
903.21	17703
903.328	17794
903.446	17695
903.565	17661
903.683	17589
903.801	17429
903.919	17459
904.038	17501
904.156	17360
904.274	17395
904.392	17345
904.51	17284
904.627	17261
904.745	17448
904.863	17414
904.981	17147
905.098	16987
905.216	17052
905.334	16995
905.451	17025
905.569	17025
905.686	16987
905.803	17018
905.921	16683
906.038	16904
906.155	16850
906.272	16744
906.389	16763
906.506	16516
906.623	16550
906.74	16481
906.857	16443
906.974	16394
907.091	16577
907.208	16611
907.324	16558
907.441	16462
907.557	16242
907.674	16268
907.79	16143
907.907	16230
908.023	16287
908.139	16219
908.256	16219
908.372	16105
908.488	16177
908.604	16013
908.72	15968
908.836	15987
908.952	15991
909.068	16025
909.184	16101
909.3	15983
909.415	16101
909.531	15956
909.647	15755
909.762	15762
909.878	15660
909.993	15720
910.108	15682
910.224	15675
910.339	15652
910.454	15595
910.57	15599
910.685	15454
910.8	15747
910.915	15660
911.03	15584
911.145	15378
911.259	15344
911.374	15317
911.489	15192
911.604	15131
911.718	15028
911.833	15085
911.947	15009
912.062	14948
912.176	15131
912.291	14998
912.405	15093
912.519	15302
912.633	15302
912.748	15127
912.862	15058
912.976	14868
913.09	14731
913.204	14864
913.318	14925
913.431	15028
913.545	14994
913.659	14948
913.772	14887
913.886	14758
914	14670
914.113	14895
914.226	14838
914.34	14735
914.453	14587
914.566	14746
914.68	14655
914.793	14522
914.906	14465
915.019	14366
915.132	14347
915.245	14317
915.358	14377
915.47	14355
915.583	14252
915.696	14393
915.809	14339
915.921	14370
916.034	14320
916.146	14271
916.259	14202
916.371	14347
916.483	14324
916.595	14218
916.708	14119
916.82	14183
916.932	14073
917.044	14180
917.156	14134
917.268	13989
917.38	14016
917.491	13936
917.603	13986
917.715	14142
917.826	14161
917.938	13955
918.049	13940
918.161	13947
918.272	14126
918.384	14001
918.495	13951
918.606	13761
918.717	13693
918.828	13849
918.939	13883
919.05	13750
919.161	13814
919.272	13670
919.383	13613
919.494	13860
919.604	14005
919.715	13769
919.826	13734
919.936	13708
920.047	13909
920.157	13818
920.267	13982
920.378	13818
920.488	13814
920.598	13951
920.708	14050
920.818	13902
920.928	13890
921.038	13993
921.148	14081
921.258	13761
921.368	13605
921.477	13616
921.587	13441
921.697	13476
921.806	13571
921.916	13369
922.025	13183
922.134	13190
922.244	13145
922.353	13251
922.462	13057
922.571	13034
922.68	12867
922.789	12852
922.898	12798
923.007	12795
923.116	12882
923.224	12886
923.333	12878
923.442	12627
923.55	12692
923.659	12631
923.767	12715
923.876	12616
923.984	12707
924.092	12627
924.201	12658
924.309	12684
924.417	12570
924.525	12544
924.633	12536
924.741	13460
924.849	12380
924.956	12475
925.064	12369
925.172	12258
925.279	12254
925.387	12319
925.494	12342
925.602	12433
925.709	12315
925.816	12216
925.924	12239
926.031	12353
926.138	12201
926.245	12285
926.352	12148
926.459	12330
926.566	12369
926.673	12152
926.779	12072
926.886	12060
926.993	11965
927.099	11885
927.206	11828
927.312	11771
927.419	11999
927.525	11923
927.631	11942
927.737	11771
927.843	11680
927.95	11691
928.056	11786
928.162	11748
928.267	11798
928.373	12422
928.479	11809
928.585	11562
928.69	11752
928.796	11726
928.901	11638
929.007	11368
929.112	11627
929.218	11512
929.323	11649
929.428	11433
929.533	11615
929.638	11417
929.743	11448
929.848	11509
929.953	11421
930.058	11345
930.163	11220
930.267	11299
930.372	11391
930.477	11162
930.581	11395
930.685	11250
930.79	11086
930.894	11052
930.998	11041
931.103	11220
931.207	10831
931.311	10778
931.415	10687
931.519	10481
931.623	10436
