Data from test_V78500241_3584.txt Node
Date: Fri Mar 25 16:06:37 CST 2022
User: usil
Spectrometer: V785-0024
Trigger mode: 0
Integration Time (sec): 4.000000E-1
Scans to average: 1
Nonlinearity correction enabled: false
Boxcar width: 0
Storing dark spectrum: false
XAxis mode: Wavelengths
Number of Pixels in Spectrum: 1024
>>>>>Begin Spectral Data<<<<<
801.071	28786
801.214	28672
801.356	28573
801.499	28554
801.641	28344
801.783	28261
801.926	28485
802.068	28375
802.211	28322
802.353	28211
802.496	28093
802.638	28086
802.78	28139
802.923	28048
803.065	27987
803.208	27911
803.35	28086
803.492	28257
803.635	28238
803.777	28116
803.919	28462
804.061	28691
804.204	28386
804.346	28337
804.488	28249
804.63	28280
804.773	28207
804.915	28352
805.057	28417
805.199	28462
805.341	28481
805.483	28519
805.626	28363
805.768	28314
805.91	28504
806.052	28493
806.194	28215
806.336	28687
806.478	28519
806.62	28500
806.762	28637
806.904	28778
807.046	29006
807.188	28995
807.33	28980
807.472	28946
807.614	28824
807.756	28896
807.898	28930
808.04	28740
808.182	28748
808.324	28915
808.465	28938
808.607	29006
808.749	29242
808.891	29231
809.033	29254
809.174	29315
809.316	29090
809.458	29200
809.6	29208
809.741	29254
809.883	29337
810.025	29292
810.166	29440
810.308	29440
810.45	29505
810.591	29185
810.733	29193
810.875	29136
811.016	29029
811.158	29029
811.299	29143
811.441	29512
811.582	29318
811.724	29193
811.865	29223
812.007	29269
812.148	29105
812.29	29448
812.431	29417
812.573	29634
812.714	29649
812.855	29764
812.997	29912
813.138	30110
813.279	29908
813.421	29676
813.562	29680
813.703	29577
813.845	29440
813.986	29083
814.127	29003
814.268	28927
814.41	28866
814.551	28984
814.692	29010
814.833	28919
814.974	28934
815.115	28942
815.256	28904
815.397	28847
815.539	28649
815.68	28672
815.821	28759
815.962	28828
816.103	28748
816.244	28550
816.385	28683
816.526	28466
816.666	28557
816.807	28287
816.948	28173
817.089	28443
817.23	28299
817.371	28207
817.512	28280
817.653	28150
817.793	28162
817.934	28185
818.075	28154
818.216	28173
818.356	28135
818.497	28116
818.638	27949
818.778	28029
818.919	28223
819.06	28010
819.2	28086
819.341	28223
819.481	28310
819.622	28379
819.762	28675
819.903	28504
820.043	28409
820.184	28219
820.324	28417
820.465	28489
820.605	28371
820.746	28337
820.886	28299
821.026	28322
821.167	28394
821.307	28314
821.447	28097
821.588	28291
821.728	28082
821.868	27812
822.008	27728
822.149	27701
822.289	27496
822.429	27427
822.569	27355
822.709	27389
822.849	27275
822.99	27279
823.13	27173
823.27	27203
823.41	26971
823.55	26979
823.69	27154
823.83	27112
823.97	26982
824.11	26861
824.25	26861
824.389	26868
824.529	26925
824.669	26929
824.809	26975
824.949	26994
825.089	26948
825.228	26868
825.368	26811
825.508	26667
825.648	26792
825.787	26811
825.927	26648
826.067	26773
826.206	26777
826.346	26811
826.485	26864
826.625	26720
826.765	26849
826.904	26735
827.044	26701
827.183	26511
827.323	26476
827.462	26678
827.601	26465
827.741	26381
827.88	26499
828.02	26263
828.159	26434
828.298	26541
828.437	26556
828.577	26423
828.716	26609
828.855	26370
828.994	26126
829.134	26180
829.273	26240
829.412	26100
829.551	26138
829.69	26130
829.829	26237
829.968	26191
830.107	26286
830.246	26275
830.385	26168
830.524	26084
830.663	26081
830.802	25936
830.941	25807
831.08	25677
831.219	25769
831.357	25818
831.496	26050
831.635	25765
831.774	25533
831.913	25685
832.051	25635
832.19	25635
832.329	25632
832.467	25472
832.606	25392
832.744	25434
832.883	25419
833.022	25575
833.16	25403
833.299	25457
833.437	25518
833.576	25495
833.714	25537
833.852	25670
833.991	25430
834.129	25632
834.267	25559
834.406	25373
834.544	25643
834.682	25487
834.821	25544
834.959	25655
835.097	25350
835.235	25616
835.373	25525
835.511	25476
835.65	25411
835.788	25335
835.926	25019
836.064	25247
836.202	25133
836.34	25320
836.478	25377
836.615	25190
836.753	25392
836.891	25445
837.029	25320
837.167	25228
837.305	25259
837.443	25152
837.58	25183
837.718	25183
837.856	25118
837.993	25171
838.131	25179
838.269	25057
838.406	25133
838.544	24806
838.681	24928
838.819	24757
838.956	24616
839.094	24642
839.231	24719
839.369	24760
839.506	24932
839.643	24947
839.781	24700
839.918	24494
840.055	24620
840.193	24471
840.33	24490
840.467	24551
840.604	24498
840.742	24821
840.879	24361
841.016	24502
841.153	24407
841.29	24608
841.427	24547
841.564	24688
841.701	24452
841.838	24422
841.975	24426
842.112	24502
842.249	24323
842.385	24262
842.522	24490
842.659	24296
842.796	24289
842.933	24159
843.069	24213
843.206	24235
843.343	24239
843.479	24258
843.616	24182
843.752	24007
843.889	24106
844.025	24319
844.162	24034
844.298	24098
844.435	24083
844.571	24068
844.708	24095
844.844	24133
844.98	24224
845.117	24148
845.253	24068
845.389	23897
845.525	23973
845.661	23878
845.798	23779
845.934	23935
846.07	23767
846.206	23760
846.342	23866
846.478	23851
846.614	23551
846.75	23509
846.886	23501
847.022	23520
847.158	23630
847.294	23501
847.429	23467
847.565	23452
847.701	23775
847.837	23315
847.972	23231
848.108	23326
848.244	23258
848.379	22976
848.515	23044
848.65	23079
848.786	23181
848.921	22987
849.057	23231
849.192	23220
849.328	23246
849.463	23159
849.598	22949
849.734	22965
849.869	22976
850.004	22873
850.14	22881
850.275	22923
850.41	22748
850.545	22854
850.68	22828
850.815	22862
850.95	22801
851.085	23003
851.22	22953
851.355	22923
851.49	22809
851.625	22938
851.76	22793
851.895	22748
852.03	22839
852.165	22923
852.299	22949
852.434	22828
852.569	22866
852.703	22839
852.838	22984
852.973	22980
853.107	22987
853.242	22850
853.376	22755
853.511	22653
853.645	22706
853.78	22835
853.914	22691
854.048	22577
854.183	22725
854.317	22820
854.451	22889
854.585	22675
854.72	22694
854.854	22771
854.988	22630
855.122	22755
855.256	22485
855.39	22611
855.524	22839
855.658	22675
855.792	22504
855.926	22725
856.06	22698
856.194	22778
856.327	22752
856.461	22660
856.595	22626
856.729	22675
856.862	22805
856.996	22740
857.13	22622
857.263	22869
857.397	22782
857.53	22771
857.664	22820
857.797	22713
857.931	22771
858.064	22668
858.197	22755
858.331	22698
858.464	22649
858.597	22691
858.731	22717
858.864	22630
858.997	22440
859.13	22744
859.263	22664
859.396	22694
859.529	22618
859.662	22694
859.795	22653
859.928	22675
860.061	22755
860.194	22919
860.327	22790
860.46	22713
860.592	22790
860.725	22908
860.858	22740
860.99	22630
861.123	22550
861.256	22630
861.388	22755
861.521	23566
861.653	22535
861.786	22371
861.918	22523
862.05	22698
862.183	22523
862.315	22618
862.447	22656
862.58	22569
862.712	22413
862.844	22299
862.976	22512
863.108	22295
863.24	22942
863.372	22394
863.504	22421
863.636	22405
863.768	22516
863.9	22398
864.032	22287
864.164	22424
864.296	22329
864.428	22584
864.559	22405
864.691	22440
864.823	22333
864.954	22299
865.086	22329
865.217	22303
865.349	22238
865.48	22238
865.612	22314
865.743	22386
865.875	22181
866.006	22185
866.137	22257
866.269	22265
866.4	22356
866.531	22318
866.662	22192
866.793	22188
866.924	22188
867.055	22192
867.186	22303
867.317	22223
867.448	22143
867.579	22135
867.71	22120
867.841	22181
867.972	22226
868.103	22067
868.233	22204
868.364	22246
868.495	22348
868.625	22405
868.756	22599
868.886	22379
869.017	22390
869.147	22402
869.278	22474
869.408	22455
869.539	22466
869.669	22516
869.799	22489
869.929	22634
870.06	22402
870.19	22729
870.32	22683
870.45	22862
870.58	22828
870.71	22858
870.84	22946
870.97	22885
871.1	22790
871.23	22976
871.36	23071
871.489	22949
871.619	22946
871.749	23018
871.879	23006
872.008	23189
872.138	23018
872.267	23029
872.397	22927
872.526	22908
872.656	22927
872.785	22995
872.915	23105
873.044	23060
873.173	22995
873.303	23151
873.432	23086
873.561	23250
873.69	23094
873.819	23060
873.948	23052
874.077	23048
874.206	22980
874.335	22972
874.464	23056
874.593	23284
874.722	23273
874.851	23292
874.979	23246
875.108	23330
875.237	23079
875.365	23037
875.494	23170
875.623	23391
875.751	23284
875.88	23273
876.008	23216
876.136	23436
876.265	23714
876.393	23748
876.521	23680
876.65	23813
876.778	23672
876.906	23623
877.034	23543
877.162	23589
877.29	23710
877.418	23634
877.546	23566
877.674	23608
877.802	23630
877.93	23482
878.058	23604
878.185	23589
878.313	23653
878.441	23589
878.568	23341
878.696	23505
878.824	23691
878.951	23657
879.079	23866
879.206	23802
879.333	23790
879.461	23684
879.588	23885
879.715	23737
879.842	23939
879.97	23649
880.097	23505
880.224	23490
880.351	23554
880.478	23250
880.605	23440
880.732	23417
880.859	23695
880.986	23452
881.112	23395
881.239	23254
881.366	23128
881.493	23079
881.619	22896
881.746	23052
881.872	22953
881.999	22995
882.125	22957
882.252	23018
882.378	22968
882.505	23052
882.631	22828
882.757	22744
882.883	22687
883.01	22694
883.136	22531
883.262	22523
883.388	22402
883.514	22664
883.64	22615
883.766	22565
883.892	22367
884.018	22451
884.143	22615
884.269	22653
884.395	22348
884.52	22215
884.646	22280
884.772	22135
884.897	22242
885.023	22348
885.148	22310
885.274	22360
885.399	22390
885.524	22162
885.65	22367
885.775	22314
885.9	22188
886.025	22272
886.15	22459
886.275	22192
886.4	22173
886.525	22310
886.65	22051
886.775	22192
886.9	22333
887.025	22516
887.149	22082
887.274	22067
887.399	21975
887.523	22067
887.648	22013
887.773	21964
887.897	21903
888.021	22029
888.146	21983
888.27	22097
888.395	22120
888.519	21956
888.643	22162
888.767	22051
888.891	21987
889.015	21808
889.139	21972
889.263	21751
889.387	21994
889.511	22010
889.635	21865
889.759	21835
889.883	21831
890.006	21728
890.13	21880
890.254	21648
890.377	21682
890.501	21656
890.624	21477
890.748	21656
890.871	21435
890.995	21317
891.118	21340
891.241	21363
891.364	21496
891.488	21439
891.611	21431
891.734	21435
891.857	21485
891.98	21355
892.103	21389
892.226	21272
892.349	21275
892.471	21313
892.594	21184
892.717	21272
892.839	21256
892.962	21203
893.085	21184
893.207	21298
893.33	21192
893.452	21112
893.575	21283
893.697	21100
893.819	21447
893.941	21500
894.064	21370
894.186	21218
894.308	21138
894.43	21355
894.552	21363
894.674	21306
894.796	21230
894.918	21313
895.04	21294
895.161	21302
895.283	21195
895.405	21108
895.526	21241
895.648	21249
895.769	21184
895.891	21310
896.012	21313
896.134	21287
896.255	21195
896.376	21116
896.498	21302
896.619	21256
896.74	21291
896.861	21207
896.982	21523
897.103	21603
897.224	21553
897.345	21473
897.466	21374
897.587	21370
897.708	21530
897.828	21469
897.949	21378
898.07	21146
898.19	21370
898.311	21568
898.431	21401
898.552	21454
898.672	21542
898.792	21450
898.913	21420
899.033	21473
899.153	21264
899.273	21081
899.393	21138
899.513	21226
899.633	21093
899.753	21154
899.873	21089
899.993	21047
900.113	21138
900.232	21146
900.352	21001
900.472	21005
900.591	20914
900.711	20960
900.83	20830
900.95	21024
901.069	21017
901.189	20826
901.308	20579
901.427	20495
901.546	20530
901.665	20530
901.784	20522
901.904	20298
902.023	20218
902.141	20035
902.26	20065
902.379	20065
902.498	19978
902.617	19970
902.735	20054
902.854	19917
902.973	19784
903.091	19719
903.21	19616
903.328	19670
903.446	19658
903.565	19415
903.683	19449
903.801	19274
903.919	19339
904.038	19316
904.156	19160
904.274	19259
904.392	19206
904.51	19187
904.627	19228
904.745	19266
904.863	19278
904.981	18935
905.098	18920
905.216	18897
905.334	18966
905.451	18920
905.569	18901
905.686	18840
905.803	18894
905.921	18585
906.038	18795
906.155	18684
906.272	18585
906.389	18608
906.506	18388
906.623	18308
906.74	18418
906.857	18194
906.974	18323
907.091	18521
907.208	18441
907.324	18357
907.441	18304
907.557	18182
907.674	18136
907.79	18034
907.907	18034
908.023	18152
908.139	17965
908.256	18034
908.372	17977
908.488	17969
908.604	17878
908.72	17680
908.836	17859
908.952	17745
909.068	17802
909.184	17961
909.3	17809
909.415	17832
909.531	17832
909.647	17627
909.762	17501
909.878	17497
909.993	17638
910.108	17516
910.224	17452
910.339	17452
910.454	17334
910.57	17345
910.685	17227
910.8	17547
910.915	17410
911.03	17220
911.145	17067
911.259	17064
911.374	17014
911.489	16968
911.604	16976
911.718	16843
911.833	16835
911.947	16675
912.062	16679
912.176	16759
912.291	16938
912.405	16885
912.519	16976
912.633	17006
912.748	16877
912.862	16824
912.976	16748
913.09	16504
913.204	16653
913.318	16675
913.431	16771
913.545	16748
913.659	16767
913.772	16542
913.886	16573
914	16382
914.113	16599
914.226	16596
914.34	16455
914.453	16371
914.566	16390
914.68	16303
914.793	16280
914.906	16074
915.019	16124
915.132	15960
915.245	16029
915.358	15972
915.47	15964
915.583	16036
915.696	15987
915.809	16048
915.921	16105
916.034	15972
916.146	15907
916.259	15816
916.371	16032
916.483	15937
916.595	15789
916.708	15876
916.82	15800
916.932	15762
917.044	15732
917.156	15728
917.268	15545
917.38	15686
917.491	15629
917.603	15625
917.715	15751
917.826	15720
917.938	15534
918.049	15344
918.161	15595
918.272	15660
918.384	15705
918.495	15504
918.606	15424
918.717	15348
918.828	15359
918.939	15264
919.05	15294
919.161	15313
919.272	15233
919.383	15131
919.494	15325
919.604	15660
919.715	15268
919.826	15237
919.936	15275
920.047	15397
920.157	15374
920.267	15530
920.378	15283
920.488	15294
920.598	15443
920.708	15595
920.818	15367
920.928	15428
921.038	15477
921.148	15534
921.258	15222
921.368	15089
921.477	14948
921.587	15051
921.697	14872
921.806	15066
921.916	14857
922.025	14697
922.134	14629
922.244	14583
922.353	14712
922.462	14583
922.571	14503
922.68	14339
922.789	14404
922.898	14355
923.007	14172
923.116	14275
923.224	14199
923.333	14214
923.442	14107
923.55	14107
923.659	14096
923.767	14145
923.876	14046
923.984	14176
924.092	13989
924.201	13993
924.309	14031
924.417	14043
924.525	13951
924.633	14008
924.741	14807
924.849	13780
924.956	13784
925.064	13795
925.172	13548
925.279	13616
925.387	13674
925.494	13693
925.602	13693
925.709	13643
925.816	13502
925.924	13605
926.031	13746
926.138	13578
926.245	13613
926.352	13533
926.459	13651
926.566	13693
926.673	13525
926.779	13419
926.886	13396
926.993	13266
927.099	13213
927.206	13118
927.312	13110
927.419	13259
927.525	13202
927.631	13213
927.737	13061
927.843	13034
927.95	12966
928.056	13034
928.162	12977
928.267	12951
928.373	13582
928.479	12981
928.585	12798
928.69	12886
928.796	12993
928.901	12856
929.007	12688
929.112	12951
929.218	12814
929.323	12757
929.428	12760
929.533	12821
929.638	12627
929.743	12711
929.848	12745
929.953	12578
930.058	12574
930.163	12372
930.267	12422
930.372	12502
930.477	12380
930.581	12589
930.685	12426
930.79	12213
930.894	12289
930.998	12201
931.103	12315
931.207	11977
931.311	11958
931.415	11798
931.519	11657
931.623	11634
