Data from test_V78500241_3663.txt Node
Date: Fri Mar 25 16:07:10 CST 2022
User: usil
Spectrometer: V785-0024
Trigger mode: 0
Integration Time (sec): 4.000000E-1
Scans to average: 1
Nonlinearity correction enabled: false
Boxcar width: 0
Storing dark spectrum: false
XAxis mode: Wavelengths
Number of Pixels in Spectrum: 1024
>>>>>Begin Spectral Data<<<<<
801.071	28607
801.214	28413
801.356	28303
801.499	28287
801.641	28246
801.783	28093
801.926	28211
802.068	28249
802.211	28158
802.353	28143
802.496	27914
802.638	27861
802.78	27838
802.923	27701
803.065	27698
803.208	27838
803.35	27899
803.492	27880
803.635	27991
803.777	27865
803.919	28063
804.061	28219
804.204	28101
804.346	28010
804.488	28204
804.63	28074
804.773	27983
804.915	28029
805.057	28322
805.199	28131
805.341	28242
805.483	28291
805.626	28234
805.768	28135
805.91	28131
806.052	28242
806.194	28223
806.336	28310
806.478	28268
806.62	28299
806.762	28440
806.904	28459
807.046	28858
807.188	28500
807.33	28645
807.472	28793
807.614	28668
807.756	28717
807.898	28554
808.04	28386
808.182	28493
808.324	28527
808.465	28702
808.607	28793
808.749	28881
808.891	29124
809.033	29254
809.174	29033
809.316	28824
809.458	28923
809.6	28896
809.741	29094
809.883	29121
810.025	29166
810.166	29296
810.308	29200
810.45	29147
810.591	29155
810.733	29025
810.875	28968
811.016	28866
811.158	28965
811.299	29067
811.441	29052
811.582	29128
811.724	28991
811.865	28949
812.007	28930
812.148	28980
812.29	28961
812.431	29277
812.573	29345
812.714	29417
812.855	29516
812.997	29687
813.138	29638
813.279	29615
813.421	29562
813.562	29197
813.703	29239
813.845	29147
813.986	28934
814.127	28717
814.268	28717
814.41	28611
814.551	28550
814.692	28622
814.833	28691
814.974	28672
815.115	28698
815.256	28379
815.397	28504
815.539	28523
815.68	28455
815.821	28421
815.962	28489
816.103	28382
816.244	28363
816.385	28226
816.526	28139
816.666	27941
816.807	27816
816.948	27972
817.089	28169
817.23	28013
817.371	27972
817.512	27808
817.653	27979
817.793	27892
817.934	28013
818.075	28040
818.216	27968
818.356	27873
818.497	27846
818.638	27705
818.778	27717
818.919	27747
819.06	27819
819.2	27880
819.341	27819
819.481	27983
819.622	28055
819.762	28356
819.903	28249
820.043	28044
820.184	28143
820.324	28074
820.465	28276
820.605	28086
820.746	28017
820.886	27831
821.026	27941
821.167	28082
821.307	28173
821.447	28051
821.588	28044
821.728	27812
821.868	27572
822.008	27450
822.149	27401
822.289	27458
822.429	27252
822.569	27017
822.709	27150
822.849	26940
822.99	27043
823.13	27013
823.27	26952
823.41	26804
823.55	26583
823.69	26842
823.83	26708
823.97	26720
824.11	26575
824.25	26636
824.389	26533
824.529	26754
824.669	26602
824.809	26686
824.949	26716
825.089	26701
825.228	26701
825.368	26598
825.508	26465
825.648	26522
825.787	26552
825.927	26518
826.067	26480
826.206	26488
826.346	26423
826.485	26575
826.625	26514
826.765	26667
826.904	26533
827.044	26252
827.183	26343
827.323	26180
827.462	26263
827.601	26271
827.741	26229
827.88	26290
828.02	26088
828.159	26176
828.298	26195
828.437	26362
828.577	26138
828.716	26275
828.855	26130
828.994	25772
829.134	25890
829.273	25986
829.412	25776
829.551	25681
829.69	25936
829.829	26020
829.968	25978
830.107	25951
830.246	25852
830.385	25791
830.524	25776
830.663	25750
830.802	25723
830.941	25460
831.08	25331
831.219	25731
831.357	25548
831.496	25765
831.635	25460
831.774	25449
831.913	25301
832.051	25225
832.19	25225
832.329	25304
832.467	25206
832.606	25114
832.744	25038
832.883	25061
833.022	25122
833.16	25198
833.299	25027
833.437	25221
833.576	25335
833.714	25274
833.852	25236
833.991	25221
834.129	25365
834.267	25373
834.406	25308
834.544	25312
834.682	25187
834.821	25228
834.959	25282
835.097	25194
835.235	25441
835.373	25312
835.511	25308
835.65	25015
835.788	25099
835.926	25027
836.064	24977
836.202	25053
836.34	24989
836.478	25065
836.615	24958
836.753	25164
836.891	25228
837.029	25152
837.167	24829
837.305	24958
837.443	24894
837.58	24951
837.718	24905
837.856	24962
837.993	24890
838.131	24871
838.269	24749
838.406	24673
838.544	24620
838.681	24570
838.819	24589
838.956	24304
839.094	24403
839.231	24369
839.369	24441
839.506	24776
839.643	24505
839.781	24372
839.918	24292
840.055	24342
840.193	24273
840.33	24338
840.467	24350
840.604	24334
840.742	24483
840.879	24125
841.016	24148
841.153	23999
841.29	24380
841.427	24369
841.564	24334
841.701	24273
841.838	24197
841.975	24102
842.112	24247
842.249	24163
842.385	23954
842.522	24243
842.659	24026
842.796	23996
842.933	23988
843.069	23996
843.206	23916
843.343	24083
843.479	23984
843.616	23996
843.752	23821
843.889	23984
844.025	23954
844.162	23733
844.298	23954
844.435	23764
844.571	23604
844.708	23726
844.844	23912
844.98	24091
845.117	23889
845.253	23790
845.389	23531
845.525	23524
845.661	23634
845.798	23497
845.934	23547
846.07	23589
846.206	23634
846.342	23653
846.478	23562
846.614	23410
846.75	23227
846.886	23364
847.022	23269
847.158	23391
847.294	23136
847.429	23322
847.565	23185
847.701	23547
847.837	22995
847.972	22965
848.108	23155
848.244	22991
848.379	22911
848.515	22835
848.65	22790
848.786	22843
848.921	22790
849.057	23003
849.192	22805
849.328	22812
849.463	22816
849.598	22759
849.734	22706
849.869	22694
850.004	22599
850.14	22622
850.275	22626
850.41	22557
850.545	22519
850.68	22573
850.815	22592
850.95	22565
851.085	22778
851.22	22691
851.355	22607
851.49	22546
851.625	22565
851.76	22706
851.895	22542
852.03	22504
852.165	22603
852.299	22691
852.434	22672
852.569	22637
852.703	22634
852.838	22637
852.973	22679
853.107	22729
853.242	22516
853.376	22504
853.511	22402
853.645	22371
853.78	22481
853.914	22424
854.048	22409
854.183	22409
854.317	22455
854.451	22603
854.585	22451
854.72	22329
854.854	22500
854.988	22348
855.122	22516
855.256	22162
855.39	22489
855.524	22577
855.658	22497
855.792	22466
855.926	22554
856.06	22500
856.194	22443
856.327	22386
856.461	22405
856.595	22375
856.729	22459
856.862	22588
856.996	22455
857.13	22531
857.263	22504
857.397	22455
857.53	22402
857.664	22535
857.797	22382
857.931	22569
858.064	22421
858.197	22538
858.331	22459
858.464	22405
858.597	22352
858.731	22459
858.864	22363
858.997	22386
859.13	22481
859.263	22413
859.396	22500
859.529	22424
859.662	22459
859.795	22314
859.928	22432
860.061	22523
860.194	22641
860.327	22508
860.46	22554
860.592	22508
860.725	22599
860.858	22565
860.99	22516
861.123	22371
861.256	22318
861.388	22367
861.521	23151
861.653	22322
861.786	22257
861.918	22242
862.05	22329
862.183	22268
862.315	22436
862.447	22428
862.58	22322
862.712	22131
862.844	21983
862.976	22158
863.108	22207
863.24	22573
863.372	22120
863.504	22204
863.636	22006
863.768	22257
863.9	22040
864.032	22101
864.164	21991
864.296	22181
864.428	22226
864.559	22215
864.691	22078
864.823	22097
864.954	22029
865.086	22048
865.217	22074
865.349	21770
865.48	22013
865.612	21926
865.743	22166
865.875	22086
866.006	22097
866.137	22105
866.269	22006
866.4	22086
866.531	21945
866.662	21953
866.793	21960
866.924	22013
867.055	22059
867.186	21899
867.317	21915
867.448	21934
867.579	21911
867.71	21797
867.841	21937
867.972	22021
868.103	21953
868.233	22025
868.364	21907
868.495	22010
868.625	22261
868.756	22150
868.886	22086
869.017	22226
869.147	22166
869.278	22341
869.408	22291
869.539	22230
869.669	22253
869.799	22200
869.929	22341
870.06	22318
870.19	22481
870.32	22474
870.45	22481
870.58	22630
870.71	22733
870.84	22645
870.97	22694
871.1	22588
871.23	22664
871.36	22957
871.489	22736
871.619	22641
871.749	22843
871.879	22942
872.008	22934
872.138	22927
872.267	22896
872.397	22645
872.526	22603
872.656	22694
872.785	22573
872.915	22717
873.044	22866
873.173	22801
873.303	22961
873.432	22908
873.561	23003
873.69	22862
873.819	22725
873.948	22858
874.077	22862
874.206	22698
874.335	22713
874.464	22786
874.593	23041
874.722	22946
874.851	23113
874.979	23006
875.108	23128
875.237	23014
875.365	22862
875.494	23048
875.623	23014
875.751	22999
875.88	23033
876.008	23197
876.136	23124
876.265	23391
876.393	23581
876.521	23566
876.65	23493
876.778	23524
876.906	23269
877.034	23341
877.162	23417
877.29	23356
877.418	23364
877.546	23372
877.674	23326
877.802	23303
877.93	23372
878.058	23273
878.185	23250
878.313	23356
878.441	23406
878.568	23162
878.696	23299
878.824	23402
878.951	23448
879.079	23562
879.206	23634
879.333	23395
879.461	23455
879.588	23410
879.715	23646
879.842	23649
879.97	23497
880.097	23246
880.224	23162
880.351	23292
880.478	23258
880.605	23147
880.732	23113
880.859	23341
880.986	23227
881.112	23193
881.239	23083
881.366	23090
881.493	22835
881.619	22786
881.746	22744
881.872	22763
881.999	22691
882.125	22687
882.252	22729
882.378	22656
882.505	22748
882.631	22675
882.757	22481
882.883	22531
883.01	22432
883.136	22436
883.262	22375
883.388	22265
883.514	22424
883.64	22455
883.766	22360
883.892	22051
884.018	22097
884.143	22409
884.269	22402
884.395	22147
884.52	22139
884.646	22112
884.772	22048
884.897	21983
885.023	21956
885.148	22120
885.274	22177
885.399	22105
885.524	22013
885.65	22017
885.775	22013
885.9	21979
886.025	22116
886.15	22101
886.275	22021
886.4	22036
886.525	21953
886.65	21987
886.775	21964
886.9	22120
887.025	22249
887.149	21953
887.274	21762
887.399	21793
887.523	21850
887.648	21831
887.773	21762
887.897	21884
888.021	21793
888.146	21838
888.27	21911
888.395	21915
888.519	21751
888.643	21842
888.767	21865
888.891	21762
889.015	21561
889.139	21663
889.263	21629
889.387	21675
889.511	21949
889.635	21698
889.759	21549
889.883	21519
890.006	21606
890.13	21709
890.254	21564
890.377	21500
890.501	21351
890.624	21237
890.748	21397
890.871	21283
890.995	21157
891.118	21062
891.241	21195
891.364	21093
891.488	21298
891.611	21085
891.734	21142
891.857	21294
891.98	21294
892.103	21100
892.226	21142
892.349	21047
892.471	20982
892.594	21017
892.717	21161
892.839	21043
892.962	21112
893.085	21089
893.207	21024
893.33	21009
893.452	20952
893.575	21214
893.697	20956
893.819	21081
893.941	21241
894.064	21226
894.186	20925
894.308	20861
894.43	21096
894.552	21188
894.674	21199
894.796	20933
894.918	21051
895.04	20986
895.161	20979
895.283	21093
895.405	20937
895.526	21070
895.648	21005
895.769	21013
895.891	21062
896.012	21192
896.134	21039
896.255	21009
896.376	20982
896.498	21001
896.619	21039
896.74	20990
896.861	21017
896.982	21329
897.103	21454
897.224	21226
897.345	21329
897.466	21279
897.587	21272
897.708	21454
897.828	21199
897.949	21211
898.07	21138
898.19	21207
898.311	21199
898.431	21123
898.552	21302
898.672	21245
898.792	21260
898.913	21180
899.033	21165
899.153	21085
899.273	20895
899.393	20971
899.513	20941
899.633	21032
899.753	20944
899.873	20815
899.993	20918
900.113	20849
900.232	20861
900.352	20864
900.472	20842
900.591	20625
900.711	20800
900.83	20735
900.95	20849
901.069	20777
901.189	20575
901.308	20301
901.427	20351
901.546	20313
901.665	20233
901.784	20298
901.904	20214
902.023	20183
902.141	19936
902.26	19784
902.379	19940
902.498	19936
902.617	19666
902.735	19723
902.854	19811
902.973	19765
903.091	19597
903.21	19601
903.328	19354
903.446	19301
903.565	19137
903.683	19304
903.801	19095
903.919	19198
904.038	19183
904.156	19027
904.274	19137
904.392	18932
904.51	19072
904.627	19069
904.745	19080
904.863	19133
904.981	18741
905.098	18673
905.216	18768
905.334	18631
905.451	18707
905.569	18582
905.686	18627
905.803	18673
905.921	18513
906.038	18540
906.155	18452
906.272	18357
906.389	18445
906.506	18251
906.623	18235
906.74	18152
906.857	18121
906.974	18098
907.091	18155
907.208	18372
907.324	18247
907.441	18159
907.557	17999
907.674	17965
907.79	17843
907.907	17920
908.023	17942
908.139	17870
908.256	17821
908.372	17851
908.488	17748
908.604	17649
908.72	17577
908.836	17718
908.952	17684
909.068	17539
909.184	17813
909.3	17600
909.415	17547
909.531	17649
909.647	17349
909.762	17307
909.878	17261
909.993	17292
910.108	17307
910.224	17246
910.339	17303
910.454	17147
910.57	17029
910.685	17090
910.8	17242
910.915	17258
911.03	17254
911.145	16934
911.259	16839
911.374	16885
911.489	16778
911.604	16736
911.718	16584
911.833	16679
911.947	16493
912.062	16516
912.176	16706
912.291	16618
912.405	16691
912.519	16759
912.633	16816
912.748	16736
912.862	16561
912.976	16512
913.09	16344
913.204	16379
913.318	16474
913.431	16565
913.545	16573
913.659	16497
913.772	16352
913.886	16272
914	16341
914.113	16299
914.226	16432
914.34	16234
914.453	16131
914.566	16177
914.68	16204
914.793	16101
914.906	15907
915.019	15861
915.132	15812
915.245	15949
915.358	15842
915.47	15876
915.583	15804
915.696	15876
915.809	15880
915.921	15983
916.034	15679
916.146	15728
916.259	15766
916.371	15861
916.483	15766
916.595	15728
916.708	15633
916.82	15622
916.932	15625
917.044	15523
917.156	15557
917.268	15477
917.38	15523
917.491	15401
917.603	15439
917.715	15462
917.826	15545
917.938	15351
918.049	15249
918.161	15428
918.272	15587
918.384	15519
918.495	15393
918.606	15180
918.717	15146
918.828	15237
918.939	15268
919.05	15135
919.161	15264
919.272	15028
919.383	14971
919.494	15157
919.604	15294
919.715	15233
919.826	15100
919.936	15119
920.047	15237
920.157	15161
920.267	15325
920.378	15142
920.488	15138
920.598	15321
920.708	15397
920.818	15150
920.928	15310
921.038	15450
921.148	15412
921.258	15062
921.368	15020
921.477	14952
921.587	14864
921.697	14777
921.806	14941
921.916	14750
922.025	14674
922.134	14503
922.244	14499
922.353	14674
922.462	14389
922.571	14343
922.68	14202
922.789	14081
922.898	14096
923.007	14130
923.116	14237
923.224	14145
923.333	14115
923.442	14012
923.55	14020
923.659	13932
923.767	14062
923.876	13921
923.984	13967
924.092	13849
924.201	13852
924.309	13852
924.417	13963
924.525	13715
924.633	13799
924.741	14785
924.849	13605
924.956	13700
925.064	13597
925.172	13415
925.279	13586
925.387	13578
925.494	13483
925.602	13670
925.709	13647
925.816	13468
925.924	13453
926.031	13616
926.138	13453
926.245	13495
926.352	13343
926.459	13575
926.566	13533
926.673	13358
926.779	13320
926.886	13225
926.993	13149
927.099	13133
927.206	12970
927.312	13091
927.419	13179
927.525	13129
927.631	13129
927.737	13012
927.843	12894
927.95	12806
928.056	12897
928.162	12939
928.267	12939
928.373	13582
928.479	12909
928.585	12772
928.69	12802
928.796	12859
928.901	12722
929.007	12604
929.112	12692
929.218	12696
929.323	12726
929.428	12601
929.533	12703
929.638	12620
929.743	12604
929.848	12574
929.953	12563
930.058	12433
930.163	12235
930.267	12350
930.372	12448
930.477	12190
930.581	12365
930.685	12330
930.79	12144
930.894	12159
930.998	12163
931.103	12194
931.207	11923
931.311	11779
931.415	11756
931.519	11505
931.623	11467
