Data from test_V78500241_2970.txt Node
Date: Fri Mar 25 16:02:22 CST 2022
User: usil
Spectrometer: V785-0024
Trigger mode: 0
Integration Time (sec): 4.000000E-1
Scans to average: 1
Nonlinearity correction enabled: false
Boxcar width: 0
Storing dark spectrum: false
XAxis mode: Wavelengths
Number of Pixels in Spectrum: 1024
>>>>>Begin Spectral Data<<<<<
801.071	28318
801.214	28211
801.356	28166
801.499	28070
801.641	27842
801.783	27998
801.926	27914
802.068	27751
802.211	27732
802.353	27705
802.496	27641
802.638	27591
802.78	27519
802.923	27507
803.065	27420
803.208	27401
803.35	27637
803.492	27755
803.635	27720
803.777	27618
803.919	27762
804.061	28086
804.204	27736
804.346	27690
804.488	27595
804.63	27797
804.773	27644
804.915	27770
805.057	27945
805.199	27797
805.341	27914
805.483	27880
805.626	27975
805.768	27785
805.91	27926
806.052	27987
806.194	27831
806.336	28013
806.478	27987
806.62	27800
806.762	28093
806.904	28303
807.046	28379
807.188	28413
807.33	28310
807.472	28341
807.614	28265
807.756	28257
807.898	28154
808.04	27979
808.182	28253
808.324	28291
808.465	28177
808.607	28405
808.749	28474
808.891	28611
809.033	28637
809.174	28694
809.316	28626
809.458	28542
809.6	28626
809.741	28656
809.883	28611
810.025	28934
810.166	28835
810.308	28896
810.45	28904
810.591	28759
810.733	28645
810.875	28717
811.016	28466
811.158	28440
811.299	28660
811.441	28740
811.582	28584
811.724	28668
811.865	28626
812.007	28561
812.148	28485
812.29	28713
812.431	28824
812.573	28919
812.714	29075
812.855	29105
812.997	29166
813.138	29444
813.279	29273
813.421	29227
813.562	29003
813.703	28930
813.845	28976
813.986	28516
814.127	28337
814.268	28185
814.41	28325
814.551	28257
814.692	28352
814.833	28306
814.974	28306
815.115	28306
815.256	28120
815.397	28147
815.539	28356
815.68	28021
815.821	28040
815.962	28097
816.103	28272
816.244	27964
816.385	27987
816.526	27914
816.666	27717
816.807	27507
816.948	27671
817.089	27713
817.23	27603
817.371	27583
817.512	27755
817.653	27481
817.793	27481
817.934	27534
818.075	27530
818.216	27572
818.356	27466
818.497	27443
818.638	27355
818.778	27420
818.919	27336
819.06	27336
819.2	27397
819.341	27591
819.481	27481
819.622	27743
819.762	27953
819.903	27774
820.043	27698
820.184	27835
820.324	27724
820.465	27747
820.605	27625
820.746	27755
820.886	27553
821.026	27667
821.167	27561
821.307	27682
821.447	27599
821.588	27644
821.728	27378
821.868	27340
822.008	27123
822.149	27009
822.289	26975
822.429	26750
822.569	26697
822.709	26857
822.849	26632
822.99	26606
823.13	26602
823.27	26507
823.41	26476
823.55	26218
823.69	26533
823.83	26541
823.97	26339
824.11	26225
824.25	26221
824.389	26134
824.529	26119
824.669	26290
824.809	26385
824.949	26191
825.089	26263
825.228	26233
825.368	25959
825.508	26012
825.648	26054
825.787	26161
825.927	26111
826.067	26107
826.206	26149
826.346	26176
826.485	26027
826.625	26100
826.765	26145
826.904	26031
827.044	25906
827.183	25868
827.323	25814
827.462	25841
827.601	25841
827.741	25845
827.88	25811
828.02	25719
828.159	25818
828.298	25822
828.437	25894
828.577	25651
828.716	25921
828.855	25772
828.994	25449
829.134	25559
829.273	25552
829.412	25422
829.551	25483
829.69	25449
829.829	25502
829.968	25616
830.107	25537
830.246	25525
830.385	25434
830.524	25373
830.663	25247
830.802	25293
830.941	25088
831.08	25065
831.219	25221
831.357	25129
831.496	25304
831.635	25072
831.774	24970
831.913	24943
832.051	24973
832.19	24856
832.329	24916
832.467	24753
832.606	24719
832.744	24711
832.883	24707
833.022	24738
833.16	24730
833.299	24825
833.437	24711
833.576	24924
833.714	24837
833.852	24840
833.991	24787
834.129	24760
834.267	24913
834.406	24719
834.544	24825
834.682	24814
834.821	24707
834.959	24962
835.097	24741
835.235	24939
835.373	24760
835.511	24738
835.65	24597
835.788	24768
835.926	24593
836.064	24532
836.202	24517
836.34	24555
836.478	24730
836.615	24585
836.753	24688
836.891	24711
837.029	24505
837.167	24528
837.305	24658
837.443	24467
837.58	24357
837.718	24448
837.856	24559
837.993	24391
838.131	24494
838.269	24334
838.406	24380
838.544	24346
838.681	24201
838.819	23969
838.956	23813
839.094	23950
839.231	23977
839.369	24190
839.506	24296
839.643	24076
839.781	23958
839.918	23958
840.055	23999
840.193	23988
840.33	23832
840.467	23859
840.604	23908
840.742	24140
840.879	23756
841.016	23916
841.153	23714
841.29	23885
841.427	23836
841.564	23927
841.701	23832
841.838	23687
841.975	23748
842.112	23726
842.249	23615
842.385	23558
842.522	23764
842.659	23832
842.796	23653
842.933	23634
843.069	23547
843.206	23623
843.343	23821
843.479	23573
843.616	23566
843.752	23406
843.889	23459
844.025	23505
844.162	23452
844.298	23368
844.435	23558
844.571	23299
844.708	23364
844.844	23646
844.98	23512
845.117	23520
845.253	23303
845.389	23121
845.525	23311
845.661	23254
845.798	23014
845.934	23185
846.07	23094
846.206	23280
846.342	23261
846.478	23033
846.614	22862
846.75	22759
846.886	22812
847.022	22942
847.158	22953
847.294	22831
847.429	22850
847.565	22908
847.701	23022
847.837	22554
847.972	22508
848.108	22626
848.244	22622
848.379	22459
848.515	22348
848.65	22424
848.786	22360
848.921	22481
849.057	22546
849.192	22398
849.328	22535
849.463	22538
849.598	22310
849.734	22424
849.869	22249
850.004	22238
850.14	22166
850.275	22207
850.41	22109
850.545	22040
850.68	22093
850.815	22147
850.95	22128
851.085	22314
851.22	22329
851.355	22287
851.49	22230
851.625	22242
851.76	22158
851.895	22154
852.03	22135
852.165	22078
852.299	22272
852.434	22299
852.569	22299
852.703	22242
852.838	22280
852.973	22337
853.107	22337
853.242	22074
853.376	22044
853.511	21888
853.645	21991
853.78	22067
853.914	21994
854.048	21915
854.183	22059
854.317	22070
854.451	22272
854.585	21972
854.72	21975
854.854	22097
854.988	21854
855.122	22051
855.256	21838
855.39	22017
855.524	22078
855.658	21994
855.792	21949
855.926	22070
856.06	22128
856.194	22200
856.327	22032
856.461	21922
856.595	21975
856.729	22013
856.862	22147
856.996	22082
857.13	22070
857.263	22177
857.397	22105
857.53	22048
857.664	22048
857.797	22048
857.931	22223
858.064	22021
858.197	22074
858.331	22029
858.464	21975
858.597	21907
858.731	22002
858.864	22013
858.997	21960
859.13	22059
859.263	22055
859.396	22181
859.529	22082
859.662	21884
859.795	22067
859.928	22086
860.061	22246
860.194	22265
860.327	22086
860.46	22013
860.592	22226
860.725	22234
860.858	22074
860.99	22036
861.123	21987
861.256	21945
861.388	21915
861.521	22873
861.653	21857
861.786	21778
861.918	21793
862.05	21762
862.183	21762
862.315	21972
862.447	21949
862.58	21911
862.712	21755
862.844	21648
862.976	21892
863.108	21747
863.24	22337
863.372	21603
863.504	21774
863.636	21793
863.768	21842
863.9	21804
864.032	21652
864.164	21614
864.296	21759
864.428	21850
864.559	21873
864.691	21930
864.823	21739
864.954	21717
865.086	21743
865.217	21701
865.349	21603
865.48	21538
865.612	21751
865.743	21755
865.875	21698
866.006	21545
866.137	21606
866.269	21682
866.4	21534
866.531	21637
866.662	21591
866.793	21545
866.924	21523
867.055	21523
867.186	21549
867.317	21652
867.448	21523
867.579	21622
867.71	21496
867.841	21542
867.972	21625
868.103	21549
868.233	21496
868.364	21389
868.495	21599
868.625	21728
868.756	21880
868.886	21717
869.017	21690
869.147	21846
869.278	21945
869.408	21766
869.539	21739
869.669	21850
869.799	21713
869.929	21873
870.06	21915
870.19	22112
870.32	21964
870.45	22055
870.58	22215
870.71	22207
870.84	22295
870.97	22215
871.1	22211
871.23	22428
871.36	22375
871.489	22192
871.619	22325
871.749	22375
871.879	22451
872.008	22592
872.138	22443
872.267	22360
872.397	22246
872.526	22226
872.656	22169
872.785	22082
872.915	22409
873.044	22390
873.173	22466
873.303	22390
873.432	22367
873.561	22535
873.69	22535
873.819	22436
873.948	22447
874.077	22531
874.206	22440
874.335	22356
874.464	22531
874.593	22664
874.722	22641
874.851	22561
874.979	22611
875.108	22592
875.237	22626
875.365	22607
875.494	22752
875.623	22687
875.751	22565
875.88	22656
876.008	22782
876.136	22805
876.265	23098
876.393	23071
876.521	23014
876.65	23048
876.778	23029
876.906	22961
877.034	23003
877.162	23010
877.29	22797
877.418	22999
877.546	23003
877.674	22995
877.802	22984
877.93	23102
878.058	22869
878.185	22869
878.313	22972
878.441	22847
878.568	22797
878.696	22957
878.824	22900
878.951	23064
879.079	23113
879.206	23334
879.333	23094
879.461	22976
879.588	23075
879.715	23185
879.842	23208
879.97	22927
880.097	22850
880.224	22767
880.351	22820
880.478	22835
880.605	22653
880.732	22793
880.859	22938
880.986	22771
881.112	22862
881.239	22615
881.366	22546
881.493	22519
881.619	22299
881.746	22371
881.872	22249
881.999	22333
882.125	22226
882.252	22333
882.378	22432
882.505	22478
882.631	22188
882.757	22078
882.883	22013
883.01	22078
883.136	21937
883.262	21975
883.388	21956
883.514	21979
883.64	22086
883.766	21937
883.892	21918
884.018	21850
884.143	22044
884.269	22059
884.395	21789
884.52	21580
884.646	21561
884.772	21504
884.897	21660
885.023	21762
885.148	21789
885.274	21911
885.399	21770
885.524	21610
885.65	21720
885.775	21625
885.9	21603
886.025	21671
886.15	21854
886.275	21625
886.4	21576
886.525	21671
886.65	21648
886.775	21519
886.9	21797
887.025	21755
887.149	21564
887.274	21469
887.399	21424
887.523	21473
887.648	21336
887.773	21348
887.897	21485
888.021	21561
888.146	21450
888.27	21557
888.395	21504
888.519	21450
888.643	21488
888.767	21500
888.891	21291
889.015	21256
889.139	21306
889.263	21017
889.387	21332
889.511	21435
889.635	21359
889.759	21344
889.883	21325
890.006	21313
890.13	21340
890.254	21252
890.377	21116
890.501	20994
890.624	21093
890.748	21055
890.871	20857
890.995	20819
891.118	20746
891.241	20826
891.364	20804
891.488	20819
891.611	20807
891.734	20773
891.857	20849
891.98	20804
892.103	20792
892.226	20781
892.349	20834
892.471	20606
892.594	20689
892.717	20792
892.839	20621
892.962	20689
893.085	20781
893.207	20686
893.33	20609
893.452	20606
893.575	20777
893.697	20701
893.819	20845
893.941	20929
894.064	20804
894.186	20648
894.308	20511
894.43	20792
894.552	20762
894.674	20785
894.796	20632
894.918	20644
895.04	20625
895.161	20823
895.283	20674
895.405	20560
895.526	20629
895.648	20743
895.769	20674
895.891	20689
896.012	20785
896.134	20807
896.255	20606
896.376	20693
896.498	20667
896.619	20674
896.74	20609
896.861	20739
896.982	20994
897.103	21161
897.224	21005
897.345	20895
897.466	20864
897.587	20876
897.708	21036
897.828	20975
897.949	20823
898.07	20625
898.19	20823
898.311	20956
898.431	20800
898.552	20853
898.672	21020
898.792	20921
898.913	20956
899.033	20849
899.153	20800
899.273	20469
899.393	20621
899.513	20724
899.633	20663
899.753	20670
899.873	20545
899.993	20583
900.113	20571
900.232	20571
900.352	20522
900.472	20499
900.591	20332
900.711	20549
900.83	20374
900.95	20530
901.069	20434
901.189	20145
901.308	20043
901.427	19925
901.546	20069
901.665	20012
901.784	19997
901.904	19868
902.023	19696
902.141	19491
902.26	19468
902.379	19464
902.498	19369
902.617	19510
902.735	19495
902.854	19506
902.973	19362
903.091	19194
903.21	19084
903.328	19145
903.446	19057
903.565	18894
903.683	19057
903.801	18806
903.919	18958
904.038	18821
904.156	18738
904.274	18814
904.392	18665
904.51	18692
904.627	18783
904.745	18795
904.863	18726
904.981	18452
905.098	18319
905.216	18342
905.334	18395
905.451	18372
905.569	18289
905.686	18372
905.803	18407
905.921	18186
906.038	18247
906.155	18133
906.272	18038
906.389	17992
906.506	17977
906.623	17882
906.74	17931
906.857	17817
906.974	17691
907.091	17927
907.208	17988
907.324	17874
907.441	17805
907.557	17653
907.674	17657
907.79	17512
907.907	17604
908.023	17634
908.139	17505
908.256	17554
908.372	17524
908.488	17501
908.604	17398
908.72	17250
908.836	17303
908.952	17299
909.068	17452
909.184	17387
909.3	17288
909.415	17311
909.531	17189
909.647	17010
909.762	17159
909.878	17075
909.993	17048
910.108	16965
910.224	16873
910.339	16915
910.454	16881
910.57	16820
910.685	16710
910.8	17014
910.915	16987
911.03	16793
911.145	16626
911.259	16634
911.374	16596
911.489	16512
911.604	16500
911.718	16386
911.833	16405
911.947	16310
912.062	16192
912.176	16291
912.291	16360
912.405	16352
912.519	16519
912.633	16504
912.748	16432
912.862	16287
912.976	16169
913.09	16032
913.204	16074
913.318	16242
913.431	16337
913.545	16226
913.659	16226
913.772	16173
913.886	15994
914	15979
914.113	16036
914.226	16105
914.34	16097
914.453	15884
914.566	16036
914.68	15808
914.793	15838
914.906	15553
915.019	15633
915.132	15523
915.245	15519
915.358	15599
915.47	15614
915.583	15587
915.696	15515
915.809	15584
915.921	15679
916.034	15492
916.146	15351
916.259	15450
916.371	15496
916.483	15500
916.595	15408
916.708	15439
916.82	15393
916.932	15332
917.044	15416
917.156	15275
917.268	15275
917.38	15268
917.491	15161
917.603	15165
917.715	15268
917.826	15291
917.938	15058
918.049	14918
918.161	15112
918.272	15195
918.384	15192
918.495	15154
918.606	15036
918.717	14826
918.828	15020
918.939	14986
919.05	14952
919.161	14910
919.272	14754
919.383	14758
919.494	14967
919.604	15097
919.715	14857
919.826	14796
919.936	14864
920.047	14971
920.157	14834
920.267	15184
920.378	14933
920.488	14781
920.598	15013
920.708	15097
920.818	15108
920.928	15024
921.038	15207
921.148	15097
921.258	14956
921.368	14674
921.477	14606
921.587	14632
921.697	14556
921.806	14594
921.916	14431
922.025	14275
922.134	14320
922.244	14206
922.353	14305
922.462	14096
922.571	14153
922.68	13947
922.789	13932
922.898	13959
923.007	13921
923.116	14005
923.224	13864
923.333	13833
923.442	13753
923.55	13734
923.659	13750
923.767	13769
923.876	13689
923.984	13715
924.092	13628
924.201	13715
924.309	13563
924.417	13628
924.525	13601
924.633	13662
924.741	14328
924.849	13282
924.956	13525
925.064	13384
925.172	13278
925.279	13278
925.387	13225
925.494	13396
925.602	13407
925.709	13293
925.816	13282
925.924	13122
926.031	13343
926.138	13228
926.245	13228
926.352	13118
926.459	13285
926.566	13244
926.673	13244
926.779	13103
926.886	13122
926.993	12928
927.099	12844
927.206	12810
927.312	12776
927.419	12954
927.525	12787
927.631	12825
927.737	12802
927.843	12669
927.95	12582
928.056	12623
928.162	12688
928.267	12681
928.373	13301
928.479	12623
928.585	12502
928.69	12608
928.796	12608
928.901	12540
929.007	12323
929.112	12528
929.218	12441
929.323	12441
929.428	12399
929.533	12585
929.638	12391
929.743	12258
929.848	12372
929.953	12395
930.058	12144
930.163	12129
930.267	12102
930.372	12277
930.477	12019
930.581	12213
930.685	12079
930.79	11958
930.894	11965
930.998	11954
931.103	12038
931.207	11619
931.311	11539
931.415	11547
931.519	11315
931.623	11299
