Data from test_V78500241_2578.txt Node
Date: Fri Mar 25 15:59:39 CST 2022
User: usil
Spectrometer: V785-0024
Trigger mode: 0
Integration Time (sec): 4.000000E-1
Scans to average: 1
Nonlinearity correction enabled: false
Boxcar width: 0
Storing dark spectrum: false
XAxis mode: Wavelengths
Number of Pixels in Spectrum: 1024
>>>>>Begin Spectral Data<<<<<
801.071	28615
801.214	28557
801.356	28261
801.499	28166
801.641	28128
801.783	28192
801.926	28112
802.068	28166
802.211	27994
802.353	27785
802.496	27808
802.638	27781
802.78	27728
802.923	27857
803.065	27762
803.208	27720
803.35	27850
803.492	27968
803.635	27831
803.777	27865
803.919	28082
804.061	28417
804.204	27991
804.346	27903
804.488	27987
804.63	28029
804.773	27759
804.915	28139
805.057	28101
805.199	28131
805.341	28173
805.483	28223
805.626	28101
805.768	28139
805.91	27983
806.052	28166
806.194	28234
806.336	28329
806.478	28158
806.62	28063
806.762	28257
806.904	28379
807.046	28687
807.188	28653
807.33	28736
807.472	28683
807.614	28611
807.756	28542
807.898	28421
808.04	28466
808.182	28303
808.324	28557
808.465	28504
808.607	28691
808.749	28885
808.891	28984
809.033	29090
809.174	28839
809.316	28888
809.458	28965
809.6	28942
809.741	28991
809.883	28892
810.025	29223
810.166	28965
810.308	29128
810.45	28938
810.591	29014
810.733	29018
810.875	28828
811.016	28771
811.158	28713
811.299	28900
811.441	28961
811.582	29052
811.724	28824
811.865	28782
812.007	28824
812.148	28888
812.29	29029
812.431	29064
812.573	29132
812.714	29391
812.855	29372
812.997	29436
813.138	29661
813.279	29459
813.421	29474
813.562	29349
813.703	29159
813.845	29056
813.986	28869
814.127	28538
814.268	28577
814.41	28656
814.551	28512
814.692	28557
814.833	28611
814.974	28462
815.115	28599
815.256	28413
815.397	28436
815.539	28417
815.68	28421
815.821	28409
815.962	28440
816.103	28413
816.244	28242
816.385	28055
816.526	28025
816.666	28025
816.807	27911
816.948	27979
817.089	27987
817.23	28006
817.371	27911
817.512	27755
817.653	27789
817.793	27907
817.934	27949
818.075	27979
818.216	27873
818.356	27816
818.497	27614
818.638	27606
818.778	27671
818.919	27686
819.06	27789
819.2	27641
819.341	27827
819.481	27914
819.622	28116
819.762	28207
819.903	28337
820.043	28078
820.184	27998
820.324	27895
820.465	28261
820.605	27956
820.746	28029
820.886	27930
821.026	28044
821.167	27880
821.307	28055
821.447	27998
821.588	27865
821.728	27667
821.868	27530
822.008	27348
822.149	27389
822.289	27382
822.429	27001
822.569	27043
822.709	26979
822.849	26960
822.99	26876
823.13	26891
823.27	26667
823.41	26735
823.55	26560
823.69	26587
823.83	26613
823.97	26594
824.11	26632
824.25	26431
824.389	26514
824.529	26606
824.669	26545
824.809	26648
824.949	26560
825.089	26541
825.228	26518
825.368	26408
825.508	26431
825.648	26324
825.787	26503
825.927	26442
826.067	26400
826.206	26374
826.346	26511
826.485	26480
826.625	26259
826.765	26606
826.904	26336
827.044	26153
827.183	26126
827.323	26065
827.462	26103
827.601	26138
827.741	26122
827.88	26142
828.02	25963
828.159	26069
828.298	26252
828.437	26153
828.577	26081
828.716	26298
828.855	26122
828.994	25731
829.134	25780
829.273	25894
829.412	25750
829.551	25746
829.69	25662
829.829	25906
829.968	25868
830.107	25917
830.246	25784
830.385	25696
830.524	25723
830.663	25655
830.802	25601
830.941	25449
831.08	25274
831.219	25434
831.357	25445
831.496	25624
831.635	25327
831.774	25441
831.913	25160
832.051	25255
832.19	25133
832.329	25335
832.467	25171
832.606	24973
832.744	25145
832.883	24966
833.022	24928
833.16	25156
833.299	25137
833.437	25080
833.576	25065
833.714	25164
833.852	25217
833.991	25133
834.129	25221
834.267	25221
834.406	25065
834.544	25118
834.682	25179
834.821	24920
834.959	25301
835.097	25034
835.235	24935
835.373	25160
835.511	25091
835.65	24947
835.788	24821
835.926	24871
836.064	24776
836.202	24867
836.34	25023
836.478	25034
836.615	25091
836.753	24985
836.891	25061
837.029	25012
837.167	24848
837.305	24726
837.443	24844
837.58	24711
837.718	24840
837.856	24779
837.993	24753
838.131	24707
838.269	24589
838.406	24726
838.544	24620
838.681	24384
838.819	24384
838.956	24388
839.094	24220
839.231	24277
839.369	24429
839.506	24684
839.643	24452
839.781	24334
839.918	24171
840.055	24216
840.193	24186
840.33	24235
840.467	24125
840.604	24144
840.742	24391
840.879	24121
841.016	24102
841.153	23942
841.29	24235
841.427	24174
841.564	24201
841.701	24144
841.838	24060
841.975	24106
842.112	23996
842.249	23984
842.385	23821
842.522	24174
842.659	23939
842.796	23950
842.933	23859
843.069	23897
843.206	23946
843.343	23931
843.479	23916
843.616	23901
843.752	23691
843.889	23684
844.025	23935
844.162	23741
844.298	23828
844.435	23646
844.571	23748
844.708	23805
844.844	23809
844.98	23889
845.117	23851
845.253	23604
845.389	23520
845.525	23619
845.661	23604
845.798	23341
845.934	23429
846.07	23395
846.206	23421
846.342	23577
846.478	23360
846.614	23280
846.75	23102
846.886	23121
847.022	23391
847.158	23109
847.294	23235
847.429	23174
847.565	23181
847.701	23402
847.837	23056
847.972	22908
848.108	22927
848.244	22934
848.379	22801
848.515	22778
848.65	22790
848.786	22797
848.921	22713
849.057	22862
849.192	22683
849.328	22752
849.463	22592
849.598	22793
849.734	22645
849.869	22504
850.004	22489
850.14	22447
850.275	22573
850.41	22436
850.545	22428
850.68	22455
850.815	22569
850.95	22447
851.085	22774
851.22	22603
851.355	22375
851.49	22500
851.625	22459
851.76	22432
851.895	22409
852.03	22424
852.165	22554
852.299	22596
852.434	22565
852.569	22497
852.703	22493
852.838	22561
852.973	22668
853.107	22588
853.242	22443
853.376	22367
853.511	22188
853.645	22318
853.78	22462
853.914	22303
854.048	22280
854.183	22226
854.317	22394
854.451	22500
854.585	22363
854.72	22356
854.854	22337
854.988	22314
855.122	22287
855.256	22272
855.39	22322
855.524	22497
855.658	22223
855.792	22272
855.926	22542
856.06	22436
856.194	22409
856.327	22356
856.461	22318
856.595	22352
856.729	22417
856.862	22443
856.996	22322
857.13	22485
857.263	22398
857.397	22504
857.53	22360
857.664	22322
857.797	22284
857.931	22538
858.064	22249
858.197	22413
858.331	22215
858.464	22303
858.597	22238
858.731	22344
858.864	22265
858.997	22382
859.13	22230
859.263	22303
859.396	22348
859.529	22348
859.662	22234
859.795	22287
859.928	22314
860.061	22504
860.194	22497
860.327	22367
860.46	22352
860.592	22424
860.725	22478
860.858	22577
860.99	22230
861.123	22185
861.256	22238
861.388	22348
861.521	22896
861.653	22280
861.786	22101
861.918	22192
862.05	22101
862.183	22318
862.315	22219
862.447	22367
862.58	22226
862.712	22105
862.844	22070
862.976	22150
863.108	22063
863.24	22443
863.372	21956
863.504	22067
863.636	21998
863.768	22116
863.9	22051
864.032	21991
864.164	22021
864.296	21998
864.428	22162
864.559	22131
864.691	22090
864.823	22063
864.954	21945
865.086	22025
865.217	22021
865.349	21739
865.48	21899
865.612	21979
865.743	21994
865.875	21907
866.006	21922
866.137	21854
866.269	21975
866.4	21953
866.531	21930
866.662	21717
866.793	21842
866.924	21899
867.055	21869
867.186	21800
867.317	21778
867.448	21808
867.579	21838
867.71	21717
867.841	21739
867.972	21808
868.103	21770
868.233	21850
868.364	21770
868.495	21953
868.625	22055
868.756	22006
868.886	21964
869.017	22207
869.147	22284
869.278	22192
869.408	22055
869.539	22147
869.669	22185
869.799	22150
869.929	22147
870.06	22253
870.19	22436
870.32	22394
870.45	22489
870.58	22386
870.71	22577
870.84	22500
870.97	22523
871.1	22417
871.23	22793
871.36	22736
871.489	22485
871.619	22611
871.749	22611
871.879	22778
872.008	22736
872.138	22717
872.267	22713
872.397	22561
872.526	22569
872.656	22554
872.785	22561
872.915	22660
873.044	22599
873.173	22767
873.303	22755
873.432	22725
873.561	22919
873.69	22839
873.819	22820
873.948	22877
874.077	22717
874.206	22538
874.335	22752
874.464	22805
874.593	23067
874.722	22839
874.851	22892
874.979	23128
875.108	22919
875.237	22877
875.365	22881
875.494	22858
875.623	22900
875.751	22946
875.88	22930
876.008	22991
876.136	23064
876.265	23280
876.393	23448
876.521	23330
876.65	23398
876.778	23246
876.906	23124
877.034	23341
877.162	23322
877.29	23318
877.418	23345
877.546	23334
877.674	23398
877.802	23090
877.93	23227
878.058	23349
878.185	23197
878.313	23231
878.441	23258
878.568	23064
878.696	23159
878.824	23292
878.951	23250
879.079	23516
879.206	23611
879.333	23391
879.461	23368
879.588	23406
879.715	23410
879.842	23463
879.97	23398
880.097	23083
880.224	23117
880.351	23121
880.478	23086
880.605	23029
880.732	22923
880.859	23193
880.986	23098
881.112	23121
881.239	22942
881.366	22847
881.493	22679
881.619	22554
881.746	22805
881.872	22733
881.999	22656
882.125	22557
882.252	22611
882.378	22603
882.505	22679
882.631	22497
882.757	22405
882.883	22402
883.01	22341
883.136	22284
883.262	22310
883.388	22139
883.514	22337
883.64	22314
883.766	22276
883.892	22067
884.018	22162
884.143	22215
884.269	22363
884.395	22059
884.52	22074
884.646	21934
884.772	21960
884.897	21907
885.023	21915
885.148	21972
885.274	22116
885.399	22063
885.524	21922
885.65	21953
885.775	21789
885.9	21941
886.025	21941
886.15	22002
886.275	21842
886.4	21812
886.525	21922
886.65	21918
886.775	21953
886.9	21975
887.025	22086
887.149	21857
887.274	21808
887.399	21800
887.523	21800
887.648	21743
887.773	21610
887.897	21747
888.021	21694
888.146	21629
888.27	21838
888.395	21804
888.519	21846
888.643	21755
888.767	21755
888.891	21523
889.015	21549
889.139	21576
889.263	21462
889.387	21545
889.511	21720
889.635	21759
889.759	21545
889.883	21572
890.006	21500
890.13	21690
890.254	21408
890.377	21511
890.501	21272
890.624	21199
890.748	21256
890.871	21131
890.995	21077
891.118	20986
891.241	21005
891.364	21096
891.488	21135
891.611	21138
891.734	21116
891.857	21119
891.98	21165
892.103	21108
892.226	21020
892.349	20956
892.471	20868
892.594	20967
892.717	20906
892.839	20918
892.962	21051
893.085	21039
893.207	20952
893.33	20899
893.452	20788
893.575	20956
893.697	21039
893.819	21138
893.941	21146
894.064	21070
894.186	20933
894.308	20845
894.43	20933
894.552	21066
894.674	20994
894.796	20800
894.918	20868
895.04	20929
895.161	20891
895.283	21039
895.405	20842
895.526	21017
895.648	20857
895.769	20967
895.891	20910
896.012	21013
896.134	20960
896.255	20933
896.376	20883
896.498	20925
896.619	20823
896.74	20880
896.861	20990
896.982	21256
897.103	21401
897.224	21203
897.345	20937
897.466	21055
897.587	21108
897.708	21214
897.828	21142
897.949	21138
898.07	20933
898.19	21013
898.311	21195
898.431	21123
898.552	21173
898.672	21195
898.792	21142
898.913	21116
899.033	20994
899.153	20979
899.273	20750
899.393	20941
899.513	20906
899.633	20902
899.753	20823
899.873	20823
899.993	20960
900.113	20796
900.232	20804
900.352	20602
900.472	20739
900.591	20587
900.711	20750
900.83	20594
900.95	20663
901.069	20670
901.189	20568
901.308	20358
901.427	20081
901.546	20252
901.665	20278
901.784	20195
901.904	20157
902.023	20027
902.141	19731
902.26	19803
902.379	19799
902.498	19700
902.617	19666
902.735	19769
902.854	19715
902.973	19609
903.091	19403
903.21	19472
903.328	19358
903.446	19358
903.565	19126
903.683	19263
903.801	19027
903.919	19209
904.038	19050
904.156	18901
904.274	19015
904.392	18886
904.51	18791
904.627	18901
904.745	18886
904.863	18985
904.981	18741
905.098	18623
905.216	18665
905.334	18745
905.451	18669
905.569	18601
905.686	18673
905.803	18509
905.921	18369
906.038	18441
906.155	18422
906.272	18194
906.389	18350
906.506	18125
906.623	18095
906.74	18129
906.857	18041
906.974	17920
907.091	18205
907.208	18201
907.324	18148
907.441	18019
907.557	17916
907.674	17863
907.79	17745
907.907	17882
908.023	17904
908.139	17843
908.256	17687
908.372	17733
908.488	17676
908.604	17623
908.72	17535
908.836	17684
908.952	17566
909.068	17554
909.184	17562
909.3	17596
909.415	17585
909.531	17459
909.647	17258
909.762	17227
909.878	17147
909.993	17193
910.108	17216
910.224	17128
910.339	17269
910.454	17102
910.57	17109
910.685	17060
910.8	17242
910.915	17277
911.03	17045
911.145	16847
911.259	16816
911.374	16942
911.489	16759
911.604	16611
911.718	16569
911.833	16580
911.947	16478
912.062	16493
912.176	16569
912.291	16523
912.405	16660
912.519	16744
912.633	16805
912.748	16649
912.862	16561
912.976	16447
913.09	16371
913.204	16356
913.318	16314
913.431	16493
913.545	16436
913.659	16500
913.772	16325
913.886	16135
914	16158
914.113	16299
914.226	16303
914.34	16185
914.453	16036
914.566	16120
914.68	16082
914.793	15956
914.906	15789
915.019	15778
915.132	15675
915.245	15762
915.358	15747
915.47	15690
915.583	15713
915.696	15766
915.809	15766
915.921	15884
916.034	15629
916.146	15648
916.259	15576
916.371	15728
916.483	15622
916.595	15595
916.708	15572
916.82	15663
916.932	15587
917.044	15511
917.156	15466
917.268	15332
917.38	15477
917.491	15386
917.603	15355
917.715	15462
917.826	15420
917.938	15332
918.049	15233
918.161	15348
918.272	15443
918.384	15374
918.495	15256
918.606	15165
918.717	15043
918.828	15127
918.939	15211
919.05	15036
919.161	15017
919.272	14921
919.383	14944
919.494	15119
919.604	15291
919.715	15157
919.826	14986
919.936	15150
920.047	15070
920.157	15051
920.267	15249
920.378	15066
920.488	15024
920.598	15260
920.708	15450
920.818	15192
920.928	15233
921.038	15450
921.148	15272
921.258	14937
921.368	14937
921.477	14777
921.587	14838
921.697	14735
921.806	14796
921.916	14689
922.025	14518
922.134	14446
922.244	14328
922.353	14469
922.462	14278
922.571	14240
922.68	14153
922.789	14077
922.898	14149
923.007	14012
923.116	14107
923.224	14001
923.333	13978
923.442	13856
923.55	13902
923.659	13982
923.767	13887
923.876	13784
923.984	13909
924.092	13753
924.201	13849
924.309	13814
924.417	13849
924.525	13708
924.633	13769
924.741	14636
924.849	13460
924.956	13571
925.064	13540
925.172	13422
925.279	13518
925.387	13453
925.494	13407
925.602	13533
925.709	13434
925.816	13381
925.924	13365
926.031	13525
926.138	13392
926.245	13407
926.352	13263
926.459	13434
926.566	13468
926.673	13251
926.779	13213
926.886	13221
926.993	13000
927.099	13000
927.206	12958
927.312	12943
927.419	13171
927.525	13000
927.631	12989
927.737	12989
927.843	12844
927.95	12791
928.056	12783
928.162	12791
928.267	12882
928.373	13434
928.479	12863
928.585	12684
928.69	12783
928.796	12715
928.901	12757
929.007	12525
929.112	12768
929.218	12673
929.323	12642
929.428	12616
929.533	12684
929.638	12471
929.743	12559
929.848	12555
929.953	12513
930.058	12369
930.163	12270
930.267	12251
930.372	12346
930.477	12270
930.581	12418
930.685	12350
930.79	12163
930.894	12117
930.998	12015
931.103	12224
931.207	11927
931.311	11802
931.415	11764
931.519	11535
931.623	11501
