Data from test_V78500241_1065.txt Node
Date: Fri Mar 25 15:49:10 CST 2022
User: usil
Spectrometer: V785-0024
Trigger mode: 0
Integration Time (sec): 4.000000E-1
Scans to average: 1
Nonlinearity correction enabled: false
Boxcar width: 0
Storing dark spectrum: false
XAxis mode: Wavelengths
Number of Pixels in Spectrum: 1024
>>>>>Begin Spectral Data<<<<<
801.071	28234
801.214	28246
801.356	28150
801.499	28006
801.641	27713
801.783	27865
801.926	27892
802.068	27846
802.211	27717
802.353	27736
802.496	27542
802.638	27458
802.78	27511
802.923	27412
803.065	27405
803.208	27469
803.35	27534
803.492	27511
803.635	27743
803.777	27576
803.919	27656
804.061	28086
804.204	27816
804.346	27663
804.488	27610
804.63	27705
804.773	27603
804.915	27717
805.057	27831
805.199	27724
805.341	27789
805.483	27960
805.626	27797
805.768	27949
805.91	27774
806.052	27781
806.194	27660
806.336	28112
806.478	27861
806.62	27937
806.762	27869
806.904	28082
807.046	28557
807.188	28329
807.33	28360
807.472	28405
807.614	28287
807.756	28379
807.898	28215
808.04	28200
808.182	28211
808.324	28150
808.465	28268
808.607	28341
808.749	28649
808.891	28660
809.033	28668
809.174	28592
809.316	28546
809.458	28672
809.6	28424
809.741	28774
809.883	28664
810.025	28710
810.166	28869
810.308	28721
810.45	28850
810.591	28797
810.733	28421
810.875	28550
811.016	28542
811.158	28531
811.299	28725
811.441	28660
811.582	28850
811.724	28500
811.865	28497
812.007	28542
812.148	28478
812.29	28672
812.431	28782
812.573	28949
812.714	28991
812.855	29136
812.997	29204
813.138	29372
813.279	29273
813.421	29102
813.562	29117
813.703	28915
813.845	28683
813.986	28375
814.127	28295
814.268	28306
814.41	28238
814.551	28185
814.692	28344
814.833	28173
814.974	28154
815.115	28238
815.256	28192
815.397	28070
815.539	28135
815.68	28074
815.821	27956
815.962	27907
816.103	28051
816.244	27869
816.385	27781
816.526	27835
816.666	27766
816.807	27587
816.948	27701
817.089	27648
817.23	27644
817.371	27443
817.512	27660
817.653	27652
817.793	27511
817.934	27595
818.075	27641
818.216	27580
818.356	27595
818.497	27511
818.638	27340
818.778	27272
818.919	27302
819.06	27420
819.2	27405
819.341	27610
819.481	27488
819.622	27701
819.762	27907
819.903	27789
820.043	27774
820.184	27705
820.324	27808
820.465	27778
820.605	27724
820.746	27743
820.886	27462
821.026	27759
821.167	27679
821.307	27656
821.447	27496
821.588	27511
821.728	27447
821.868	27207
822.008	27058
822.149	26982
822.289	26940
822.429	26861
822.569	26769
822.709	26689
822.849	26598
822.99	26530
823.13	26613
823.27	26530
823.41	26381
823.55	26294
823.69	26377
823.83	26499
823.97	26259
824.11	26073
824.25	26138
824.389	26278
824.529	26358
824.669	26248
824.809	26229
824.949	26358
825.089	26385
825.228	26168
825.368	25970
825.508	26126
825.648	26050
825.787	26157
825.927	26214
826.067	26035
826.206	25947
826.346	26107
826.485	26031
826.625	26157
826.765	26012
826.904	26130
827.044	25845
827.183	25799
827.323	25681
827.462	25902
827.601	25845
827.741	25624
827.88	25784
828.02	25689
828.159	25693
828.298	25868
828.437	25868
828.577	25799
828.716	25826
828.855	25715
828.994	25491
829.134	25438
829.273	25487
829.412	25518
829.551	25449
829.69	25430
829.829	25453
829.968	25613
830.107	25590
830.246	25502
830.385	25384
830.524	25407
830.663	25266
830.802	25228
830.941	25107
831.08	25103
831.219	25156
831.357	25091
831.496	25232
831.635	25164
831.774	24924
831.913	25019
832.051	24958
832.19	24886
832.329	24947
832.467	24882
832.606	24711
832.744	24658
832.883	24783
833.022	24848
833.16	24787
833.299	24760
833.437	24760
833.576	24753
833.714	24894
833.852	24814
833.991	24970
834.129	24928
834.267	24947
834.406	24776
834.544	24863
834.682	24924
834.821	24833
834.959	24989
835.097	24810
835.235	24821
835.373	24817
835.511	24806
835.65	24684
835.788	24635
835.926	24544
836.064	24498
836.202	24342
836.34	24627
836.478	24810
836.615	24711
836.753	24661
836.891	24772
837.029	24696
837.167	24646
837.305	24673
837.443	24433
837.58	24479
837.718	24532
837.856	24494
837.993	24426
838.131	24502
838.269	24323
838.406	24441
838.544	24296
838.681	23973
838.819	24209
838.956	23992
839.094	23863
839.231	23939
839.369	24091
839.506	24357
839.643	24121
839.781	23920
839.918	23828
840.055	23889
840.193	23870
840.33	23783
840.467	23946
840.604	23923
840.742	24030
840.879	23874
841.016	23809
841.153	23775
841.29	23923
841.427	23863
841.564	23813
841.701	23813
841.838	23767
841.975	23745
842.112	23897
842.249	23672
842.385	23657
842.522	23935
842.659	23596
842.796	23710
842.933	23646
843.069	23539
843.206	23512
843.343	23623
843.479	23509
843.616	23478
843.752	23452
843.889	23360
844.025	23558
844.162	23356
844.298	23493
844.435	23117
844.571	23429
844.708	23311
844.844	23543
844.98	23505
845.117	23512
845.253	23417
845.389	23273
845.525	23261
845.661	23212
845.798	23109
845.934	23185
846.07	23124
846.206	23140
846.342	23246
846.478	23128
846.614	22915
846.75	22645
846.886	22934
847.022	23041
847.158	22843
847.294	22881
847.429	22782
847.565	22778
847.701	22915
847.837	22622
847.972	22523
848.108	22793
848.244	22603
848.379	22500
848.515	22440
848.65	22363
848.786	22432
848.921	22402
849.057	22641
849.192	22691
849.328	22478
849.463	22504
849.598	22348
849.734	22348
849.869	22204
850.004	22192
850.14	22303
850.275	22112
850.41	22135
850.545	22192
850.68	22158
850.815	22322
850.95	22147
851.085	22272
851.22	22333
851.355	22261
851.49	22112
851.625	22181
851.76	22234
851.895	22166
852.03	22272
852.165	22135
852.299	22253
852.434	22352
852.569	22185
852.703	22124
852.838	22211
852.973	22436
853.107	22394
853.242	22238
853.376	22109
853.511	21945
853.645	22051
853.78	22192
853.914	22063
854.048	22093
854.183	21911
854.317	22021
854.451	22185
854.585	22032
854.72	22082
854.854	22185
854.988	21861
855.122	22017
855.256	21865
855.39	22055
855.524	22059
855.658	22090
855.792	22067
855.926	22017
856.06	21979
856.194	22021
856.327	21994
856.461	21934
856.595	21888
856.729	21850
856.862	22139
856.996	21884
857.13	22082
857.263	22128
857.397	22154
857.53	22090
857.664	21876
857.797	22044
857.931	22124
858.064	22143
858.197	22112
858.331	22059
858.464	22097
858.597	21907
858.731	21994
858.864	21918
858.997	22021
859.13	22017
859.263	22017
859.396	22067
859.529	21968
859.662	22055
859.795	21975
859.928	21994
860.061	22192
860.194	22379
860.327	22044
860.46	21953
860.592	22181
860.725	22139
860.858	22135
860.99	21930
861.123	21876
861.256	22025
861.388	22101
861.521	22862
861.653	21907
861.786	21785
861.918	21854
862.05	21987
862.183	21865
862.315	21926
862.447	21987
862.58	21831
862.712	21732
862.844	21778
862.976	21907
863.108	21713
863.24	22204
863.372	21610
863.504	21778
863.636	21778
863.768	21739
863.9	21709
864.032	21622
864.164	21724
864.296	21717
864.428	21846
864.559	21743
864.691	21861
864.823	21698
864.954	21564
865.086	21694
865.217	21610
865.349	21504
865.48	21679
865.612	21694
865.743	21759
865.875	21534
866.006	21587
866.137	21728
866.269	21728
866.4	21648
866.531	21477
866.662	21485
866.793	21606
866.924	21534
867.055	21553
867.186	21576
867.317	21485
867.448	21458
867.579	21504
867.71	21405
867.841	21477
867.972	21591
868.103	21511
868.233	21580
868.364	21542
868.495	21618
868.625	21701
868.756	21827
868.886	21587
869.017	21671
869.147	21941
869.278	21842
869.408	21816
869.539	21812
869.669	21926
869.799	21682
869.929	21850
870.06	21915
870.19	22131
870.32	22078
870.45	22059
870.58	22185
870.71	22246
870.84	22238
870.97	22219
871.1	22211
871.23	22333
871.36	22325
871.489	22272
871.619	22535
871.749	22344
871.879	22341
872.008	22607
872.138	22360
872.267	22272
872.397	22287
872.526	22226
872.656	22272
872.785	22257
872.915	22417
873.044	22371
873.173	22325
873.303	22474
873.432	22550
873.561	22516
873.69	22379
873.819	22382
873.948	22523
874.077	22413
874.206	22280
874.335	22455
874.464	22550
874.593	22599
874.722	22618
874.851	22641
874.979	22653
875.108	22637
875.237	22527
875.365	22569
875.494	22596
875.623	22607
875.751	22466
875.88	22546
876.008	22660
876.136	22733
876.265	22987
876.393	23227
876.521	22984
876.65	23079
876.778	23067
876.906	22972
877.034	22953
877.162	23018
877.29	22778
877.418	22999
877.546	22961
877.674	22968
877.802	22938
877.93	22919
878.058	22938
878.185	22835
878.313	22961
878.441	22957
878.568	22801
878.696	22889
878.824	22999
878.951	23102
879.079	23094
879.206	23254
879.333	23098
879.461	22991
879.588	23071
879.715	23147
879.842	23235
879.97	22987
880.097	22908
880.224	22721
880.351	22835
880.478	22831
880.605	22729
880.732	22729
880.859	22980
880.986	22710
881.112	22801
881.239	22607
881.366	22637
881.493	22363
881.619	22402
881.746	22371
881.872	22386
881.999	22238
882.125	22253
882.252	22360
882.378	22265
882.505	22512
882.631	22246
882.757	22086
882.883	22082
883.01	22204
883.136	21987
883.262	21915
883.388	21880
883.514	22032
883.64	21930
883.766	21941
883.892	21816
884.018	21808
884.143	21903
884.269	21975
884.395	21694
884.52	21736
884.646	21698
884.772	21504
884.897	21542
885.023	21675
885.148	21766
885.274	21800
885.399	21728
885.524	21637
885.65	21679
885.775	21637
885.9	21614
886.025	21819
886.15	21644
886.275	21622
886.4	21603
886.525	21618
886.65	21648
886.775	21553
886.9	21724
887.025	21869
887.149	21557
887.274	21439
887.399	21359
887.523	21488
887.648	21329
887.773	21397
887.897	21530
888.021	21477
888.146	21428
888.27	21515
888.395	21553
888.519	21428
888.643	21272
888.767	21557
888.891	21283
889.015	21180
889.139	21374
889.263	21207
889.387	21332
889.511	21435
889.635	21408
889.759	21287
889.883	21230
890.006	21287
890.13	21374
890.254	21127
890.377	21032
890.501	21001
890.624	20960
890.748	20971
890.871	20857
890.995	20746
891.118	20632
891.241	20830
891.364	20823
891.488	20929
891.611	20804
891.734	20834
891.857	20842
891.98	20731
892.103	20857
892.226	20750
892.349	20739
892.471	20598
892.594	20503
892.717	20743
892.839	20792
892.962	20792
893.085	20765
893.207	20659
893.33	20408
893.452	20575
893.575	20762
893.697	20705
893.819	20826
893.941	20868
894.064	20842
894.186	20621
894.308	20518
894.43	20712
894.552	20838
894.674	20674
894.796	20484
894.918	20629
895.04	20674
895.161	20663
895.283	20750
895.405	20434
895.526	20655
895.648	20590
895.769	20667
895.891	20769
896.012	20720
896.134	20727
896.255	20743
896.376	20518
896.498	20568
896.619	20663
896.74	20579
896.861	20674
896.982	20998
897.103	21066
897.224	20906
897.345	20819
897.466	20788
897.587	20956
897.708	21066
897.828	20902
897.949	20914
898.07	20750
898.19	20826
898.311	20929
898.431	20765
898.552	20773
898.672	20956
898.792	20998
898.913	20838
899.033	20609
899.153	20659
899.273	20560
899.393	20629
899.513	20579
899.633	20602
899.753	20609
899.873	20545
899.993	20609
900.113	20374
900.232	20549
900.352	20522
900.472	20423
900.591	20412
900.711	20404
900.83	20377
900.95	20492
901.069	20507
901.189	20290
901.308	20012
901.427	20001
901.546	19978
901.665	20024
901.784	19974
901.904	19875
902.023	19704
902.141	19601
902.26	19460
902.379	19533
902.498	19377
902.617	19438
902.735	19556
902.854	19415
902.973	19251
903.091	19206
903.21	19141
903.328	19228
903.446	19027
903.565	18837
903.683	18886
903.801	18852
903.919	18772
904.038	18875
904.156	18661
904.274	18776
904.392	18570
904.51	18711
904.627	18681
904.745	18692
904.863	18673
904.981	18589
905.098	18395
905.216	18403
905.334	18380
905.451	18315
905.569	18319
905.686	18429
905.803	18376
905.921	18270
906.038	18251
906.155	18201
906.272	18079
906.389	18003
906.506	17942
906.623	17874
906.74	17901
906.857	17824
906.974	17741
907.091	17901
907.208	18049
907.324	17904
907.441	17786
907.557	17710
907.674	17665
907.79	17562
907.907	17490
908.023	17657
908.139	17657
908.256	17581
908.372	17604
908.488	17505
908.604	17429
908.72	17273
908.836	17395
908.952	17292
909.068	17372
909.184	17455
909.3	17315
909.415	17391
909.531	17315
909.647	17242
909.762	16999
909.878	17117
909.993	17060
910.108	16930
910.224	16991
910.339	17067
910.454	16843
910.57	16797
910.685	16744
910.8	16965
910.915	16995
911.03	16885
911.145	16809
911.259	16554
911.374	16675
911.489	16634
911.604	16409
911.718	16344
911.833	16428
911.947	16280
912.062	16261
912.176	16409
912.291	16462
912.405	16394
912.519	16573
912.633	16546
912.748	16421
912.862	16306
912.976	16226
913.09	16013
913.204	16063
913.318	16204
913.431	16257
913.545	16169
913.659	16215
913.772	16074
913.886	16025
914	16044
914.113	16105
914.226	16055
914.34	16067
914.453	15922
914.566	15991
914.68	15827
914.793	15827
914.906	15690
915.019	15568
915.132	15454
915.245	15587
915.358	15660
915.47	15511
915.583	15614
915.696	15523
915.809	15720
915.921	15724
916.034	15584
916.146	15450
916.259	15454
916.371	15580
916.483	15488
916.595	15348
916.708	15378
916.82	15397
916.932	15439
917.044	15321
917.156	15348
917.268	15256
917.38	15294
917.491	15188
917.603	15192
917.715	15256
917.826	15237
917.938	15020
918.049	15074
918.161	15150
918.272	15378
918.384	15245
918.495	15211
918.606	14956
918.717	14899
918.828	14941
918.939	14975
919.05	14887
919.161	14963
919.272	14708
919.383	14754
919.494	14952
919.604	15150
919.715	14891
919.826	14765
919.936	14861
920.047	14899
920.157	14929
920.267	15005
920.378	15032
920.488	14910
920.598	15116
920.708	15173
920.818	15119
920.928	15009
921.038	15218
921.148	15203
921.258	14952
921.368	14743
921.477	14667
921.587	14663
921.697	14556
921.806	14587
921.916	14511
922.025	14400
922.134	14286
922.244	14294
922.353	14317
922.462	14202
922.571	14221
922.68	13986
922.789	13955
922.898	13856
923.007	13788
923.116	13974
923.224	13871
923.333	13917
923.442	13772
923.55	13731
923.659	13780
923.767	13814
923.876	13616
923.984	13803
924.092	13643
924.201	13738
924.309	13723
924.417	13647
924.525	13575
924.633	13636
924.741	14305
924.849	13468
924.956	13373
925.064	13373
925.172	13297
925.279	13274
925.387	13327
925.494	13396
925.602	13430
925.709	13316
925.816	13282
925.924	13236
926.031	13327
926.138	13213
926.245	13320
926.352	13293
926.459	13247
926.566	13468
926.673	13209
926.779	13031
926.886	12985
926.993	12977
927.099	12848
927.206	12852
927.312	12795
927.419	12962
927.525	12875
927.631	12939
927.737	12745
927.843	12711
927.95	12665
928.056	12673
928.162	12700
928.267	12772
928.373	13308
928.479	12787
928.585	12570
928.69	12589
928.796	12662
928.901	12608
929.007	12296
929.112	12585
929.218	12426
929.323	12384
929.428	12388
929.533	12578
929.638	12376
929.743	12342
929.848	12403
929.953	12330
930.058	12213
930.163	12038
930.267	12140
930.372	12266
930.477	12011
930.581	12235
930.685	12159
930.79	11901
930.894	11969
930.998	11916
931.103	12045
931.207	11703
931.311	11592
931.415	11478
931.519	11284
931.623	11265
