Data from test_V78500241_2652.txt Node
Date: Fri Mar 25 16:00:10 CST 2022
User: usil
Spectrometer: V785-0024
Trigger mode: 0
Integration Time (sec): 4.000000E-1
Scans to average: 1
Nonlinearity correction enabled: false
Boxcar width: 0
Storing dark spectrum: false
XAxis mode: Wavelengths
Number of Pixels in Spectrum: 1024
>>>>>Begin Spectral Data<<<<<
801.071	28668
801.214	28698
801.356	28352
801.499	28154
801.641	28356
801.783	28253
801.926	28257
802.068	28257
802.211	28223
802.353	28223
802.496	27987
802.638	27987
802.78	27918
802.923	27975
803.065	27755
803.208	27808
803.35	27934
803.492	28109
803.635	28173
803.777	28120
803.919	28204
804.061	28500
804.204	28344
804.346	28158
804.488	28067
804.63	28234
804.773	28112
804.915	28131
805.057	28265
805.199	28344
805.341	28207
805.483	28500
805.626	28268
805.768	28226
805.91	28337
806.052	28371
806.194	28238
806.336	28405
806.478	28360
806.62	28409
806.762	28615
806.904	28573
807.046	28873
807.188	28805
807.33	28831
807.472	28877
807.614	28637
807.756	28831
807.898	28554
808.04	28565
808.182	28592
808.324	28660
808.465	28721
808.607	28885
808.749	29071
808.891	29060
809.033	29364
809.174	29029
809.316	29006
809.458	28976
809.6	28911
809.741	29140
809.883	29189
810.025	29433
810.166	29391
810.308	29174
810.45	29223
810.591	29136
810.733	29014
810.875	29029
811.016	29064
811.158	28866
811.299	29090
811.441	29296
811.582	29193
811.724	29022
811.865	28946
812.007	29086
812.148	28980
812.29	29227
812.431	29200
812.573	29364
812.714	29417
812.855	29448
812.997	29634
813.138	29866
813.279	29703
813.421	29531
813.562	29417
813.703	29330
813.845	29235
813.986	29018
814.127	28877
814.268	28721
814.41	28729
814.551	28729
814.692	28866
814.833	28717
814.974	28634
815.115	28774
815.256	28569
815.397	28577
815.539	28577
815.68	28417
815.821	28417
815.962	28512
816.103	28557
816.244	28398
816.385	28261
816.526	28314
816.666	28192
816.807	28044
816.948	28150
817.089	28379
817.23	28226
817.371	28154
817.512	27945
817.653	28044
817.793	27956
817.934	27994
818.075	28109
818.216	28051
818.356	28051
818.497	27949
818.638	27728
818.778	27812
818.919	27762
819.06	27991
819.2	28017
819.341	28059
819.481	28036
819.622	28185
819.762	28382
819.903	28333
820.043	28375
820.184	28318
820.324	28268
820.465	28314
820.605	28280
820.746	28200
820.886	28109
821.026	28109
821.167	28139
821.307	28246
821.447	28112
821.588	27998
821.728	27865
821.868	27808
822.008	27603
822.149	27458
822.289	27545
822.429	27237
822.569	27214
822.709	27226
822.849	27146
822.99	27081
823.13	27001
823.27	27058
823.41	26838
823.55	26804
823.69	26853
823.83	26933
823.97	26929
824.11	26701
824.25	26648
824.389	26712
824.529	26792
824.669	26735
824.809	26864
824.949	26651
825.089	26762
825.228	26644
825.368	26522
825.508	26655
825.648	26655
825.787	26587
825.927	26754
826.067	26522
826.206	26617
826.346	26606
826.485	26826
826.625	26602
826.765	26743
826.904	26556
827.044	26320
827.183	26298
827.323	26317
827.462	26362
827.601	26267
827.741	26328
827.88	26427
828.02	26210
828.159	26199
828.298	26377
828.437	26419
828.577	26233
828.716	26374
828.855	26145
828.994	26069
829.134	26088
829.273	26016
829.412	25974
829.551	26008
829.69	26035
829.829	26084
829.968	26107
830.107	26027
830.246	26050
830.385	25875
830.524	25909
830.663	25734
830.802	25731
830.941	25575
831.08	25620
831.219	25693
831.357	25738
831.496	25826
831.635	25662
831.774	25533
831.913	25407
832.051	25518
832.19	25293
832.329	25304
832.467	25335
832.606	25240
832.744	25110
832.883	25209
833.022	25259
833.16	25278
833.299	25270
833.437	25350
833.576	25293
833.714	25209
833.852	25426
833.991	25362
834.129	25373
834.267	25377
834.406	25225
834.544	25362
834.682	25259
834.821	25293
834.959	25605
835.097	25145
835.235	25324
835.373	25304
835.511	25369
835.65	25148
835.788	25266
835.926	25061
836.064	24859
836.202	24977
836.34	25156
836.478	25278
836.615	25209
836.753	25114
836.891	25152
837.029	25190
837.167	24970
837.305	25004
837.443	25129
837.58	25050
837.718	24973
837.856	24920
837.993	24966
838.131	24992
838.269	24890
838.406	24924
838.544	24802
838.681	24661
838.819	24681
838.956	24414
839.094	24452
839.231	24479
839.369	24741
839.506	24894
839.643	24555
839.781	24513
839.918	24330
840.055	24452
840.193	24338
840.33	24414
840.467	24262
840.604	24407
840.742	24608
840.879	24201
841.016	24262
841.153	24171
841.29	24505
841.427	24304
841.564	24319
841.701	24319
841.838	24216
841.975	24247
842.112	24273
842.249	24194
842.385	24114
842.522	24391
842.659	24201
842.796	24087
842.933	23996
843.069	24030
843.206	24041
843.343	24155
843.479	24129
843.616	24041
843.752	23863
843.889	23965
844.025	23912
844.162	23836
844.298	24034
844.435	23863
844.571	23920
844.708	23999
844.844	24007
844.98	24079
845.117	23954
845.253	23771
845.389	23821
845.525	23775
845.661	23901
845.798	23570
845.934	23737
846.07	23638
846.206	23722
846.342	23798
846.478	23592
846.614	23455
846.75	23410
846.886	23349
847.022	23486
847.158	23337
847.294	23341
847.429	23452
847.565	23318
847.701	23623
847.837	23022
847.972	23064
848.108	23197
848.244	23090
848.379	23075
848.515	22946
848.65	22839
848.786	22953
848.921	22980
849.057	22987
849.192	22980
849.328	22862
849.463	23041
849.598	22927
849.734	22889
849.869	22660
850.004	22733
850.14	22755
850.275	22771
850.41	22557
850.545	22687
850.68	22626
850.815	22706
850.95	22702
851.085	22869
851.22	22862
851.355	22721
851.49	22691
851.625	22729
851.76	22592
851.895	22580
852.03	22683
852.165	22668
852.299	22729
852.434	22729
852.569	22763
852.703	22710
852.838	22668
852.973	22736
853.107	22820
853.242	22611
853.376	22577
853.511	22371
853.645	22504
853.78	22577
853.914	22512
854.048	22550
854.183	22280
854.317	22504
854.451	22687
854.585	22615
854.72	22527
854.854	22618
854.988	22485
855.122	22493
855.256	22428
855.39	22596
855.524	22626
855.658	22599
855.792	22573
855.926	22478
856.06	22527
856.194	22622
856.327	22409
856.461	22489
856.595	22436
856.729	22554
856.862	22641
856.996	22466
857.13	22698
857.263	22634
857.397	22683
857.53	22565
857.664	22561
857.797	22508
857.931	22573
858.064	22607
858.197	22656
858.331	22531
858.464	22394
858.597	22470
858.731	22497
858.864	22478
858.997	22611
859.13	22535
859.263	22512
859.396	22592
859.529	22417
859.662	22413
859.795	22500
859.928	22588
860.061	22550
860.194	22630
860.327	22481
860.46	22485
860.592	22630
860.725	22778
860.858	22603
860.99	22611
861.123	22428
861.256	22333
861.388	22569
861.521	23334
861.653	22409
861.786	22280
861.918	22360
862.05	22447
862.183	22481
862.315	22481
862.447	22649
862.58	22363
862.712	22253
862.844	22242
862.976	22234
863.108	22238
863.24	22641
863.372	22219
863.504	22223
863.636	22299
863.768	22215
863.9	22280
864.032	22188
864.164	22086
864.296	22219
864.428	22344
864.559	22291
864.691	22314
864.823	22249
864.954	22268
865.086	22215
865.217	22150
865.349	22032
865.48	22211
865.612	22109
865.743	22238
865.875	22063
866.006	22070
866.137	22070
866.269	22086
866.4	22097
866.531	22109
866.662	21972
866.793	21998
866.924	22101
867.055	22067
867.186	22036
867.317	21972
867.448	21865
867.579	21922
867.71	21884
867.841	21926
867.972	22032
868.103	22032
868.233	21994
868.364	22086
868.495	22120
868.625	22367
868.756	22306
868.886	22112
869.017	22215
869.147	22390
869.278	22375
869.408	22303
869.539	22249
869.669	22367
869.799	22314
869.929	22424
870.06	22386
870.19	22592
870.32	22500
870.45	22577
870.58	22637
870.71	22702
870.84	22653
870.97	22660
871.1	22672
871.23	22790
871.36	22843
871.489	22759
871.619	22767
871.749	22889
871.879	22774
872.008	22934
872.138	22961
872.267	22850
872.397	22892
872.526	22820
872.656	22733
872.785	22694
872.915	22892
873.044	23018
873.173	23006
873.303	22896
873.432	22980
873.561	22999
873.69	22778
873.819	22976
873.948	23044
874.077	22809
874.206	22797
874.335	22869
874.464	22984
874.593	23170
874.722	23090
874.851	23140
874.979	23143
875.108	23105
875.237	23162
875.365	23025
875.494	23033
875.623	23121
875.751	23121
875.88	23105
876.008	23204
876.136	23193
876.265	23459
876.393	23547
876.521	23562
876.65	23718
876.778	23414
876.906	23406
877.034	23387
877.162	23414
877.29	23478
877.418	23505
877.546	23531
877.674	23376
877.802	23478
877.93	23345
878.058	23334
878.185	23311
878.313	23318
878.441	23497
878.568	23269
878.696	23364
878.824	23376
878.951	23467
879.079	23608
879.206	23722
879.333	23558
879.461	23452
879.588	23573
879.715	23695
879.842	23596
879.97	23547
880.097	23311
880.224	23223
880.351	23326
880.478	23235
880.605	23280
880.732	23216
880.859	23474
880.986	23193
881.112	23231
881.239	23113
881.366	23094
881.493	22980
881.619	22892
881.746	22801
881.872	22877
881.999	22691
882.125	22717
882.252	22904
882.378	22801
882.505	22847
882.631	22641
882.757	22584
882.883	22470
883.01	22508
883.136	22470
883.262	22440
883.388	22310
883.514	22462
883.64	22531
883.766	22310
883.892	22284
884.018	22325
884.143	22390
884.269	22611
884.395	22116
884.52	22067
884.646	22120
884.772	22067
884.897	22097
885.023	22120
885.148	22257
885.274	22181
885.399	22219
885.524	22002
885.65	22101
885.775	22105
885.9	22169
886.025	22341
886.15	22253
886.275	22120
886.4	21956
886.525	22109
886.65	21991
886.775	22105
886.9	22238
887.025	22215
887.149	22059
887.274	21907
887.399	21865
887.523	21861
887.648	21846
887.773	21759
887.897	21930
888.021	21869
888.146	21838
888.27	21949
888.395	22010
888.519	21869
888.643	21903
888.767	22010
888.891	21747
889.015	21694
889.139	21698
889.263	21622
889.387	21808
889.511	21934
889.635	21827
889.759	21576
889.883	21576
890.006	21641
890.13	21808
890.254	21542
890.377	21595
890.501	21408
890.624	21542
890.748	21507
890.871	21268
890.995	21230
891.118	21131
891.241	21165
891.364	21207
891.488	21321
891.611	21180
891.734	21142
891.857	21306
891.98	21241
892.103	21260
892.226	21188
892.349	21154
892.471	21039
892.594	21184
892.717	21188
892.839	21032
892.962	21154
893.085	21154
893.207	21104
893.33	20998
893.452	21009
893.575	21233
893.697	20994
893.819	21245
893.941	21275
894.064	21173
894.186	21062
894.308	20994
894.43	21142
894.552	21195
894.674	21207
894.796	20944
894.918	21074
895.04	21017
895.161	21195
895.283	21058
895.405	20990
895.526	21180
895.648	21074
895.769	21199
895.891	21096
896.012	21142
896.134	21081
896.255	20948
896.376	20982
896.498	21058
896.619	21104
896.74	21112
896.861	21230
896.982	21500
897.103	21511
897.224	21389
897.345	21180
897.466	21241
897.587	21207
897.708	21488
897.828	21252
897.949	21313
898.07	21180
898.19	21176
898.311	21393
898.431	21230
898.552	21256
898.672	21344
898.792	21424
898.913	21355
899.033	21264
899.153	21112
899.273	21081
899.393	21051
899.513	21036
899.633	21024
899.753	20967
899.873	20921
899.993	21032
900.113	20948
900.232	21062
900.352	20925
900.472	20716
900.591	20693
900.711	20914
900.83	20754
900.95	20868
901.069	20910
901.189	20598
901.308	20423
901.427	20393
901.546	20377
901.665	20393
901.784	20385
901.904	20240
902.023	20031
902.141	19932
902.26	19970
902.379	20035
902.498	19814
902.617	19700
902.735	19974
902.854	19909
902.973	19795
903.091	19559
903.21	19525
903.328	19495
903.446	19438
903.565	19304
903.683	19251
903.801	19202
903.919	19274
904.038	19217
904.156	19000
904.274	19141
904.392	19023
904.51	19084
904.627	19095
904.745	19126
904.863	19072
904.981	18852
905.098	18776
905.216	18833
905.334	18814
905.451	18741
905.569	18730
905.686	18768
905.803	18703
905.921	18506
906.038	18601
906.155	18601
906.272	18452
906.389	18486
906.506	18304
906.623	18346
906.74	18155
906.857	18289
906.974	18209
907.091	18311
907.208	18426
907.324	18186
907.441	18216
907.557	18102
907.674	17988
907.79	17954
907.907	18026
908.023	18064
908.139	18030
908.256	17984
908.372	17790
908.488	17805
908.604	17714
908.72	17589
908.836	17786
908.952	17619
909.068	17676
909.184	17794
909.3	17687
909.415	17718
909.531	17642
909.647	17429
909.762	17360
909.878	17364
909.993	17360
910.108	17383
910.224	17284
910.339	17334
910.454	17197
910.57	17216
910.685	17083
910.8	17376
910.915	17398
911.03	17170
911.145	16946
911.259	16911
911.374	16991
911.489	16873
911.604	16809
911.718	16672
911.833	16774
911.947	16607
912.062	16478
912.176	16683
912.291	16793
912.405	16649
912.519	16934
912.633	16793
912.748	16721
912.862	16599
912.976	16538
913.09	16390
913.204	16451
913.318	16558
913.431	16607
913.545	16630
913.659	16577
913.772	16447
913.886	16386
914	16375
914.113	16405
914.226	16402
914.34	16348
914.453	16211
914.566	16265
914.68	16238
914.793	16128
914.906	15956
915.019	15922
915.132	15800
915.245	15846
915.358	15979
915.47	15975
915.583	15793
915.696	15915
915.809	16025
915.921	15983
916.034	15789
916.146	15713
916.259	15785
916.371	15850
916.483	15838
916.595	15736
916.708	15766
916.82	15682
916.932	15686
917.044	15698
917.156	15591
917.268	15538
917.38	15595
917.491	15599
917.603	15561
917.715	15561
917.826	15564
917.938	15485
918.049	15325
918.161	15458
918.272	15504
918.384	15587
918.495	15469
918.606	15283
918.717	15192
918.828	15283
918.939	15279
919.05	15150
919.161	15351
919.272	14960
919.383	15017
919.494	15321
919.604	15363
919.715	15256
919.826	15123
919.936	15131
920.047	15313
920.157	15176
920.267	15340
920.378	15279
920.488	15195
920.598	15180
920.708	15519
920.818	15329
920.928	15245
921.038	15458
921.148	15424
921.258	15100
921.368	15036
921.477	14937
921.587	14952
921.697	14762
921.806	14902
921.916	14849
922.025	14651
922.134	14545
922.244	14518
922.353	14697
922.462	14533
922.571	14324
922.68	14142
922.789	14218
922.898	14164
923.007	14240
923.116	14237
923.224	14164
923.333	14221
923.442	14084
923.55	14077
923.659	14084
923.767	14084
923.876	13978
923.984	14020
924.092	13959
924.201	13917
924.309	13921
924.417	13856
924.525	13932
924.633	13906
924.741	14716
924.849	13681
924.956	13822
925.064	13704
925.172	13529
925.279	13624
925.387	13521
925.494	13521
925.602	13746
925.709	13616
925.816	13510
925.924	13491
926.031	13643
926.138	13556
926.245	13521
926.352	13377
926.459	13597
926.566	13552
926.673	13403
926.779	13297
926.886	13244
926.993	13149
927.099	13099
927.206	13171
927.312	13099
927.419	13080
927.525	13038
927.631	13110
927.737	13000
927.843	12954
927.95	12878
928.056	12973
928.162	12859
928.267	13031
928.373	13449
928.479	12989
928.585	12696
928.69	12840
928.796	12973
928.901	12856
929.007	12642
929.112	12734
929.218	12734
929.323	12585
929.428	12662
929.533	12749
929.638	12540
929.743	12547
929.848	12650
929.953	12631
930.058	12502
930.163	12300
930.267	12391
930.372	12418
930.477	12220
930.581	12502
930.685	12311
930.79	12155
930.894	12171
930.998	12194
931.103	12308
931.207	11916
931.311	11775
931.415	11790
931.519	11646
931.623	11596
