Data from test_V78500241_2188.txt Node
Date: Fri Mar 25 15:56:57 CST 2022
User: usil
Spectrometer: V785-0024
Trigger mode: 0
Integration Time (sec): 4.000000E-1
Scans to average: 1
Nonlinearity correction enabled: false
Boxcar width: 0
Storing dark spectrum: false
XAxis mode: Wavelengths
Number of Pixels in Spectrum: 1024
>>>>>Begin Spectral Data<<<<<
801.071	28980
801.214	28843
801.356	28675
801.499	28542
801.641	28512
801.783	28424
801.926	28466
802.068	28554
802.211	28375
802.353	28344
802.496	28253
802.638	28112
802.78	28173
802.923	28181
803.065	28032
803.208	28055
803.35	28219
803.492	28272
803.635	28371
803.777	28325
803.919	28451
804.061	28706
804.204	28542
804.346	28341
804.488	28226
804.63	28314
804.773	28337
804.915	28489
805.057	28603
805.199	28398
805.341	28519
805.483	28557
805.626	28542
805.768	28523
805.91	28535
806.052	28554
806.194	28527
806.336	28744
806.478	28546
806.62	28573
806.762	28603
806.904	28843
807.046	29200
807.188	29010
807.33	28976
807.472	29227
807.614	28919
807.756	28968
807.898	28999
808.04	28873
808.182	28763
808.324	28927
808.465	28885
808.607	29109
808.749	29318
808.891	29395
809.033	29395
809.174	29242
809.316	29280
809.458	29269
809.6	29189
809.741	29410
809.883	29429
810.025	29547
810.166	29493
810.308	29497
810.45	29566
810.591	29486
810.733	29436
810.875	29307
811.016	29136
811.158	29136
811.299	29322
811.441	29501
811.582	29387
811.724	29501
811.865	29463
812.007	29239
812.148	29429
812.29	29250
812.431	29547
812.573	29642
812.714	29779
812.855	29726
812.997	29942
813.138	29939
813.279	29923
813.421	29866
813.562	29718
813.703	29695
813.845	29665
813.986	29181
814.127	29212
814.268	29018
814.41	29044
814.551	29037
814.692	29067
814.833	28946
814.974	28911
815.115	28949
815.256	28946
815.397	28854
815.539	29018
815.68	28850
815.821	28740
815.962	28953
816.103	28816
816.244	28641
816.385	28660
816.526	28588
816.666	28352
816.807	28234
816.948	28474
817.089	28481
817.23	28314
817.371	28329
817.512	28375
817.653	28287
817.793	28299
817.934	28246
818.075	28344
818.216	28386
818.356	28314
818.497	28287
818.638	27987
818.778	28036
818.919	28086
819.06	28120
819.2	28196
819.341	28409
819.481	28299
819.622	28550
819.762	28786
819.903	28512
820.043	28379
820.184	28485
820.324	28592
820.465	28615
820.605	28398
820.746	28455
820.886	28386
821.026	28409
821.167	28299
821.307	28455
821.447	28535
821.588	28128
821.728	28268
821.868	27926
822.008	27888
822.149	27751
822.289	27892
822.429	27580
822.569	27462
822.709	27431
822.849	27435
822.99	27169
823.13	27317
823.27	27275
823.41	27169
823.55	27173
823.69	27207
823.83	27165
823.97	27119
824.11	27009
824.25	26975
824.389	26986
824.529	27020
824.669	26975
824.809	27176
824.949	27055
825.089	27081
825.228	27020
825.368	26861
825.508	26880
825.648	26769
825.787	26834
825.927	26967
826.067	26746
826.206	26880
826.346	26842
826.485	26967
826.625	26693
826.765	26868
826.904	26940
827.044	26629
827.183	26594
827.323	26438
827.462	26617
827.601	26594
827.741	26724
827.88	26568
828.02	26465
828.159	26712
828.298	26560
828.437	26564
828.577	26362
828.716	26587
828.855	26412
828.994	26206
829.134	26271
829.273	26301
829.412	26130
829.551	26115
829.69	26256
829.829	26233
829.968	26290
830.107	26408
830.246	26347
830.385	26263
830.524	26225
830.663	26145
830.802	25978
830.941	25898
831.08	25875
831.219	25902
831.357	26043
831.496	26126
831.635	25947
831.774	25795
831.913	25658
832.051	25693
832.19	25575
832.329	25708
832.467	25548
832.606	25559
832.744	25476
832.883	25457
833.022	25422
833.16	25662
833.299	25468
833.437	25620
833.576	25628
833.714	25590
833.852	25696
833.991	25647
834.129	25757
834.267	25590
834.406	25518
834.544	25670
834.682	25544
834.821	25616
834.959	25670
835.097	25578
835.235	25662
835.373	25552
835.511	25434
835.65	25430
835.788	25400
835.926	25343
836.064	25293
836.202	25297
836.34	25479
836.478	25620
836.615	25384
836.753	25365
836.891	25533
837.029	25597
837.167	25327
837.305	25358
837.443	25247
837.58	25156
837.718	25365
837.856	25213
837.993	25122
838.131	25084
838.269	25118
838.406	25107
838.544	25012
838.681	24772
838.819	24840
838.956	24661
839.094	24779
839.231	24700
839.369	24943
839.506	25008
839.643	25023
839.781	24650
839.918	24722
840.055	24658
840.193	24703
840.33	24570
840.467	24536
840.604	24745
840.742	24947
840.879	24464
841.016	24601
841.153	24604
841.29	24642
841.427	24658
841.564	24555
841.701	24551
841.838	24521
841.975	24464
842.112	24399
842.249	24407
842.385	24342
842.522	24585
842.659	24460
842.796	24342
842.933	24251
843.069	24182
843.206	24258
843.343	24399
843.479	24350
843.616	24388
843.752	24140
843.889	24224
844.025	24304
844.162	24106
844.298	24251
844.435	24114
844.571	24045
844.708	24194
844.844	24197
844.98	24323
845.117	24209
845.253	24091
845.389	23988
845.525	23942
845.661	23859
845.798	23901
845.934	23916
846.07	23843
846.206	23779
846.342	24018
846.478	23870
846.614	23585
846.75	23627
846.886	23524
847.022	23684
847.158	23680
847.294	23551
847.429	23649
847.565	23558
847.701	23828
847.837	23349
847.972	23269
848.108	23318
848.244	23425
848.379	23277
848.515	23075
848.65	23102
848.786	23136
848.921	23121
849.057	23292
849.192	23178
849.328	23223
849.463	23090
849.598	23143
849.734	23140
849.869	22957
850.004	23041
850.14	23037
850.275	22968
850.41	22850
850.545	22843
850.68	22953
850.815	23071
850.95	22896
851.085	23094
851.22	23109
851.355	22957
851.49	22782
851.625	22885
851.76	22801
851.895	22877
852.03	22839
852.165	22934
852.299	22987
852.434	23102
852.569	22866
852.703	23060
852.838	22862
852.973	23098
853.107	23083
853.242	22946
853.376	22771
853.511	22607
853.645	22706
853.78	22984
853.914	22866
854.048	22653
854.183	22801
854.317	22767
854.451	22889
854.585	22771
854.72	22801
854.854	22885
854.988	22675
855.122	22812
855.256	22588
855.39	22702
855.524	22820
855.658	22771
855.792	22805
855.926	22793
856.06	22816
856.194	22759
856.327	22790
856.461	22683
856.595	22538
856.729	22771
856.862	22790
856.996	22748
857.13	22725
857.263	22824
857.397	22717
857.53	22706
857.664	22831
857.797	22892
857.931	22854
858.064	22710
858.197	22744
858.331	22702
858.464	22729
858.597	22702
858.731	22755
858.864	22634
858.997	22759
859.13	22771
859.263	22637
859.396	22786
859.529	22694
859.662	22797
859.795	22531
859.928	22721
860.061	23014
860.194	22911
860.327	22710
860.46	22820
860.592	22953
860.725	22869
860.858	22949
860.99	22698
861.123	22611
861.256	22744
861.388	22694
861.521	23391
861.653	22565
861.786	22424
861.918	22550
862.05	22603
862.183	22698
862.315	22653
862.447	22774
862.58	22577
862.712	22451
862.844	22413
862.976	22504
863.108	22459
863.24	22820
863.372	22352
863.504	22409
863.636	22405
863.768	22443
863.9	22440
864.032	22284
864.164	22375
864.296	22462
864.428	22569
864.559	22462
864.691	22554
864.823	22538
864.954	22352
865.086	22356
865.217	22322
865.349	22287
865.48	22310
865.612	22234
865.743	22538
865.875	22318
866.006	22318
866.137	22360
866.269	22242
866.4	22352
866.531	22337
866.662	22223
866.793	22306
866.924	22173
867.055	22249
867.186	22322
867.317	22257
867.448	22166
867.579	22223
867.71	22150
867.841	22120
867.972	22230
868.103	22181
868.233	22246
868.364	22272
868.495	22382
868.625	22344
868.756	22664
868.886	22360
869.017	22508
869.147	22531
869.278	22542
869.408	22535
869.539	22386
869.669	22531
869.799	22615
869.929	22626
870.06	22516
870.19	22797
870.32	22679
870.45	22812
870.58	22968
870.71	22923
870.84	22999
870.97	22812
871.1	22984
871.23	22999
871.36	22919
871.489	22930
871.619	23064
871.749	23235
871.879	23090
872.008	23105
872.138	23006
872.267	23060
872.397	22949
872.526	22976
872.656	22911
872.785	22889
872.915	23200
873.044	23014
873.173	23117
873.303	23170
873.432	23185
873.561	23250
873.69	23189
873.819	23003
873.948	23170
874.077	23189
874.206	23136
874.335	23056
874.464	23254
874.593	23315
874.722	23303
874.851	23330
874.979	23330
875.108	23315
875.237	23193
875.365	23250
875.494	23254
875.623	23345
875.751	23277
875.88	23280
876.008	23379
876.136	23497
876.265	23703
876.393	23950
876.521	23767
876.65	23745
876.778	23623
876.906	23577
877.034	23699
877.162	23596
877.29	23452
877.418	23687
877.546	23665
877.674	23531
877.802	23600
877.93	23638
878.058	23585
878.185	23535
878.313	23531
878.441	23649
878.568	23493
878.696	23577
878.824	23573
878.951	23722
879.079	23741
879.206	23882
879.333	23771
879.461	23566
879.588	23646
879.715	23843
879.842	23882
879.97	23726
880.097	23467
880.224	23493
880.351	23429
880.478	23425
880.605	23535
880.732	23414
880.859	23707
880.986	23421
881.112	23535
881.239	23273
881.366	23060
881.493	23067
881.619	23010
881.746	23056
881.872	23048
881.999	23124
882.125	23003
882.252	23022
882.378	22987
882.505	23136
882.631	22812
882.757	22698
882.883	22786
883.01	22740
883.136	22702
883.262	22481
883.388	22527
883.514	22755
883.64	22843
883.766	22672
883.892	22432
884.018	22459
884.143	22580
884.269	22607
884.395	22280
884.52	22223
884.646	22375
884.772	22253
884.897	22223
885.023	22299
885.148	22428
885.274	22363
885.399	22390
885.524	22390
885.65	22261
885.775	22333
885.9	22337
886.025	22379
886.15	22424
886.275	22238
886.4	22131
886.525	22158
886.65	22314
886.775	22257
886.9	22382
887.025	22485
887.149	22295
887.274	22120
887.399	22063
887.523	22207
887.648	22044
887.773	21960
887.897	22185
888.021	22093
888.146	21907
888.27	22181
888.395	22162
888.519	22055
888.643	22063
888.767	22124
888.891	21987
889.015	21869
889.139	21835
889.263	21865
889.387	21892
889.511	22032
889.635	22025
889.759	21812
889.883	21888
890.006	21937
890.13	21991
890.254	21743
890.377	21705
890.501	21614
890.624	21519
890.748	21739
890.871	21431
890.995	21443
891.118	21363
891.241	21507
891.364	21367
891.488	21553
891.611	21389
891.734	21412
891.857	21389
891.98	21397
892.103	21321
892.226	21500
892.349	21424
892.471	21138
892.594	21325
892.717	21348
892.839	21188
892.962	21321
893.085	21428
893.207	21180
893.33	21176
893.452	21218
893.575	21294
893.697	21154
893.819	21393
893.941	21496
894.064	21454
894.186	21245
894.308	21146
894.43	21507
894.552	21435
894.674	21348
894.796	21203
894.918	21233
895.04	21180
895.161	21291
895.283	21359
895.405	21165
895.526	21241
895.648	21249
895.769	21435
895.891	21211
896.012	21310
896.134	21272
896.255	21275
896.376	21226
896.498	21260
896.619	21230
896.74	21222
896.861	21466
896.982	21564
897.103	21694
897.224	21450
897.345	21561
897.466	21386
897.587	21412
897.708	21686
897.828	21473
897.949	21428
898.07	21393
898.19	21477
898.311	21583
898.431	21367
898.552	21526
898.672	21431
898.792	21450
898.913	21481
899.033	21256
899.153	21325
899.273	21199
899.393	21146
899.513	21226
899.633	21146
899.753	21298
899.873	21192
899.993	21192
900.113	21108
900.232	21055
900.352	21154
900.472	21142
900.591	20967
900.711	21036
900.83	20853
900.95	21104
901.069	20941
901.189	20796
901.308	20632
901.427	20579
901.546	20476
901.665	20541
901.784	20511
901.904	20332
902.023	20431
902.141	20073
902.26	20046
902.379	20134
902.498	20153
902.617	19997
902.735	20161
902.854	19989
902.973	19944
903.091	19693
903.21	19769
903.328	19746
903.446	19689
903.565	19491
903.683	19533
903.801	19445
903.919	19426
904.038	19354
904.156	19297
904.274	19441
904.392	19339
904.51	19187
904.627	19251
904.745	19232
904.863	19339
904.981	19046
905.098	18913
905.216	18958
905.334	18901
905.451	18833
905.569	19019
905.686	19019
905.803	18951
905.921	18741
906.038	18776
906.155	18696
906.272	18650
906.389	18726
906.506	18407
906.623	18471
906.74	18509
906.857	18384
906.974	18330
907.091	18475
907.208	18486
907.324	18486
907.441	18270
907.557	18243
907.674	18213
907.79	18098
907.907	18140
908.023	18159
908.139	18171
908.256	18197
908.372	18098
908.488	18159
908.604	17866
908.72	17836
908.836	17912
908.952	17794
909.068	17866
909.184	17958
909.3	17920
909.415	17908
909.531	17935
909.647	17642
909.762	17570
909.878	17630
909.993	17543
910.108	17543
910.224	17501
910.339	17474
910.454	17417
910.57	17410
910.685	17269
910.8	17619
910.915	17570
911.03	17387
911.145	17124
911.259	17083
911.374	17143
911.489	16976
911.604	17033
911.718	16873
911.833	16930
911.947	16812
912.062	16767
912.176	16957
912.291	16968
912.405	16866
912.519	17090
912.633	17128
912.748	16828
912.862	16911
912.976	16717
913.09	16634
913.204	16634
913.318	16679
913.431	16713
913.545	16733
913.659	16744
913.772	16603
913.886	16558
914	16417
914.113	16497
914.226	16592
914.34	16527
914.453	16299
914.566	16500
914.68	16405
914.793	16375
914.906	16223
915.019	16090
915.132	16051
915.245	16071
915.358	16109
915.47	16051
915.583	16010
915.696	16048
915.809	16246
915.921	16147
916.034	16010
916.146	16006
916.259	15960
916.371	16025
916.483	15934
916.595	15857
916.708	15835
916.82	15808
916.932	15808
917.044	15865
917.156	15835
917.268	15614
917.38	15629
917.491	15644
917.603	15686
917.715	15644
917.826	15743
917.938	15553
918.049	15523
918.161	15637
918.272	15778
918.384	15671
918.495	15595
918.606	15393
918.717	15310
918.828	15412
918.939	15393
919.05	15321
919.161	15313
919.272	15203
919.383	15161
919.494	15458
919.604	15538
919.715	15370
919.826	15344
919.936	15272
920.047	15412
920.157	15317
920.267	15523
920.378	15401
920.488	15264
920.598	15492
920.708	15523
920.818	15500
920.928	15519
921.038	15671
921.148	15561
921.258	15348
921.368	15146
921.477	15131
921.587	15039
921.697	15005
921.806	14967
921.916	14880
922.025	14739
922.134	14708
922.244	14655
922.353	14663
922.462	14552
922.571	14507
922.68	14362
922.789	14339
922.898	14336
923.007	14164
923.116	14320
923.224	14396
923.333	14332
923.442	14191
923.55	14248
923.659	14172
923.767	14195
923.876	14111
923.984	14176
924.092	14077
924.201	14119
924.309	13955
924.417	13959
924.525	13978
924.633	13963
924.741	14686
924.849	13712
924.956	13788
925.064	13814
925.172	13712
925.279	13670
925.387	13750
925.494	13605
925.602	13849
925.709	13761
925.816	13628
925.924	13605
926.031	13719
926.138	13575
926.245	13693
926.352	13575
926.459	13685
926.566	13765
926.673	13601
926.779	13411
926.886	13415
926.993	13316
927.099	13293
927.206	13209
927.312	13110
927.419	13285
927.525	13206
927.631	13263
927.737	13221
927.843	13107
927.95	12970
928.056	13046
928.162	13061
928.267	13110
928.373	13742
928.479	13126
928.585	12890
928.69	13053
928.796	13095
928.901	12935
929.007	12810
929.112	12943
929.218	12840
929.323	12817
929.428	12791
929.533	12817
929.638	12650
929.743	12734
929.848	12791
929.953	12688
930.058	12528
930.163	12422
930.267	12445
930.372	12608
930.477	12376
930.581	12673
930.685	12456
930.79	12407
930.894	12391
930.998	12228
931.103	12509
931.207	12022
931.311	12019
931.415	11851
931.519	11714
931.623	11585
