Data from test_V78500241_3426.txt Node
Date: Fri Mar 25 16:05:32 CST 2022
User: usil
Spectrometer: V785-0024
Trigger mode: 0
Integration Time (sec): 4.000000E-1
Scans to average: 1
Nonlinearity correction enabled: false
Boxcar width: 0
Storing dark spectrum: false
XAxis mode: Wavelengths
Number of Pixels in Spectrum: 1024
>>>>>Begin Spectral Data<<<<<
801.071	28805
801.214	28710
801.356	28573
801.499	28390
801.641	28341
801.783	28375
801.926	28310
802.068	28421
802.211	28249
802.353	28192
802.496	28188
802.638	28017
802.78	27987
802.923	28063
803.065	27880
803.208	27914
803.35	28067
803.492	28211
803.635	28204
803.777	28093
803.919	28348
804.061	28466
804.204	28462
804.346	28257
804.488	28143
804.63	28325
804.773	28200
804.915	28253
805.057	28527
805.199	28238
805.341	28462
805.483	28557
805.626	28390
805.768	28421
805.91	28436
806.052	28363
806.194	28268
806.336	28618
806.478	28436
806.62	28421
806.762	28626
806.904	28622
807.046	28930
807.188	28858
807.33	28790
807.472	29003
807.614	28843
807.756	28839
807.898	28843
808.04	28660
808.182	28721
808.324	28801
808.465	28869
808.607	28980
808.749	29242
808.891	29223
809.033	29284
809.174	29296
809.316	29155
809.458	29220
809.6	29216
809.741	29231
809.883	29364
810.025	29402
810.166	29592
810.308	29505
810.45	29379
810.591	29136
810.733	29231
810.875	29356
811.016	29109
811.158	29079
811.299	29098
811.441	29368
811.582	29318
811.724	29140
811.865	29151
812.007	29254
812.148	29124
812.29	29326
812.431	29406
812.573	29486
812.714	29573
812.855	29661
812.997	29585
813.138	29813
813.279	29931
813.421	29638
813.562	29668
813.703	29425
813.845	29398
813.986	29124
814.127	29041
814.268	28946
814.41	28812
814.551	28793
814.692	28923
814.833	28896
814.974	28904
815.115	28934
815.256	28721
815.397	28653
815.539	28828
815.68	28637
815.821	28771
815.962	28641
816.103	28592
816.244	28535
816.385	28379
816.526	28405
816.666	28242
816.807	28090
816.948	28238
817.089	28188
817.23	28139
817.371	28097
817.512	28166
817.653	28166
817.793	28226
817.934	28109
818.075	28287
818.216	28234
818.356	28135
818.497	28128
818.638	27846
818.778	27918
818.919	27816
819.06	28131
819.2	28109
819.341	28200
819.481	28299
819.622	28428
819.762	28573
819.903	28500
820.043	28394
820.184	28306
820.324	28333
820.465	28531
820.605	28268
820.746	28303
820.886	28200
821.026	28257
821.167	28185
821.307	28382
821.447	28234
821.588	28055
821.728	28048
821.868	27884
822.008	27682
822.149	27648
822.289	27641
822.429	27408
822.569	27340
822.709	27283
822.849	27222
822.99	27173
823.13	27165
823.27	27150
823.41	26883
823.55	26785
823.69	27116
823.83	26990
823.97	26975
824.11	26815
824.25	26739
824.389	26857
824.529	26918
824.669	26796
824.809	26887
824.949	26975
825.089	26948
825.228	26849
825.368	26629
825.508	26670
825.648	26716
825.787	26773
825.927	26796
826.067	26659
826.206	26807
826.346	26918
826.485	26762
826.625	26758
826.765	26826
826.904	26583
827.044	26571
827.183	26461
827.323	26324
827.462	26453
827.601	26469
827.741	26343
827.88	26434
828.02	26233
828.159	26461
828.298	26374
828.437	26648
828.577	26438
828.716	26511
828.855	26571
828.994	26161
829.134	26107
829.273	26263
829.412	26183
829.551	26157
829.69	26157
829.829	26180
829.968	26187
830.107	26199
830.246	26176
830.385	26027
830.524	26054
830.663	25887
830.802	25932
830.941	25681
831.08	25715
831.219	25849
831.357	25879
831.496	26046
831.635	25731
831.774	25655
831.913	25635
832.051	25681
832.19	25441
832.329	25544
832.467	25346
832.606	25430
832.744	25278
832.883	25365
833.022	25331
833.16	25362
833.299	25472
833.437	25392
833.576	25285
833.714	25499
833.852	25563
833.991	25506
834.129	25609
834.267	25609
834.406	25396
834.544	25453
834.682	25388
834.821	25430
834.959	25651
835.097	25282
835.235	25548
835.373	25381
835.511	25525
835.65	25350
835.788	25392
835.926	25221
836.064	24996
836.202	25198
836.34	25365
836.478	25331
836.615	25365
836.753	25285
836.891	25270
837.029	25327
837.167	25190
837.305	25331
837.443	25263
837.58	25023
837.718	25148
837.856	25274
837.993	25122
838.131	25015
838.269	24943
838.406	24977
838.544	24951
838.681	24916
838.819	24612
838.956	24612
839.094	24612
839.231	24532
839.369	24791
839.506	25008
839.643	24844
839.781	24700
839.918	24456
840.055	24593
840.193	24448
840.33	24490
840.467	24467
840.604	24486
840.742	24783
840.879	24350
841.016	24513
841.153	24323
841.29	24597
841.427	24486
841.564	24498
841.701	24498
841.838	24445
841.975	24441
842.112	24334
842.249	24243
842.385	24190
842.522	24395
842.659	24289
842.796	24300
842.933	24327
843.069	24121
843.206	24285
843.343	24395
843.479	24235
843.616	24323
843.752	24030
843.889	24022
844.025	24178
844.162	24026
844.298	24152
844.435	23954
844.571	24007
844.708	24007
844.844	24338
844.98	24140
845.117	24117
845.253	24095
845.389	23859
845.525	24003
845.661	23939
845.798	23726
845.934	23866
846.07	23642
846.206	23699
846.342	23783
846.478	23745
846.614	23410
846.75	23318
846.886	23535
847.022	23467
847.158	23410
847.294	23512
847.429	23436
847.565	23440
847.701	23726
847.837	23181
847.972	23048
848.108	23227
848.244	23292
848.379	23109
848.515	23223
848.65	23033
848.786	23010
848.921	23090
849.057	23185
849.192	23178
849.328	23018
849.463	23033
849.598	23010
849.734	22930
849.869	22877
850.004	22835
850.14	22885
850.275	22812
850.41	22740
850.545	22736
850.68	22793
850.815	22839
850.95	22889
851.085	23029
851.22	23003
851.355	22930
851.49	22858
851.625	22858
851.76	22793
851.895	22793
852.03	22736
852.165	22854
852.299	22790
852.434	22930
852.569	22748
852.703	22911
852.838	22873
852.973	22942
853.107	22908
853.242	22831
853.376	22592
853.511	22542
853.645	22584
853.78	22641
853.914	22626
854.048	22489
854.183	22649
854.317	22748
854.451	22839
854.585	22710
854.72	22740
854.854	22805
854.988	22584
855.122	22717
855.256	22622
855.39	22607
855.524	22847
855.658	22691
855.792	22611
855.926	22664
856.06	22592
856.194	22850
856.327	22664
856.461	22516
856.595	22679
856.729	22577
856.862	22774
856.996	22592
857.13	22664
857.263	22694
857.397	22778
857.53	22649
857.664	22790
857.797	22634
857.931	22862
858.064	22573
858.197	22797
858.331	22584
858.464	22546
858.597	22588
858.731	22607
858.864	22611
858.997	22519
859.13	22630
859.263	22710
859.396	22736
859.529	22706
859.662	22634
859.795	22637
859.928	22679
860.061	22892
860.194	22858
860.327	22774
860.46	22554
860.592	22713
860.725	22782
860.858	22763
860.99	22615
861.123	22634
861.256	22603
861.388	22641
861.521	23360
861.653	22615
861.786	22440
861.918	22474
862.05	22459
862.183	22481
862.315	22546
862.447	22573
862.58	22577
862.712	22485
862.844	22234
862.976	22519
863.108	22470
863.24	22778
863.372	22211
863.504	22394
863.636	22318
863.768	22523
863.9	22284
864.032	22226
864.164	22409
864.296	22447
864.428	22459
864.559	22508
864.691	22470
864.823	22421
864.954	22360
865.086	22291
865.217	22223
865.349	22139
865.48	22234
865.612	22291
865.743	22402
865.875	22299
866.006	22128
866.137	22215
866.269	22333
866.4	22318
866.531	22215
866.662	22242
866.793	22093
866.924	22177
867.055	22219
867.186	22185
867.317	22177
867.448	22074
867.579	22124
867.71	22055
867.841	22116
867.972	22154
868.103	22291
868.233	22173
868.364	22154
868.495	22265
868.625	22363
868.756	22466
868.886	22154
869.017	22337
869.147	22531
869.278	22531
869.408	22318
869.539	22405
869.669	22504
869.799	22641
869.929	22527
870.06	22481
870.19	22672
870.32	22698
870.45	22664
870.58	22831
870.71	22930
870.84	22866
870.97	22778
871.1	22816
871.23	22919
871.36	22980
871.489	22911
871.619	22972
871.749	22828
871.879	22984
872.008	23197
872.138	23014
872.267	22892
872.397	22816
872.526	22953
872.656	22717
872.785	22908
872.915	22995
873.044	23086
873.173	23003
873.303	22873
873.432	22877
873.561	23178
873.69	22919
873.819	23083
873.948	23067
874.077	22946
874.206	22881
874.335	23044
874.464	23136
874.593	23181
874.722	23143
874.851	23368
874.979	23220
875.108	23356
875.237	23231
875.365	23086
875.494	23109
875.623	23330
875.751	23178
875.88	23311
876.008	23326
876.136	23436
876.265	23649
876.393	23729
876.521	23748
876.65	23737
876.778	23726
876.906	23642
877.034	23531
877.162	23562
877.29	23570
877.418	23668
877.546	23585
877.674	23558
877.802	23524
877.93	23672
878.058	23570
878.185	23429
878.313	23440
878.441	23535
878.568	23543
878.696	23615
878.824	23592
878.951	23634
879.079	23733
879.206	23836
879.333	23748
879.461	23630
879.588	23775
879.715	23802
879.842	23843
879.97	23665
880.097	23490
880.224	23433
880.351	23467
880.478	23471
880.605	23421
880.732	23379
880.859	23649
880.986	23531
881.112	23467
881.239	23307
881.366	23117
881.493	23181
881.619	22949
881.746	23151
881.872	22972
881.999	23037
882.125	22915
882.252	22885
882.378	22843
882.505	23025
882.631	22828
882.757	22733
882.883	22820
883.01	22672
883.136	22683
883.262	22493
883.388	22516
883.514	22691
883.64	22774
883.766	22424
883.892	22512
884.018	22398
884.143	22588
884.269	22615
884.395	22147
884.52	22204
884.646	22242
884.772	22223
884.897	22322
885.023	22238
885.148	22379
885.274	22379
885.399	22253
885.524	22196
885.65	22310
885.775	22242
885.9	22246
886.025	22394
886.15	22360
886.275	22238
886.4	22086
886.525	22230
886.65	22295
886.775	22242
886.9	22363
887.025	22455
887.149	22238
887.274	21987
887.399	21994
887.523	22021
887.648	21956
887.773	21831
887.897	22173
888.021	22090
888.146	22025
888.27	22196
888.395	22029
888.519	21922
888.643	22002
888.767	22055
888.891	21922
889.015	21869
889.139	21930
889.263	21751
889.387	21915
889.511	22006
889.635	21930
889.759	21804
889.883	21808
890.006	21816
890.13	21816
890.254	21694
890.377	21637
890.501	21557
890.624	21591
890.748	21587
890.871	21393
890.995	21268
891.118	21310
891.241	21408
891.364	21378
891.488	21580
891.611	21454
891.734	21287
891.857	21393
891.98	21332
892.103	21336
892.226	21397
892.349	21237
892.471	21127
892.594	21275
892.717	21340
892.839	21317
892.962	21264
893.085	21294
893.207	21233
893.33	21123
893.452	21123
893.575	21279
893.697	21131
893.819	21367
893.941	21382
894.064	21321
894.186	21108
894.308	21074
894.43	21306
894.552	21321
894.674	21321
894.796	21279
894.918	21294
895.04	21123
895.161	21260
895.283	21256
895.405	21192
895.526	21237
895.648	21272
895.769	21218
895.891	21245
896.012	21260
896.134	21249
896.255	21100
896.376	21173
896.498	21298
896.619	21264
896.74	21116
896.861	21344
896.982	21492
897.103	21572
897.224	21458
897.345	21363
897.466	21226
897.587	21469
897.708	21504
897.828	21428
897.949	21462
898.07	21351
898.19	21332
898.311	21469
898.431	21302
898.552	21519
898.672	21496
898.792	21397
898.913	21397
899.033	21298
899.153	21252
899.273	21131
899.393	21043
899.513	21116
899.633	21047
899.753	21195
899.873	21116
899.993	21093
900.113	20975
900.232	21138
900.352	20956
900.472	20994
900.591	20967
900.711	20902
900.83	20830
900.95	20956
901.069	20990
901.189	20758
901.308	20549
901.427	20594
901.546	20495
901.665	20533
901.784	20419
901.904	20404
902.023	20210
902.141	19989
902.26	19928
902.379	20240
902.498	19894
902.617	20008
902.735	19970
902.854	19993
902.973	19883
903.091	19567
903.21	19643
903.328	19681
903.446	19480
903.565	19396
903.683	19339
903.801	19244
903.919	19441
904.038	19369
904.156	19194
904.274	19255
904.392	19084
904.51	19088
904.627	19137
904.745	19175
904.863	19327
904.981	18973
905.098	18783
905.216	18848
905.334	18973
905.451	18878
905.569	18802
905.686	18802
905.803	18798
905.921	18696
906.038	18741
906.155	18776
906.272	18620
906.389	18544
906.506	18380
906.623	18410
906.74	18391
906.857	18205
906.974	18311
907.091	18460
907.208	18490
907.324	18456
907.441	18216
907.557	18041
907.674	18144
907.79	18064
907.907	18026
908.023	18144
908.139	18038
908.256	18030
908.372	17946
908.488	17935
908.604	17847
908.72	17733
908.836	17828
908.952	17802
909.068	17805
909.184	17965
909.3	17840
909.415	17882
909.531	17741
909.647	17455
909.762	17573
909.878	17478
909.993	17520
910.108	17414
910.224	17417
910.339	17353
910.454	17448
910.57	17326
910.685	17162
910.8	17543
910.915	17490
911.03	17174
911.145	17079
911.259	16999
911.374	17060
911.489	17048
911.604	16831
911.718	16797
911.833	16866
911.947	16809
912.062	16618
912.176	16698
912.291	16778
912.405	16934
912.519	17003
912.633	17033
912.748	16858
912.862	16748
912.976	16664
913.09	16500
913.204	16615
913.318	16622
913.431	16710
913.545	16824
913.659	16656
913.772	16485
913.886	16375
914	16424
914.113	16535
914.226	16481
914.34	16508
914.453	16223
914.566	16443
914.68	16207
914.793	16230
914.906	16006
915.019	16017
915.132	15884
915.245	15922
915.358	16036
915.47	16074
915.583	15937
915.696	16044
915.809	16097
915.921	16067
916.034	15903
916.146	15861
916.259	15812
916.371	15907
916.483	15892
916.595	15739
916.708	15857
916.82	15797
916.932	15751
917.044	15690
917.156	15724
917.268	15534
917.38	15603
917.491	15549
917.603	15660
917.715	15682
917.826	15694
917.938	15492
918.049	15412
918.161	15652
918.272	15667
918.384	15732
918.495	15450
918.606	15268
918.717	15344
918.828	15408
918.939	15386
919.05	15230
919.161	15355
919.272	15081
919.383	15169
919.494	15317
919.604	15526
919.715	15359
919.826	15237
919.936	15203
920.047	15424
920.157	15233
920.267	15450
920.378	15245
920.488	15325
920.598	15359
920.708	15584
920.818	15443
920.928	15466
921.038	15576
921.148	15545
921.258	15116
921.368	15173
921.477	15024
921.587	14918
921.697	14895
921.806	15119
921.916	14956
922.025	14708
922.134	14708
922.244	14590
922.353	14610
922.462	14571
922.571	14473
922.68	14248
922.789	14298
922.898	14355
923.007	14301
923.116	14271
923.224	14233
923.333	14237
923.442	14043
923.55	14115
923.659	14069
923.767	14187
923.876	14100
923.984	14016
924.092	14012
924.201	13993
924.309	13967
924.417	13963
924.525	13856
924.633	13894
924.741	14800
924.849	13795
924.956	13826
925.064	13727
925.172	13601
925.279	13700
925.387	13704
925.494	13639
925.602	13788
925.709	13670
925.816	13594
925.924	13548
926.031	13719
926.138	13620
926.245	13655
926.352	13464
926.459	13643
926.566	13677
926.673	13373
926.779	13441
926.886	13312
926.993	13236
927.099	13141
927.206	13168
927.312	13152
927.419	13168
927.525	13187
927.631	13183
927.737	13080
927.843	13012
927.95	12962
928.056	13000
928.162	13065
928.267	13027
928.373	13639
928.479	13080
928.585	12875
928.69	12901
928.796	13107
928.901	12882
929.007	12669
929.112	12840
929.218	12806
929.323	12806
929.428	12700
929.533	12810
929.638	12620
929.743	12650
929.848	12677
929.953	12601
930.058	12574
930.163	12365
930.267	12357
930.372	12414
930.477	12418
930.581	12517
930.685	12486
930.79	12258
930.894	12361
930.998	12201
931.103	12334
931.207	11950
931.311	11954
931.415	11824
931.519	11596
931.623	11600
