Data from test_V78500241_955.txt Node
Date: Fri Mar 25 15:48:25 CST 2022
User: usil
Spectrometer: V785-0024
Trigger mode: 0
Integration Time (sec): 4.000000E-1
Scans to average: 1
Nonlinearity correction enabled: false
Boxcar width: 0
Storing dark spectrum: false
XAxis mode: Wavelengths
Number of Pixels in Spectrum: 1024
>>>>>Begin Spectral Data<<<<<
801.071	28637
801.214	28596
801.356	28078
801.499	28116
801.641	27972
801.783	28010
801.926	28177
802.068	27998
802.211	27907
802.353	27884
802.496	27671
802.638	27622
802.78	27583
802.923	27564
803.065	27679
803.208	27526
803.35	27713
803.492	27842
803.635	27819
803.777	27850
803.919	28048
804.061	28200
804.204	27911
804.346	27819
804.488	27816
804.63	27968
804.773	27819
804.915	27972
805.057	28017
805.199	27774
805.341	28025
805.483	28105
805.626	27949
805.768	27861
805.91	28101
806.052	28055
806.194	28093
806.336	28238
806.478	28120
806.62	27983
806.762	28196
806.904	28401
807.046	28580
807.188	28542
807.33	28577
807.472	28561
807.614	28462
807.756	28626
807.898	28459
808.04	28303
808.182	28405
808.324	28428
808.465	28413
808.607	28675
808.749	28664
808.891	28755
809.033	28949
809.174	28816
809.316	28771
809.458	28759
809.6	28721
809.741	28946
809.883	28980
810.025	29075
810.166	28972
810.308	29022
810.45	29083
810.591	29025
810.733	28850
810.875	28828
811.016	28729
811.158	28675
811.299	28949
811.441	28930
811.582	29121
811.724	28873
811.865	28744
812.007	28869
812.148	28850
812.29	28980
812.431	29086
812.573	29170
812.714	29064
812.855	29273
812.997	29375
813.138	29589
813.279	29372
813.421	29318
813.562	29364
813.703	29197
813.845	28938
813.986	28729
814.127	28710
814.268	28413
814.41	28622
814.551	28527
814.692	28550
814.833	28478
814.974	28462
815.115	28523
815.256	28280
815.397	28478
815.539	28443
815.68	28234
815.821	28257
815.962	28428
816.103	28306
816.244	28253
816.385	28185
816.526	28086
816.666	27804
816.807	27747
816.948	27930
817.089	27873
817.23	27827
817.371	27728
817.512	27778
817.653	27827
817.793	27785
817.934	27850
818.075	27880
818.216	27816
818.356	27823
818.497	27701
818.638	27557
818.778	27728
818.919	27603
819.06	27564
819.2	27812
819.341	27854
819.481	27911
819.622	27880
819.762	28249
819.903	28158
820.043	28040
820.184	28029
820.324	27880
820.465	28006
820.605	27983
820.746	27934
820.886	27732
821.026	27850
821.167	28017
821.307	27994
821.447	27914
821.588	27899
821.728	27671
821.868	27462
822.008	27317
822.149	27359
822.289	27195
822.429	26967
822.569	27058
822.709	26963
822.849	26918
822.99	26830
823.13	26956
823.27	26689
823.41	26720
823.55	26450
823.69	26724
823.83	26667
823.97	26636
824.11	26533
824.25	26503
824.389	26476
824.529	26579
824.669	26533
824.809	26606
824.949	26651
825.089	26655
825.228	26423
825.368	26278
825.508	26229
825.648	26358
825.787	26374
825.927	26396
826.067	26412
826.206	26488
826.346	26423
826.485	26339
826.625	26237
826.765	26332
826.904	26343
827.044	26161
827.183	26043
827.323	25955
827.462	26259
827.601	26065
827.741	26012
827.88	26088
828.02	25925
828.159	25963
828.298	25986
828.437	26225
828.577	25951
828.716	26168
828.855	26008
828.994	25814
829.134	25845
829.273	25772
829.412	25742
829.551	25753
829.69	25715
829.829	25715
829.968	25784
830.107	25715
830.246	25841
830.385	25685
830.524	25689
830.663	25556
830.802	25476
830.941	25384
831.08	25297
831.219	25419
831.357	25453
831.496	25563
831.635	25293
831.774	25198
831.913	25217
832.051	25187
832.19	25118
832.329	25202
832.467	25072
832.606	25012
832.744	24962
832.883	25034
833.022	25080
833.16	25072
833.299	25053
833.437	25133
833.576	25152
833.714	25133
833.852	25171
833.991	25209
834.129	25160
834.267	25209
834.406	25133
834.544	25251
834.682	25107
834.821	25069
834.959	25179
835.097	25046
835.235	25133
835.373	25110
835.511	25107
835.65	25065
835.788	24913
835.926	24692
836.064	24734
836.202	24795
836.34	24920
836.478	25053
836.615	24989
836.753	24878
836.891	24939
837.029	24954
837.167	24734
837.305	24871
837.443	24802
837.58	24757
837.718	24745
837.856	24810
837.993	24749
838.131	24711
838.269	24494
838.406	24642
838.544	24566
838.681	24399
838.819	24471
838.956	24308
839.094	24262
839.231	24315
839.369	24399
839.506	24715
839.643	24525
839.781	24228
839.918	24258
840.055	24182
840.193	24270
840.33	24152
840.467	24136
840.604	24270
840.742	24338
840.879	24072
841.016	23897
841.153	24003
841.29	24228
841.427	24110
841.564	24209
841.701	24079
841.838	24083
841.975	23939
842.112	23965
842.249	23885
842.385	23695
842.522	24087
842.659	23992
842.796	23771
842.933	23893
843.069	23764
843.206	23695
843.343	23897
843.479	23843
843.616	23836
843.752	23703
843.889	23661
844.025	23843
844.162	23649
844.298	23676
844.435	23585
844.571	23535
844.708	23638
844.844	23836
844.98	23764
845.117	23657
845.253	23596
845.389	23539
845.525	23581
845.661	23471
845.798	23368
845.934	23505
846.07	23356
846.206	23387
846.342	23425
846.478	23235
846.614	23117
846.75	23162
846.886	23003
847.022	23086
847.158	23151
847.294	23037
847.429	23098
847.565	23117
847.701	23330
847.837	22946
847.972	22721
848.108	22904
848.244	22843
848.379	22759
848.515	22755
848.65	22687
848.786	22740
848.921	22763
849.057	22801
849.192	22824
849.328	22763
849.463	22679
849.598	22759
849.734	22577
849.869	22634
850.004	22508
850.14	22462
850.275	22443
850.41	22314
850.545	22451
850.68	22333
850.815	22451
850.95	22257
851.085	22489
851.22	22493
851.355	22523
851.49	22386
851.625	22360
851.76	22455
851.895	22371
852.03	22352
852.165	22535
852.299	22497
852.434	22535
852.569	22470
852.703	22413
852.838	22371
852.973	22508
853.107	22580
853.242	22314
853.376	22234
853.511	22162
853.645	22181
853.78	22261
853.914	22318
854.048	22257
854.183	22291
854.317	22249
854.451	22436
854.585	22135
854.72	22284
854.854	22303
854.988	22200
855.122	22223
855.256	22204
855.39	22192
855.524	22394
855.658	22310
855.792	22185
855.926	22242
856.06	22363
856.194	22329
856.327	22139
856.461	22169
856.595	22097
856.729	22188
856.862	22451
856.996	22352
857.13	22341
857.263	22409
857.397	22398
857.53	22158
857.664	22325
857.797	22280
857.931	22333
858.064	22276
858.197	22379
858.331	22360
858.464	22211
858.597	22082
858.731	22112
858.864	22386
858.997	22200
859.13	22344
859.263	22284
859.396	22329
859.529	22169
859.662	22242
859.795	22166
859.928	22211
860.061	22363
860.194	22428
860.327	22314
860.46	22242
860.592	22386
860.725	22352
860.858	22322
860.99	22173
861.123	22238
861.256	22185
861.388	22215
861.521	22900
861.653	22139
861.786	22006
861.918	22036
862.05	22234
862.183	22204
862.315	22131
862.447	22246
862.58	22261
862.712	22101
862.844	21869
862.976	22021
863.108	22029
863.24	22405
863.372	21827
863.504	21991
863.636	21926
863.768	21964
863.9	22086
864.032	21762
864.164	21854
864.296	21964
864.428	22067
864.559	21968
864.691	22044
864.823	21903
864.954	22086
865.086	21892
865.217	21895
865.349	21819
865.48	21892
865.612	21816
865.743	21937
865.875	21915
866.006	21846
866.137	21880
866.269	21755
866.4	21751
866.531	21869
866.662	21770
866.793	21827
866.924	21728
867.055	21804
867.186	21785
867.317	21755
867.448	21774
867.579	21812
867.71	21587
867.841	21705
867.972	21884
868.103	21781
868.233	21789
868.364	21846
868.495	21869
868.625	22067
868.756	22017
868.886	21793
869.017	21922
869.147	22116
869.278	22124
869.408	22086
869.539	21915
869.669	22139
869.799	22059
869.929	22139
870.06	22139
870.19	22386
870.32	22185
870.45	22432
870.58	22333
870.71	22542
870.84	22565
870.97	22371
871.1	22284
871.23	22504
871.36	22550
871.489	22512
871.619	22637
871.749	22599
871.879	22691
872.008	22812
872.138	22634
872.267	22637
872.397	22382
872.526	22421
872.656	22409
872.785	22348
872.915	22580
873.044	22653
873.173	22675
873.303	22618
873.432	22710
873.561	22592
873.69	22729
873.819	22550
873.948	22675
874.077	22641
874.206	22527
874.335	22653
874.464	22618
874.593	22976
874.722	22919
874.851	22839
874.979	22923
875.108	22900
875.237	22820
875.365	22668
875.494	22889
875.623	22759
875.751	22767
875.88	22858
876.008	22847
876.136	22987
876.265	23208
876.393	23395
876.521	23269
876.65	23379
876.778	23208
876.906	23288
877.034	23128
877.162	23170
877.29	23162
877.418	23185
877.546	23193
877.674	23151
877.802	23250
877.93	23083
878.058	23124
878.185	23022
878.313	23075
878.441	23246
878.568	22972
878.696	23132
878.824	23174
878.951	23242
879.079	23322
879.206	23547
879.333	23364
879.461	23239
879.588	23307
879.715	23326
879.842	23512
879.97	23223
880.097	23014
880.224	22961
880.351	23075
880.478	23136
880.605	22915
880.732	23010
880.859	23284
880.986	23109
881.112	22889
881.239	22710
881.366	22721
881.493	22550
881.619	22702
881.746	22550
881.872	22531
881.999	22432
882.125	22508
882.252	22523
882.378	22451
882.505	22557
882.631	22424
882.757	22333
882.883	22295
883.01	22341
883.136	22131
883.262	22105
883.388	22032
883.514	22207
883.64	22322
883.766	22143
883.892	22025
884.018	22059
884.143	22246
884.269	22211
884.395	21956
884.52	21785
884.646	21850
884.772	21865
884.897	21781
885.023	21850
885.148	21937
885.274	22013
885.399	22025
885.524	21907
885.65	21812
885.775	21850
885.9	21831
886.025	21953
886.15	22010
886.275	21869
886.4	21816
886.525	21838
886.65	21941
886.775	21816
886.9	21987
887.025	22013
887.149	21911
887.274	21781
887.399	21675
887.523	21671
887.648	21622
887.773	21507
887.897	21682
888.021	21667
888.146	21599
888.27	21770
888.395	21682
888.519	21667
888.643	21618
888.767	21595
888.891	21545
889.015	21386
889.139	21549
889.263	21340
889.387	21507
889.511	21732
889.635	21622
889.759	21523
889.883	21405
890.006	21450
890.13	21477
890.254	21363
890.377	21298
890.501	21150
890.624	21214
890.748	21332
890.871	21074
890.995	21119
891.118	20975
891.241	21024
891.364	21058
891.488	21047
891.611	21062
891.734	21096
891.857	21013
891.98	20986
892.103	21093
892.226	21013
892.349	20960
892.471	20849
892.594	20773
892.717	20937
892.839	20902
892.962	20891
893.085	20963
893.207	20925
893.33	20796
893.452	20834
893.575	20842
893.697	20914
893.819	21066
893.941	20994
894.064	20998
894.186	20830
894.308	20712
894.43	20952
894.552	20941
894.674	20880
894.796	20823
894.918	20769
895.04	20777
895.161	20887
895.283	20845
895.405	20842
895.526	20830
895.648	20655
895.769	20891
895.891	20941
896.012	20971
896.134	20868
896.255	20899
896.376	20864
896.498	20785
896.619	20834
896.74	20849
896.861	20998
896.982	21108
897.103	21374
897.224	21100
897.345	21017
897.466	20948
897.587	21157
897.708	21233
897.828	21169
897.949	20944
898.07	20845
898.19	21020
898.311	21119
898.431	20963
898.552	20952
898.672	21188
898.792	20982
898.913	20994
899.033	20960
899.153	20861
899.273	20727
899.393	20857
899.513	20823
899.633	20796
899.753	20864
899.873	20655
899.993	20788
900.113	20807
900.232	20765
900.352	20830
900.472	20629
900.591	20507
900.711	20518
900.83	20518
900.95	20602
901.069	20598
901.189	20499
901.308	20180
901.427	20195
901.546	20088
901.665	20176
901.784	20088
901.904	19936
902.023	19913
902.141	19670
902.26	19578
902.379	19655
902.498	19601
902.617	19605
902.735	19719
902.854	19571
902.973	19502
903.091	19346
903.21	19354
903.328	19285
903.446	19236
903.565	19091
903.683	19129
903.801	18996
903.919	19110
904.038	18924
904.156	18859
904.274	18886
904.392	18928
904.51	18897
904.627	18848
904.745	18928
904.863	18943
904.981	18646
905.098	18502
905.216	18540
905.334	18582
905.451	18608
905.569	18536
905.686	18620
905.803	18601
905.921	18281
906.038	18403
906.155	18334
906.272	18205
906.389	18296
906.506	18068
906.623	18136
906.74	18140
906.857	17980
906.974	17969
907.091	18247
907.208	18174
907.324	18072
907.441	18019
907.557	17821
907.674	17684
907.79	17687
907.907	17916
908.023	17798
908.139	17703
908.256	17684
908.372	17809
908.488	17630
908.604	17532
908.72	17482
908.836	17501
908.952	17490
909.068	17539
909.184	17604
909.3	17417
909.415	17657
909.531	17512
909.647	17299
909.762	17075
909.878	17102
909.993	17166
910.108	17121
910.224	17071
910.339	17121
910.454	17048
910.57	16889
910.685	16896
910.8	17170
910.915	17098
911.03	16946
911.145	16858
911.259	16744
911.374	16793
911.489	16713
911.604	16725
911.718	16561
911.833	16497
911.947	16440
912.062	16284
912.176	16481
912.291	16569
912.405	16489
912.519	16664
912.633	16675
912.748	16622
912.862	16489
912.976	16284
913.09	16215
913.204	16272
913.318	16284
913.431	16424
913.545	16276
913.659	16447
913.772	16246
913.886	16188
914	16002
914.113	16188
914.226	16154
914.34	16143
914.453	16006
914.566	16029
914.68	15975
914.793	15979
914.906	15694
915.019	15679
915.132	15675
915.245	15641
915.358	15736
915.47	15759
915.583	15682
915.696	15728
915.809	15762
915.921	15778
916.034	15679
916.146	15595
916.259	15595
916.371	15675
916.483	15652
916.595	15469
916.708	15523
916.82	15542
916.932	15511
917.044	15386
917.156	15462
917.268	15355
917.38	15279
917.491	15363
917.603	15382
917.715	15306
917.826	15370
917.938	15218
918.049	15142
918.161	15306
918.272	15401
918.384	15401
918.495	15237
918.606	15150
918.717	15017
918.828	15081
918.939	15028
919.05	15032
919.161	14971
919.272	14872
919.383	14941
919.494	14982
919.604	15332
919.715	15036
919.826	14941
919.936	14914
920.047	15024
920.157	15066
920.267	15165
920.378	15062
920.488	15039
920.598	15211
920.708	15218
920.818	15165
920.928	15241
921.038	15272
921.148	15222
921.258	15001
921.368	14929
921.477	14811
921.587	14765
921.697	14587
921.806	14716
921.916	14484
922.025	14438
922.134	14370
922.244	14294
922.353	14298
922.462	14332
922.571	14195
922.68	14199
922.789	14054
922.898	13951
923.007	13944
923.116	14035
923.224	14008
923.333	13982
923.442	13997
923.55	13795
923.659	13932
923.767	13902
923.876	13830
923.984	13963
924.092	13693
924.201	13833
924.309	13681
924.417	13830
924.525	13658
924.633	13601
924.741	14533
924.849	13487
924.956	13567
925.064	13422
925.172	13270
925.279	13381
925.387	13499
925.494	13453
925.602	13552
925.709	13521
925.816	13320
925.924	13400
926.031	13396
926.138	13373
926.245	13415
926.352	13266
926.459	13377
926.566	13430
926.673	13209
926.779	13187
926.886	13149
926.993	13046
927.099	13000
927.206	12966
927.312	12867
927.419	13012
927.525	12951
927.631	13008
927.737	12795
927.843	12817
927.95	12662
928.056	12833
928.162	12745
928.267	12798
928.373	13316
928.479	12791
928.585	12669
928.69	12730
928.796	12760
928.901	12631
929.007	12513
929.112	12646
929.218	12639
929.323	12486
929.428	12574
929.533	12589
929.638	12353
929.743	12369
929.848	12498
929.953	12445
930.058	12304
930.163	12121
930.267	12076
930.372	12376
930.477	12171
930.581	12388
930.685	12251
930.79	12144
930.894	12064
930.998	12026
931.103	12178
931.207	11775
931.311	11752
931.415	11589
931.519	11448
931.623	11406
