Data from test_V78500241_361.txt Node
Date: Fri Mar 25 15:44:18 CST 2022
User: usil
Spectrometer: V785-0024
Trigger mode: 0
Integration Time (sec): 4.000000E-1
Scans to average: 1
Nonlinearity correction enabled: false
Boxcar width: 0
Storing dark spectrum: false
XAxis mode: Wavelengths
Number of Pixels in Spectrum: 1024
>>>>>Begin Spectral Data<<<<<
801.071	29813
801.214	29634
801.356	29577
801.499	29425
801.641	29425
801.783	29379
801.926	29474
802.068	29425
802.211	29311
802.353	29288
802.496	29288
802.638	29235
802.78	29075
802.923	29109
803.065	28915
803.208	29052
803.35	29022
803.492	29155
803.635	29330
803.777	29113
803.919	29326
804.061	29547
804.204	29303
804.346	29178
804.488	29102
804.63	29265
804.773	29242
804.915	29375
805.057	29372
805.199	29197
805.341	29379
805.483	29322
805.626	29554
805.768	29436
805.91	29254
806.052	29364
806.194	29296
806.336	29551
806.478	29562
806.62	29623
806.762	29509
806.904	29668
807.046	29992
807.188	29836
807.33	29752
807.472	29927
807.614	29832
807.756	29794
807.898	29646
808.04	29672
808.182	29748
808.324	29649
808.465	29710
808.607	29927
808.749	29980
808.891	30266
809.033	30205
809.174	30155
809.316	30110
809.458	30152
809.6	30121
809.741	30289
809.883	30235
810.025	30471
810.166	30494
810.308	30399
810.45	30289
810.591	30391
810.733	30083
810.875	29946
811.016	30106
811.158	29954
811.299	30247
811.441	30334
811.582	30254
811.724	30095
811.865	29950
812.007	30038
812.148	30068
812.29	30171
812.431	30190
812.573	30494
812.714	30658
812.855	30551
812.997	30688
813.138	30958
813.279	30840
813.421	30620
813.562	30536
813.703	30357
813.845	30254
813.986	30007
814.127	29813
814.268	29824
814.41	29775
814.551	29840
814.692	29824
814.833	29619
814.974	29790
815.115	29767
815.256	29691
815.397	29680
815.539	29657
815.68	29623
815.821	29474
815.962	29531
816.103	29672
816.244	29433
816.385	29330
816.526	29303
816.666	29151
816.807	29090
816.948	29193
817.089	29052
817.23	29200
817.371	28999
817.512	29025
817.653	29178
817.793	28999
817.934	28980
818.075	28987
818.216	29067
818.356	28854
818.497	28717
818.638	28630
818.778	28736
818.919	28839
819.06	28911
819.2	28904
819.341	28904
819.481	28949
819.622	29064
819.762	29170
819.903	29246
820.043	29143
820.184	29212
820.324	28976
820.465	29212
820.605	29174
820.746	29254
820.886	28949
821.026	29155
821.167	28946
821.307	29033
821.447	29037
821.588	28782
821.728	28767
821.868	28538
822.008	28390
822.149	28360
822.289	28352
822.429	28261
822.569	28135
822.709	27998
822.849	27998
822.99	28021
823.13	28059
823.27	27873
823.41	27682
823.55	27656
823.69	27762
823.83	27660
823.97	27599
824.11	27473
824.25	27496
824.389	27378
824.529	27618
824.669	27622
824.809	27671
824.949	27637
825.089	27603
825.228	27545
825.368	27348
825.508	27401
825.648	27492
825.787	27374
825.927	27431
826.067	27458
826.206	27298
826.346	27382
826.485	27256
826.625	27374
826.765	27469
826.904	27447
827.044	27199
827.183	27047
827.323	27028
827.462	27176
827.601	26960
827.741	27100
827.88	27066
828.02	26914
828.159	27176
828.298	27085
828.437	26960
828.577	26944
828.716	27176
828.855	26979
828.994	26674
829.134	26750
829.273	26910
829.412	26617
829.551	26781
829.69	26697
829.829	26712
829.968	26834
830.107	26735
830.246	26663
830.385	26579
830.524	26674
830.663	26590
830.802	26282
830.941	26199
831.08	26233
831.219	26381
831.357	26301
831.496	26446
831.635	26309
831.774	26161
831.913	26275
832.051	26008
832.19	26031
832.329	26024
832.467	25917
832.606	25902
832.744	25940
832.883	25997
833.022	25894
833.16	25947
833.299	26130
833.437	25887
833.576	26016
833.714	26145
833.852	25906
833.991	26046
834.129	26221
834.267	25928
834.406	25940
834.544	25974
834.682	25875
834.821	25928
834.959	26142
835.097	25761
835.235	25868
835.373	25951
835.511	25807
835.65	25841
835.788	25788
835.926	25635
836.064	25731
836.202	25529
836.34	25765
836.478	25784
836.615	25849
836.753	25723
836.891	25734
837.029	25746
837.167	25635
837.305	25674
837.443	25624
837.58	25597
837.718	25639
837.856	25727
837.993	25666
838.131	25590
838.269	25582
838.406	25491
838.544	25373
838.681	25270
838.819	25179
838.956	25057
839.094	25133
839.231	25084
839.369	25202
839.506	25358
839.643	25270
839.781	25145
839.918	24856
840.055	24996
840.193	24954
840.33	24867
840.467	25008
840.604	24981
840.742	25061
840.879	24730
841.016	24863
841.153	24806
841.29	24977
841.427	24878
841.564	24932
841.701	24848
841.838	24776
841.975	24722
842.112	24772
842.249	24669
842.385	24559
842.522	24825
842.659	24604
842.796	24566
842.933	24749
843.069	24604
843.206	24433
843.343	24665
843.479	24570
843.616	24464
843.752	24270
843.889	24338
844.025	24479
844.162	24232
844.298	24418
844.435	24338
844.571	24277
844.708	24437
844.844	24513
844.98	24464
845.117	24429
845.253	24201
845.389	24270
845.525	24174
845.661	24197
845.798	24163
845.934	24087
846.07	24091
846.206	24114
846.342	24213
846.478	24068
846.614	23935
846.75	23722
846.886	23748
847.022	23828
847.158	23836
847.294	23748
847.429	23847
847.565	23680
847.701	23988
847.837	23509
847.972	23440
848.108	23539
848.244	23630
848.379	23395
848.515	23387
848.65	23330
848.786	23364
848.921	23277
849.057	23459
849.192	23414
849.328	23520
849.463	23296
849.598	23284
849.734	23258
849.869	23124
850.004	23117
850.14	23086
850.275	23052
850.41	23022
850.545	23067
850.68	22900
850.815	23098
850.95	23071
851.085	23250
851.22	23250
851.355	23025
851.49	23052
851.625	23010
851.76	23117
851.895	22919
852.03	22862
852.165	23056
852.299	23003
852.434	23079
852.569	23193
852.703	23067
852.838	23136
852.973	23155
853.107	23159
853.242	23067
853.376	22839
853.511	22854
853.645	22862
853.78	22919
853.914	22987
854.048	22881
854.183	22793
854.317	22885
854.451	22987
854.585	22850
854.72	22900
854.854	22904
854.988	22812
855.122	22774
855.256	22805
855.39	22828
855.524	22957
855.658	22889
855.792	22942
855.926	22991
856.06	22991
856.194	22869
856.327	22763
856.461	22774
856.595	22839
856.729	22911
856.862	22911
856.996	22706
857.13	22877
857.263	22919
857.397	22991
857.53	22698
857.664	22828
857.797	23014
857.931	22980
858.064	22965
858.197	22812
858.331	22869
858.464	22771
858.597	22668
858.731	22797
858.864	22877
858.997	22618
859.13	22790
859.263	22911
859.396	22774
859.529	22805
859.662	22660
859.795	22824
859.928	22805
860.061	22984
860.194	22987
860.327	22957
860.46	22854
860.592	22949
860.725	22938
860.858	22850
860.99	22881
861.123	22656
861.256	22755
861.388	22858
861.521	23421
861.653	22740
861.786	22645
861.918	22721
862.05	22630
862.183	22839
862.315	22911
862.447	22911
862.58	22854
862.712	22630
862.844	22466
862.976	22679
863.108	22584
863.24	22949
863.372	22580
863.504	22413
863.636	22615
863.768	22474
863.9	22470
864.032	22497
864.164	22443
864.296	22580
864.428	22546
864.559	22542
864.691	22508
864.823	22481
864.954	22523
865.086	22474
865.217	22367
865.349	22341
865.48	22360
865.612	22367
865.743	22531
865.875	22504
866.006	22333
866.137	22398
866.269	22386
866.4	22478
866.531	22299
866.662	22398
866.793	22291
866.924	22322
867.055	22310
867.186	22284
867.317	22287
867.448	22249
867.579	22299
867.71	22242
867.841	22226
867.972	22280
868.103	22261
868.233	22322
868.364	22386
868.495	22371
868.625	22417
868.756	22512
868.886	22436
869.017	22592
869.147	22634
869.278	22683
869.408	22592
869.539	22497
869.669	22561
869.799	22565
869.929	22618
870.06	22550
870.19	22816
870.32	22873
870.45	22877
870.58	22904
870.71	23006
870.84	23025
870.97	22968
871.1	22961
871.23	22965
871.36	23003
871.489	23075
871.619	23140
871.749	23162
871.879	23178
872.008	23280
872.138	23124
872.267	23060
872.397	22976
872.526	22968
872.656	22968
872.785	22972
872.915	23189
873.044	23143
873.173	23124
873.303	23288
873.432	23223
873.561	23269
873.69	23273
873.819	23086
873.948	23258
874.077	23193
874.206	23067
874.335	23166
874.464	23181
874.593	23364
874.722	23258
874.851	23326
874.979	23326
875.108	23414
875.237	23307
875.365	23235
875.494	23299
875.623	23455
875.751	23296
875.88	23486
876.008	23524
876.136	23562
876.265	23699
876.393	23851
876.521	23904
876.65	23855
876.778	23665
876.906	23783
877.034	23748
877.162	23634
877.29	23638
877.418	23707
877.546	23543
877.674	23714
877.802	23634
877.93	23714
878.058	23611
878.185	23482
878.313	23566
878.441	23642
878.568	23589
878.696	23657
878.824	23714
878.951	23672
879.079	23843
879.206	24011
879.333	23851
879.461	23760
879.588	23733
879.715	23939
879.842	23916
879.97	23691
880.097	23501
880.224	23501
880.351	23501
880.478	23474
880.605	23474
880.732	23486
880.859	23859
880.986	23448
881.112	23558
881.239	23307
881.366	23273
881.493	23208
881.619	23132
881.746	23006
881.872	23231
881.999	23140
882.125	22984
882.252	23079
882.378	23014
882.505	23086
882.631	22869
882.757	22729
882.883	22755
883.01	22889
883.136	22694
883.262	22649
883.388	22508
883.514	22752
883.64	22809
883.766	22679
883.892	22485
884.018	22603
884.143	22596
884.269	22736
884.395	22413
884.52	22394
884.646	22356
884.772	22265
884.897	22276
885.023	22360
885.148	22424
885.274	22565
885.399	22542
885.524	22367
885.65	22398
885.775	22322
885.9	22188
886.025	22421
886.15	22409
886.275	22394
886.4	22246
886.525	22219
886.65	22310
886.775	22265
886.9	22379
887.025	22497
887.149	22447
887.274	22181
887.399	22051
887.523	22120
887.648	22025
887.773	21861
887.897	22173
888.021	22173
888.146	22185
888.27	22177
888.395	22246
888.519	22093
888.643	22200
888.767	22017
888.891	21941
889.015	21895
889.139	22029
889.263	21876
889.387	22154
889.511	22196
889.635	21926
889.759	21804
889.883	21865
890.006	21915
890.13	21869
890.254	21827
890.377	21762
890.501	21652
890.624	21576
890.748	21713
890.871	21511
890.995	21439
891.118	21294
891.241	21378
891.364	21454
891.488	21416
891.611	21374
891.734	21454
891.857	21431
891.98	21428
892.103	21450
892.226	21488
892.349	21344
892.471	21150
892.594	21237
892.717	21306
892.839	21336
892.962	21310
893.085	21321
893.207	21340
893.33	21222
893.452	21268
893.575	21420
893.697	21245
893.819	21367
893.941	21466
894.064	21496
894.186	21211
894.308	21211
894.43	21313
894.552	21416
894.674	21389
894.796	21321
894.918	21317
895.04	21291
895.161	21329
895.283	21367
895.405	21192
895.526	21378
895.648	21237
895.769	21188
895.891	21241
896.012	21431
896.134	21329
896.255	21298
896.376	21294
896.498	21336
896.619	21439
896.74	21104
896.861	21401
896.982	21530
897.103	21762
897.224	21557
897.345	21447
897.466	21526
897.587	21534
897.708	21599
897.828	21466
897.949	21443
898.07	21355
898.19	21416
898.311	21618
898.431	21488
898.552	21454
898.672	21439
898.792	21515
898.913	21530
899.033	21291
899.153	21245
899.273	21207
899.393	21184
899.513	21169
899.633	21245
899.753	21313
899.873	21047
899.993	21184
900.113	21173
900.232	21108
900.352	21066
900.472	21039
900.591	20960
900.711	21093
900.83	21013
900.95	21058
901.069	21047
901.189	20849
901.308	20773
901.427	20556
901.546	20568
901.665	20602
901.784	20537
901.904	20408
902.023	20313
902.141	20073
902.26	20050
902.379	20084
902.498	20043
902.617	19944
902.735	20111
902.854	20046
902.973	19978
903.091	19575
903.21	19662
903.328	19700
903.446	19597
903.565	19537
903.683	19616
903.801	19381
903.919	19453
904.038	19415
904.156	19285
904.274	19266
904.392	19259
904.51	19198
904.627	19289
904.745	19263
904.863	19202
904.981	19008
905.098	18795
905.216	18878
905.334	18985
905.451	18897
905.569	18806
905.686	18829
905.803	18825
905.921	18642
906.038	18806
906.155	18684
906.272	18631
906.389	18498
906.506	18433
906.623	18414
906.74	18338
906.857	18251
906.974	18254
907.091	18448
907.208	18517
907.324	18319
907.441	18251
907.557	18186
907.674	18114
907.79	18117
907.907	18121
908.023	18106
908.139	18087
908.256	18045
908.372	17847
908.488	17904
908.604	17748
908.72	17798
908.836	17745
908.952	17783
909.068	17794
909.184	17885
909.3	17836
909.415	17786
909.531	17634
909.647	17566
909.762	17452
909.878	17440
909.993	17433
910.108	17417
910.224	17383
910.339	17383
910.454	17307
910.57	17239
910.685	17185
910.8	17395
910.915	17433
911.03	17204
911.145	17155
911.259	17067
911.374	17056
911.489	16942
911.604	16904
911.718	16847
911.833	16919
911.947	16694
912.062	16687
912.176	16805
912.291	16771
912.405	16805
912.519	16972
912.633	16858
912.748	16801
912.862	16584
912.976	16653
913.09	16508
913.204	16596
913.318	16599
913.431	16660
913.545	16611
913.659	16809
913.772	16459
913.886	16413
914	16299
914.113	16409
914.226	16485
914.34	16447
914.453	16226
914.566	16394
914.68	16158
914.793	16249
914.906	16029
915.019	16051
915.132	15861
915.245	15960
915.358	15991
915.47	15975
915.583	16124
915.696	15968
915.809	16109
915.921	16029
916.034	15926
916.146	15857
916.259	15842
916.371	15922
916.483	15831
916.595	15759
916.708	15778
916.82	15728
916.932	15682
917.044	15694
917.156	15679
917.268	15534
917.38	15644
917.491	15515
917.603	15549
917.715	15705
917.826	15686
917.938	15469
918.049	15367
918.161	15515
918.272	15549
918.384	15618
918.495	15477
918.606	15382
918.717	15237
918.828	15382
918.939	15275
919.05	15161
919.161	15275
919.272	15097
919.383	15089
919.494	15336
919.604	15408
919.715	15279
919.826	15070
919.936	15154
920.047	15306
920.157	15317
920.267	15420
920.378	15195
920.488	15165
920.598	15435
920.708	15439
920.818	15336
920.928	15340
921.038	15542
921.148	15462
921.258	15154
921.368	15024
921.477	14925
921.587	14956
921.697	14792
921.806	14982
921.916	14838
922.025	14674
922.134	14549
922.244	14564
922.353	14621
922.462	14518
922.571	14385
922.68	14259
922.789	14134
922.898	14149
923.007	14237
923.116	14278
923.224	14149
923.333	14084
923.442	14081
923.55	14016
923.659	14008
923.767	14084
923.876	13989
923.984	14016
924.092	13845
924.201	13917
924.309	13841
924.417	13951
924.525	13818
924.633	13845
924.741	14537
924.849	13601
924.956	13704
925.064	13537
925.172	13571
925.279	13533
925.387	13651
925.494	13620
925.602	13632
925.709	13700
925.816	13460
925.924	13548
926.031	13559
926.138	13502
926.245	13556
926.352	13441
926.459	13582
926.566	13533
926.673	13411
926.779	13255
926.886	13316
926.993	13213
927.099	13156
927.206	13149
927.312	12958
927.419	13187
927.525	13084
927.631	13099
927.737	12977
927.843	12939
927.95	12905
928.056	12981
928.162	12935
928.267	12863
928.373	13392
928.479	12977
928.585	12707
928.69	12901
928.796	12882
928.901	12787
929.007	12608
929.112	12802
929.218	12787
929.323	12650
929.428	12639
929.533	12783
929.638	12540
929.743	12570
929.848	12639
929.953	12627
930.058	12456
930.163	12346
930.267	12350
930.372	12414
930.477	12201
930.581	12494
930.685	12361
930.79	12270
930.894	12167
930.998	12235
931.103	12178
931.207	11851
931.311	11775
931.415	11748
931.519	11516
931.623	11539
