Data from test_V78500241_423.txt Node
Date: Fri Mar 25 15:44:43 CST 2022
User: usil
Spectrometer: V785-0024
Trigger mode: 0
Integration Time (sec): 4.000000E-1
Scans to average: 1
Nonlinearity correction enabled: false
Boxcar width: 0
Storing dark spectrum: false
XAxis mode: Wavelengths
Number of Pixels in Spectrum: 1024
>>>>>Begin Spectral Data<<<<<
801.071	29060
801.214	29098
801.356	28835
801.499	28869
801.641	28527
801.783	28725
801.926	28763
802.068	28596
802.211	28500
802.353	28424
802.496	28443
802.638	28322
802.78	28443
802.923	28375
803.065	28310
803.208	28428
803.35	28337
803.492	28367
803.635	28470
803.777	28379
803.919	28474
804.061	28656
804.204	28683
804.346	28356
804.488	28356
804.63	28451
804.773	28409
804.915	28493
805.057	28706
805.199	28535
805.341	28542
805.483	28691
805.626	28660
805.768	28401
805.91	28592
806.052	28634
806.194	28527
806.336	28888
806.478	28687
806.62	28527
806.762	28702
806.904	28946
807.046	29094
807.188	29239
807.33	29117
807.472	29147
807.614	28968
807.756	28938
807.898	28820
808.04	28896
808.182	28847
808.324	28835
808.465	29014
808.607	29052
808.749	29299
808.891	29395
809.033	29414
809.174	29307
809.316	29425
809.458	29330
809.6	29265
809.741	29433
809.883	29471
810.025	29551
810.166	29547
810.308	29653
810.45	29535
810.591	29467
810.733	29368
810.875	29204
811.016	29170
811.158	29102
811.299	29318
811.441	29497
811.582	29349
811.724	29288
811.865	29322
812.007	29067
812.148	29246
812.29	29345
812.431	29478
812.573	29642
812.714	29786
812.855	29885
812.997	29809
813.138	30129
813.279	29859
813.421	29931
813.562	29745
813.703	29581
813.845	29570
813.986	29239
814.127	28976
814.268	28949
814.41	28927
814.551	28984
814.692	29041
814.833	28904
814.974	28858
815.115	28999
815.256	28831
815.397	28885
815.539	28980
815.68	28736
815.821	28577
815.962	28733
816.103	28653
816.244	28592
816.385	28462
816.526	28481
816.666	28337
816.807	28162
816.948	28223
817.089	28295
817.23	28230
817.371	28169
817.512	28268
817.653	28090
817.793	28051
817.934	28101
818.075	28337
818.216	28147
818.356	28211
818.497	28074
818.638	28002
818.778	28025
818.919	28032
819.06	27903
819.2	28017
819.341	28150
819.481	28226
819.622	28276
819.762	28550
819.903	28401
820.043	28356
820.184	28200
820.324	28367
820.465	28413
820.605	28306
820.746	28257
820.886	28158
821.026	28204
821.167	28242
821.307	28272
821.447	28169
821.588	28070
821.728	27972
821.868	27895
822.008	27709
822.149	27614
822.289	27561
822.429	27325
822.569	27344
822.709	27336
822.849	27226
822.99	27173
823.13	27146
823.27	27058
823.41	26925
823.55	26781
823.69	26914
823.83	26937
823.97	26998
824.11	26781
824.25	26777
824.389	26746
824.529	26857
824.669	26845
824.809	26796
824.949	26952
825.089	26929
825.228	26796
825.368	26655
825.508	26579
825.648	26568
825.787	26625
825.927	26731
826.067	26705
826.206	26453
826.346	26621
826.485	26598
826.625	26389
826.765	26663
826.904	26575
827.044	26278
827.183	26267
827.323	26328
827.462	26419
827.601	26199
827.741	26267
827.88	26301
828.02	26092
828.159	26176
828.298	26332
828.437	26183
828.577	26248
828.716	26412
828.855	26054
828.994	25974
829.134	25849
829.273	26054
829.412	25913
829.551	25837
829.69	25917
829.829	25940
829.968	26039
830.107	26092
830.246	25921
830.385	25959
830.524	25906
830.663	25818
830.802	25655
830.941	25529
831.08	25487
831.219	25601
831.357	25586
831.496	25712
831.635	25613
831.774	25369
831.913	25426
832.051	25225
832.19	25259
832.329	25301
832.467	25103
832.606	25198
832.744	25148
832.883	25228
833.022	25175
833.16	25232
833.299	25209
833.437	25015
833.576	25251
833.714	25247
833.852	25282
833.991	25312
834.129	25346
834.267	25335
834.406	25110
834.544	25324
834.682	25194
834.821	25080
834.959	25377
835.097	25164
835.235	25232
835.373	25213
835.511	25179
835.65	24981
835.788	25050
835.926	24844
836.064	24760
836.202	24696
836.34	25038
836.478	24901
836.615	24985
836.753	24985
836.891	25145
837.029	24939
837.167	24882
837.305	24791
837.443	24871
837.58	24719
837.718	24867
837.856	24886
837.993	24802
838.131	24947
838.269	24570
838.406	24875
838.544	24608
838.681	24433
838.819	24445
838.956	24095
839.094	24273
839.231	24372
839.369	24490
839.506	24654
839.643	24525
839.781	24410
839.918	24357
840.055	24220
840.193	24308
840.33	24155
840.467	24273
840.604	24232
840.742	24429
840.879	24015
841.016	24038
841.153	24083
841.29	24159
841.427	24125
841.564	24102
841.701	24163
841.838	24140
841.975	24057
842.112	24144
842.249	23942
842.385	23901
842.522	24140
842.659	24015
842.796	23824
842.933	23817
843.069	23908
843.206	23832
843.343	23999
843.479	23939
843.616	23916
843.752	23505
843.889	23585
844.025	23760
844.162	23596
844.298	23627
844.435	23623
844.571	23596
844.708	23589
844.844	23798
844.98	23779
845.117	23783
845.253	23539
845.389	23547
845.525	23444
845.661	23512
845.798	23242
845.934	23387
846.07	23311
846.206	23429
846.342	23471
846.478	23353
846.614	23212
846.75	23041
846.886	23067
847.022	23212
847.158	23124
847.294	23102
847.429	23079
847.565	23079
847.701	23231
847.837	22904
847.972	22679
848.108	22831
848.244	22835
848.379	22786
848.515	22653
848.65	22694
848.786	22649
848.921	22744
849.057	22790
849.192	22759
849.328	22687
849.463	22698
849.598	22687
849.734	22527
849.869	22481
850.004	22500
850.14	22462
850.275	22500
850.41	22291
850.545	22299
850.68	22318
850.815	22341
850.95	22405
851.085	22478
851.22	22485
851.355	22371
851.49	22348
851.625	22417
851.76	22322
851.895	22325
852.03	22337
852.165	22470
852.299	22447
852.434	22424
852.569	22417
852.703	22443
852.838	22424
852.973	22348
853.107	22459
853.242	22295
853.376	22261
853.511	22032
853.645	22139
853.78	22310
853.914	22238
854.048	22147
854.183	22223
854.317	22207
854.451	22352
854.585	22207
854.72	22177
854.854	22272
854.988	22051
855.122	22112
855.256	22044
855.39	22207
855.524	22265
855.658	22295
855.792	22215
855.926	22143
856.06	22109
856.194	22318
856.327	22219
856.461	22154
856.595	22139
856.729	22131
856.862	22303
856.996	22341
857.13	22287
857.263	22325
857.397	22333
857.53	22356
857.664	22242
857.797	22295
857.931	22363
858.064	22242
858.197	22211
858.331	22200
858.464	22139
858.597	21991
858.731	22177
858.864	22192
858.997	22135
859.13	22295
859.263	22162
859.396	22223
859.529	22139
859.662	22048
859.795	22219
859.928	22204
860.061	22306
860.194	22398
860.327	22200
860.46	22166
860.592	22257
860.725	22325
860.858	22284
860.99	22291
861.123	22177
861.256	22059
861.388	22306
861.521	22763
861.653	22040
861.786	21915
861.918	21998
862.05	22063
862.183	22017
862.315	22169
862.447	22112
862.58	22120
862.712	22044
862.844	21907
862.976	21937
863.108	21819
863.24	22280
863.372	21911
863.504	21915
863.636	21956
863.768	21960
863.9	21831
864.032	21797
864.164	21736
864.296	21888
864.428	21918
864.559	21915
864.691	21911
864.823	21838
864.954	21846
865.086	21873
865.217	21800
865.349	21743
865.48	21728
865.612	21732
865.743	21903
865.875	21842
866.006	21739
866.137	21625
866.269	21690
866.4	21713
866.531	21732
866.662	21534
866.793	21694
866.924	21728
867.055	21690
867.186	21618
867.317	21679
867.448	21622
867.579	21652
867.71	21504
867.841	21492
867.972	21713
868.103	21576
868.233	21751
868.364	21747
868.495	21690
868.625	21892
868.756	22078
868.886	21873
869.017	21850
869.147	22002
869.278	22010
869.408	21876
869.539	21892
869.669	22013
869.799	21918
869.929	22010
870.06	22131
870.19	22306
870.32	22177
870.45	22265
870.58	22375
870.71	22360
870.84	22341
870.97	22265
871.1	22192
871.23	22375
871.36	22459
871.489	22272
871.619	22554
871.749	22508
871.879	22508
872.008	22599
872.138	22489
872.267	22584
872.397	22360
872.526	22329
872.656	22352
872.785	22348
872.915	22580
873.044	22538
873.173	22580
873.303	22599
873.432	22462
873.561	22512
873.69	22580
873.819	22565
873.948	22557
874.077	22565
874.206	22299
874.335	22512
874.464	22557
874.593	22645
874.722	22752
874.851	22908
874.979	22805
875.108	22656
875.237	22694
875.365	22603
875.494	22755
875.623	22729
875.751	22622
875.88	22774
876.008	22809
876.136	22938
876.265	23083
876.393	23204
876.521	23155
876.65	23231
876.778	23090
876.906	23033
877.034	23151
877.162	23086
877.29	23064
877.418	23025
877.546	23075
877.674	23003
877.802	23003
877.93	23071
878.058	22972
878.185	22881
878.313	23075
878.441	22980
878.568	22946
878.696	23151
878.824	23060
878.951	23048
879.079	23231
879.206	23258
879.333	23242
879.461	23170
879.588	23254
879.715	23204
879.842	23265
879.97	23060
880.097	22900
880.224	22877
880.351	22793
880.478	22869
880.605	22915
880.732	22843
880.859	23090
880.986	22831
881.112	22923
881.239	22736
881.366	22626
881.493	22603
881.619	22592
881.746	22531
881.872	22440
881.999	22569
882.125	22314
882.252	22516
882.378	22356
882.505	22588
882.631	22276
882.757	22086
882.883	22276
883.01	22143
883.136	22131
883.262	22032
883.388	21994
883.514	22082
883.64	22097
883.766	22090
883.892	21823
884.018	21975
884.143	22101
884.269	22192
884.395	21888
884.52	21869
884.646	21827
884.772	21778
884.897	21728
885.023	21770
885.148	21835
885.274	21956
885.399	21915
885.524	21781
885.65	21736
885.775	21926
885.9	21705
886.025	21911
886.15	21907
886.275	21637
886.4	21671
886.525	21648
886.65	21694
886.775	21599
886.9	21819
887.025	21991
887.149	21797
887.274	21523
887.399	21679
887.523	21572
887.648	21424
887.773	21447
887.897	21671
888.021	21431
888.146	21447
888.27	21637
888.395	21660
888.519	21431
888.643	21637
888.767	21561
888.891	21416
889.015	21408
889.139	21485
889.263	21370
889.387	21340
889.511	21523
889.635	21344
889.759	21317
889.883	21272
890.006	21344
890.13	21466
890.254	21291
890.377	21157
890.501	21043
890.624	21017
890.748	21169
890.871	20994
890.995	20914
891.118	20804
891.241	20918
891.364	20887
891.488	20944
891.611	20830
891.734	20868
891.857	20876
891.98	20933
892.103	20975
892.226	20769
892.349	20823
892.471	20686
892.594	20712
892.717	20792
892.839	20834
892.962	20727
893.085	20857
893.207	20792
893.33	20655
893.452	20701
893.575	20853
893.697	20682
893.819	20929
893.941	21036
894.064	20921
894.186	20758
894.308	20697
894.43	20853
894.552	20967
894.674	20845
894.796	20697
894.918	20769
895.04	20777
895.161	20781
895.283	20910
895.405	20724
895.526	20731
895.648	20823
895.769	20891
895.891	20910
896.012	20746
896.134	20773
896.255	20720
896.376	20701
896.498	20758
896.619	20785
896.74	20731
896.861	20910
896.982	21112
897.103	21211
897.224	21104
897.345	20982
897.466	20941
897.587	20952
897.708	21081
897.828	21062
897.949	20914
898.07	20872
898.19	20842
898.311	21089
898.431	20902
898.552	20971
898.672	21074
898.792	21081
898.913	20956
899.033	20819
899.153	20689
899.273	20659
899.393	20659
899.513	20769
899.633	20746
899.753	20743
899.873	20621
899.993	20644
900.113	20609
900.232	20606
900.352	20526
900.472	20587
900.591	20427
900.711	20476
900.83	20389
900.95	20537
901.069	20492
901.189	20396
901.308	20237
901.427	20077
901.546	20115
901.665	20031
901.784	20126
901.904	19921
902.023	19906
902.141	19651
902.26	19582
902.379	19601
902.498	19460
902.617	19487
902.735	19518
902.854	19594
902.973	19445
903.091	19198
903.21	19103
903.328	19225
903.446	19084
903.565	19080
903.683	18966
903.801	18859
903.919	18837
904.038	18996
904.156	18817
904.274	18768
904.392	18768
904.51	18738
904.627	18779
904.745	18772
904.863	18753
904.981	18467
905.098	18372
905.216	18399
905.334	18452
905.451	18414
905.569	18220
905.686	18471
905.803	18483
905.921	18277
906.038	18304
906.155	18266
906.272	18144
906.389	18174
906.506	17935
906.623	17893
906.74	17912
906.857	17813
906.974	17767
907.091	18079
907.208	18148
907.324	17923
907.441	17813
907.557	17657
907.674	17684
907.79	17551
907.907	17592
908.023	17733
908.139	17596
908.256	17642
908.372	17474
908.488	17417
908.604	17383
908.72	17246
908.836	17311
908.952	17227
909.068	17444
909.184	17379
909.3	17337
909.415	17315
909.531	17391
909.647	17075
909.762	16953
909.878	16999
909.993	17113
910.108	16946
910.224	17045
910.339	16934
910.454	16999
910.57	16843
910.685	16858
910.8	16995
910.915	16987
911.03	16904
911.145	16531
911.259	16607
911.374	16634
911.489	16500
911.604	16535
911.718	16303
911.833	16360
911.947	16238
912.062	16188
912.176	16481
912.291	16371
912.405	16417
912.519	16550
912.633	16554
912.748	16329
912.862	16341
912.976	16124
913.09	16013
913.204	16105
913.318	16109
913.431	16173
913.545	16287
913.659	16276
913.772	16116
913.886	15972
914	15956
914.113	16013
914.226	16036
914.34	15964
914.453	15812
914.566	15994
914.68	15888
914.793	15831
914.906	15606
915.019	15545
915.132	15454
915.245	15576
915.358	15606
915.47	15644
915.583	15622
915.696	15526
915.809	15663
915.921	15603
916.034	15511
916.146	15401
916.259	15450
916.371	15545
916.483	15473
916.595	15466
916.708	15374
916.82	15397
916.932	15405
917.044	15306
917.156	15112
917.268	15188
917.38	15161
917.491	15218
917.603	15066
917.715	15268
917.826	15222
917.938	15112
918.049	15013
918.161	15081
918.272	15245
918.384	15245
918.495	15036
918.606	14876
918.717	14887
918.828	14906
918.939	14918
919.05	14788
919.161	14864
919.272	14697
919.383	14697
919.494	14895
919.604	15009
919.715	14849
919.826	14887
919.936	14758
920.047	14929
920.157	14921
920.267	14971
920.378	14895
920.488	14880
920.598	15047
920.708	15195
920.818	14994
920.928	14998
921.038	15165
921.148	15097
921.258	14788
921.368	14781
921.477	14640
921.587	14659
921.697	14541
921.806	14663
921.916	14396
922.025	14275
922.134	14233
922.244	14214
922.353	14221
922.462	14210
922.571	14020
922.68	13951
922.789	13818
922.898	13932
923.007	13772
923.116	13784
923.224	13871
923.333	13887
923.442	13784
923.55	13662
923.659	13636
923.767	13670
923.876	13662
923.984	13624
924.092	13514
924.201	13533
924.309	13575
924.417	13620
924.525	13499
924.633	13449
924.741	14278
924.849	13331
924.956	13499
925.064	13301
925.172	13175
925.279	13217
925.387	13301
925.494	13263
925.602	13373
925.709	13255
925.816	13103
925.924	13160
926.031	13304
926.138	13156
926.245	13244
926.352	13061
926.459	13179
926.566	13274
926.673	13126
926.779	12970
926.886	13038
926.993	12856
927.099	12852
927.206	12795
927.312	12783
927.419	12856
927.525	12806
927.631	12810
927.737	12703
927.843	12608
927.95	12559
928.056	12597
928.162	12646
928.267	12768
928.373	13251
928.479	12749
928.585	12369
928.69	12570
928.796	12635
928.901	12528
929.007	12388
929.112	12445
929.218	12441
929.323	12369
929.428	12353
929.533	12528
929.638	12232
929.743	12235
929.848	12350
929.953	12289
930.058	12262
930.163	12034
930.267	12003
930.372	12190
930.477	11969
930.581	12243
930.685	12038
930.79	11893
930.894	11908
930.998	11897
931.103	12041
931.207	11665
931.311	11611
931.415	11471
931.519	11337
931.623	11239
