Data from test_V78500241_3421.txt Node
Date: Fri Mar 25 16:05:30 CST 2022
User: usil
Spectrometer: V785-0024
Trigger mode: 0
Integration Time (sec): 4.000000E-1
Scans to average: 1
Nonlinearity correction enabled: false
Boxcar width: 0
Storing dark spectrum: false
XAxis mode: Wavelengths
Number of Pixels in Spectrum: 1024
>>>>>Begin Spectral Data<<<<<
801.071	28725
801.214	28584
801.356	28341
801.499	28249
801.641	28257
801.783	28185
801.926	28211
802.068	28055
802.211	28154
802.353	28120
802.496	27953
802.638	27941
802.78	27895
802.923	27873
803.065	27698
803.208	27846
803.35	27911
803.492	27998
803.635	28036
803.777	28029
803.919	28082
804.061	28405
804.204	28158
804.346	28040
804.488	28021
804.63	28116
804.773	28036
804.915	28070
805.057	28257
805.199	28139
805.341	28280
805.483	28207
805.626	28234
805.768	28029
805.91	28348
806.052	28238
806.194	28147
806.336	28493
806.478	28131
806.62	28363
806.762	28337
806.904	28436
807.046	28927
807.188	28774
807.33	28675
807.472	28740
807.614	28615
807.756	28668
807.898	28554
808.04	28447
808.182	28455
808.324	28565
808.465	28694
808.607	28744
808.749	29037
808.891	29010
809.033	29151
809.174	28904
809.316	28850
809.458	28896
809.6	29029
809.741	29117
809.883	29079
810.025	29200
810.166	29231
810.308	29155
810.45	29132
810.591	29193
810.733	28957
810.875	28892
811.016	28980
811.158	28927
811.299	28961
811.441	29147
811.582	29239
811.724	28946
811.865	28953
812.007	29006
812.148	28888
812.29	29079
812.431	29117
812.573	29132
812.714	29307
812.855	29284
812.997	29524
813.138	29691
813.279	29585
813.421	29398
813.562	29429
813.703	29258
813.845	29220
813.986	29041
814.127	28744
814.268	28710
814.41	28557
814.551	28622
814.692	28660
814.833	28721
814.974	28561
815.115	28744
815.256	28550
815.397	28653
815.539	28535
815.68	28367
815.821	28413
815.962	28424
816.103	28379
816.244	28230
816.385	28337
816.526	28249
816.666	28109
816.807	27892
816.948	27953
817.089	28048
817.23	28036
817.371	28029
817.512	27937
817.653	27987
817.793	27922
817.934	27880
818.075	27983
818.216	28002
818.356	27949
818.497	27850
818.638	27652
818.778	27629
818.919	27667
819.06	27873
819.2	27968
819.341	27968
819.481	28017
819.622	28116
819.762	28253
819.903	28242
820.043	28105
820.184	28074
820.324	28101
820.465	28139
820.605	28109
820.746	27968
820.886	28029
821.026	28135
821.167	28120
821.307	28124
821.447	27953
821.588	28013
821.728	27812
821.868	27492
822.008	27488
822.149	27374
822.289	27477
822.429	27192
822.569	27214
822.709	26975
822.849	27051
822.99	27028
823.13	27108
823.27	26990
823.41	26792
823.55	26636
823.69	26746
823.83	26823
823.97	26750
824.11	26602
824.25	26682
824.389	26587
824.529	26762
824.669	26697
824.809	26667
824.949	26541
825.089	26693
825.228	26640
825.368	26503
825.508	26526
825.648	26488
825.787	26530
825.927	26526
826.067	26370
826.206	26469
826.346	26499
826.485	26663
826.625	26549
826.765	26648
826.904	26404
827.044	26343
827.183	26145
827.323	26290
827.462	26263
827.601	26271
827.741	26142
827.88	26202
828.02	26115
828.159	26122
828.298	26199
828.437	26442
828.577	26317
828.716	26339
828.855	26058
828.994	25807
829.134	25868
829.273	25970
829.412	25887
829.551	26027
829.69	25913
829.829	25966
829.968	25978
830.107	25963
830.246	25955
830.385	25864
830.524	25772
830.663	25658
830.802	25544
830.941	25655
831.08	25479
831.219	25578
831.357	25582
831.496	25811
831.635	25597
831.774	25495
831.913	25392
832.051	25301
832.19	25190
832.329	25339
832.467	25228
832.606	25156
832.744	25168
832.883	25206
833.022	25114
833.16	25171
833.299	25175
833.437	25202
833.576	25339
833.714	25278
833.852	25251
833.991	25293
834.129	25335
834.267	25426
834.406	25278
834.544	25274
834.682	25202
834.821	25175
834.959	25270
835.097	25156
835.235	25343
835.373	25247
835.511	25240
835.65	25156
835.788	25107
835.926	24886
836.064	24886
836.202	24859
836.34	25095
836.478	25069
836.615	25038
836.753	25118
836.891	25236
837.029	25213
837.167	25012
837.305	25072
837.443	24962
837.58	24837
837.718	24844
837.856	25053
837.993	24928
838.131	24920
838.269	24711
838.406	24787
838.544	24779
838.681	24601
838.819	24525
838.956	24384
839.094	24369
839.231	24448
839.369	24555
839.506	24711
839.643	24585
839.781	24403
839.918	24277
840.055	24270
840.193	24338
840.33	24311
840.467	24300
840.604	24174
840.742	24654
840.879	24034
841.016	24270
841.153	24106
841.29	24334
841.427	24296
841.564	24285
841.701	24266
841.838	24209
841.975	24038
842.112	24235
842.249	24148
842.385	24068
842.522	24357
842.659	24091
842.796	24087
842.933	24057
843.069	24091
843.206	23942
843.343	24068
843.479	24022
843.616	24095
843.752	23828
843.889	23904
844.025	23908
844.162	23786
844.298	23836
844.435	23745
844.571	23779
844.708	23802
844.844	23847
844.98	23935
845.117	23870
845.253	23710
845.389	23710
845.525	23653
845.661	23748
845.798	23592
845.934	23570
846.07	23554
846.206	23554
846.342	23756
846.478	23406
846.614	23410
846.75	23208
846.886	23288
847.022	23421
847.158	23395
847.294	23341
847.429	23269
847.565	23296
847.701	23421
847.837	22961
847.972	22965
848.108	23022
848.244	23003
848.379	22930
848.515	22869
848.65	22889
848.786	22854
848.921	22904
849.057	22949
849.192	22934
849.328	22866
849.463	22900
849.598	22904
849.734	22759
849.869	22687
850.004	22603
850.14	22748
850.275	22550
850.41	22622
850.545	22538
850.68	22516
850.815	22573
850.95	22599
851.085	22824
851.22	22679
851.355	22672
851.49	22577
851.625	22592
851.76	22694
851.895	22561
852.03	22637
852.165	22615
852.299	22698
852.434	22721
852.569	22660
852.703	22713
852.838	22679
852.973	22721
853.107	22672
853.242	22531
853.376	22481
853.511	22421
853.645	22421
853.78	22379
853.914	22474
854.048	22348
854.183	22382
854.317	22413
854.451	22584
854.585	22424
854.72	22341
854.854	22466
854.988	22367
855.122	22428
855.256	22291
855.39	22447
855.524	22447
855.658	22508
855.792	22538
855.926	22577
856.06	22538
856.194	22649
856.327	22508
856.461	22375
856.595	22337
856.729	22421
856.862	22546
856.996	22413
857.13	22489
857.263	22565
857.397	22535
857.53	22470
857.664	22440
857.797	22409
857.931	22459
858.064	22402
858.197	22607
858.331	22261
858.464	22284
858.597	22268
858.731	22318
858.864	22337
858.997	22371
859.13	22474
859.263	22519
859.396	22462
859.529	22348
859.662	22504
859.795	22299
859.928	22371
860.061	22538
860.194	22736
860.327	22424
860.46	22375
860.592	22462
860.725	22557
860.858	22557
860.99	22459
861.123	22462
861.256	22478
861.388	22382
861.521	23246
861.653	22272
861.786	22261
861.918	22249
862.05	22303
862.183	22356
862.315	22379
862.447	22390
862.58	22386
862.712	22124
862.844	22120
862.976	22147
863.108	22230
863.24	22493
863.372	22169
863.504	22090
863.636	22139
863.768	22238
863.9	22135
864.032	22192
864.164	22078
864.296	22139
864.428	22253
864.559	22147
864.691	22223
864.823	22097
864.954	22021
865.086	22188
865.217	22196
865.349	21975
865.48	21983
865.612	21998
865.743	22215
865.875	21991
866.006	21926
866.137	22059
866.269	21926
866.4	21987
866.531	21892
866.662	21972
866.793	21945
866.924	21895
867.055	21949
867.186	22032
867.317	21930
867.448	21781
867.579	21835
867.71	21987
867.841	21793
867.972	21987
868.103	22070
868.233	21842
868.364	21907
868.495	22051
868.625	22143
868.756	22322
868.886	22215
869.017	22109
869.147	22329
869.278	22337
869.408	22291
869.539	22124
869.669	22219
869.799	22112
869.929	22223
870.06	22306
870.19	22428
870.32	22447
870.45	22561
870.58	22645
870.71	22634
870.84	22736
870.97	22546
871.1	22645
871.23	22767
871.36	22733
871.489	22596
871.619	22679
871.749	22774
871.879	22721
872.008	22869
872.138	22904
872.267	22801
872.397	22767
872.526	22565
872.656	22630
872.785	22607
872.915	22957
873.044	22904
873.173	22999
873.303	22889
873.432	22755
873.561	22816
873.69	22930
873.819	22763
873.948	22881
874.077	22854
874.206	22710
874.335	22790
874.464	22812
874.593	23025
874.722	22892
874.851	23090
874.979	23086
875.108	22995
875.237	22968
875.365	22953
875.494	22968
875.623	23132
875.751	23010
875.88	23113
876.008	23151
876.136	23208
876.265	23318
876.393	23512
876.521	23486
876.65	23501
876.778	23490
876.906	23307
877.034	23452
877.162	23425
877.29	23341
877.418	23383
877.546	23345
877.674	23368
877.802	23364
877.93	23391
878.058	23197
878.185	23220
878.313	23250
878.441	23330
878.568	23140
878.696	23307
878.824	23345
878.951	23467
879.079	23512
879.206	23589
879.333	23471
879.461	23410
879.588	23528
879.715	23543
879.842	23592
879.97	23459
880.097	23307
880.224	23223
880.351	23147
880.478	23273
880.605	23124
880.732	23246
880.859	23520
880.986	23151
881.112	23231
881.239	22991
881.366	22801
881.493	22763
881.619	22801
881.746	22771
881.872	22755
881.999	22721
882.125	22691
882.252	22774
882.378	22736
882.505	22736
882.631	22596
882.757	22535
882.883	22478
883.01	22447
883.136	22363
883.262	22249
883.388	22318
883.514	22497
883.64	22459
883.766	22295
883.892	22181
884.018	22223
884.143	22409
884.269	22447
884.395	22044
884.52	22078
884.646	22032
884.772	22036
884.897	21998
885.023	22010
885.148	22173
885.274	22097
885.399	22090
885.524	22044
885.65	22040
885.775	22070
885.9	21934
886.025	22097
886.15	22082
886.275	21956
886.4	21968
886.525	22010
886.65	22010
886.775	21968
886.9	22162
887.025	22166
887.149	22010
887.274	21907
887.399	21781
887.523	21656
887.648	21774
887.773	21736
887.897	21960
888.021	21934
888.146	21778
888.27	21827
888.395	21903
888.519	21850
888.643	21739
888.767	21770
888.891	21644
889.015	21755
889.139	21603
889.263	21667
889.387	21679
889.511	21793
889.635	21770
889.759	21458
889.883	21587
890.006	21572
890.13	21663
890.254	21500
890.377	21587
890.501	21477
890.624	21370
890.748	21378
890.871	21154
890.995	21173
891.118	21119
891.241	21237
891.364	21058
891.488	21363
891.611	21108
891.734	21112
891.857	21119
891.98	21241
892.103	21192
892.226	21089
892.349	21096
892.471	20960
892.594	21020
892.717	21036
892.839	20944
892.962	20956
893.085	21169
893.207	21055
893.33	20963
893.452	20910
893.575	21089
893.697	20979
893.819	21272
893.941	21222
894.064	21047
894.186	21013
894.308	20963
894.43	21112
894.552	21150
894.674	21135
894.796	21047
894.918	20937
895.04	21070
895.161	21100
895.283	20982
895.405	20929
895.526	20925
895.648	21055
895.769	21142
895.891	20971
896.012	21112
896.134	21074
896.255	21051
896.376	20956
896.498	21017
896.619	20990
896.74	21039
896.861	20982
896.982	21393
897.103	21481
897.224	21374
897.345	21321
897.466	21264
897.587	21226
897.708	21348
897.828	21203
897.949	21089
898.07	21070
898.19	21176
898.311	21291
898.431	21138
898.552	21245
898.672	21363
898.792	21291
898.913	21211
899.033	21180
899.153	21005
899.273	20864
899.393	21055
899.513	20994
899.633	20902
899.753	20960
899.873	20975
899.993	21013
900.113	20986
900.232	20921
900.352	20899
900.472	20731
900.591	20674
900.711	20674
900.83	20590
900.95	20807
901.069	20826
901.189	20575
901.308	20400
901.427	20240
901.546	20347
901.665	20339
901.784	20286
901.904	20263
902.023	20100
902.141	19887
902.26	19818
902.379	19921
902.498	19860
902.617	19723
902.735	19898
902.854	19753
902.973	19601
903.091	19377
903.21	19430
903.328	19346
903.446	19434
903.565	19198
903.683	19335
903.801	19137
903.919	19228
904.038	19187
904.156	19095
904.274	18962
904.392	19137
904.51	18943
904.627	19038
904.745	19091
904.863	19084
904.981	18863
905.098	18681
905.216	18692
905.334	18719
905.451	18734
905.569	18593
905.686	18760
905.803	18525
905.921	18467
906.038	18536
906.155	18441
906.272	18319
906.389	18384
906.506	18311
906.623	18285
906.74	18201
906.857	18068
906.974	18125
907.091	18296
907.208	18239
907.324	18144
907.441	18136
907.557	17935
907.674	17935
907.79	17897
907.907	17870
908.023	17931
908.139	17855
908.256	17870
908.372	17832
908.488	17745
908.604	17764
908.72	17642
908.836	17668
908.952	17547
909.068	17649
909.184	17794
909.3	17573
909.415	17665
909.531	17406
909.647	17417
909.762	17315
909.878	17220
909.993	17337
910.108	17337
910.224	17159
910.339	17341
910.454	17102
910.57	17140
910.685	17098
910.8	17360
910.915	17269
911.03	17170
911.145	16980
911.259	16995
911.374	16908
911.489	16866
911.604	16790
911.718	16656
911.833	16771
911.947	16542
912.062	16500
912.176	16687
912.291	16683
912.405	16733
912.519	16900
912.633	16824
912.748	16649
912.862	16626
912.976	16443
913.09	16485
913.204	16348
913.318	16398
913.431	16611
913.545	16584
913.659	16546
913.772	16291
913.886	16379
914	16181
914.113	16375
914.226	16348
914.34	16234
914.453	16086
914.566	16295
914.68	16067
914.793	16154
914.906	15911
915.019	15838
915.132	15743
915.245	15781
915.358	15778
915.47	15850
915.583	15895
915.696	15789
915.809	15911
915.921	16051
916.034	15747
916.146	15701
916.259	15625
916.371	15808
916.483	15804
916.595	15606
916.708	15644
916.82	15679
916.932	15549
917.044	15618
917.156	15622
917.268	15507
917.38	15507
917.491	15389
917.603	15454
917.715	15492
917.826	15466
917.938	15382
918.049	15336
918.161	15348
918.272	15584
918.384	15519
918.495	15401
918.606	15260
918.717	15112
918.828	15207
918.939	15249
919.05	15188
919.161	15150
919.272	14956
919.383	14982
919.494	15184
919.604	15367
919.715	15150
919.826	15024
919.936	15176
920.047	15074
920.157	15173
920.267	15325
920.378	15173
920.488	14986
920.598	15237
920.708	15485
920.818	15264
920.928	15108
921.038	15359
921.148	15348
921.258	15154
921.368	14975
921.477	14872
921.587	14872
921.697	14743
921.806	14849
921.916	14746
922.025	14556
922.134	14526
922.244	14492
922.353	14465
922.462	14412
922.571	14282
922.68	14199
922.789	14111
922.898	14252
923.007	14084
923.116	14145
923.224	14282
923.333	14149
923.442	14020
923.55	13947
923.659	13989
923.767	13982
923.876	13913
923.984	13974
924.092	13894
924.201	13845
924.309	13830
924.417	13913
924.525	13811
924.633	13757
924.741	14788
924.849	13719
924.956	13700
925.064	13628
925.172	13453
925.279	13499
925.387	13575
925.494	13434
925.602	13601
925.709	13586
925.816	13388
925.924	13460
926.031	13510
926.138	13453
926.245	13548
926.352	13331
926.459	13556
926.566	13533
926.673	13274
926.779	13251
926.886	13194
926.993	13141
927.099	13080
927.206	13000
927.312	13012
927.419	13084
927.525	13084
927.631	13038
927.737	13000
927.843	12817
927.95	12859
928.056	12890
928.162	12905
928.267	12939
928.373	13582
928.479	12905
928.585	12673
928.69	12757
928.796	12935
928.901	12707
929.007	12681
929.112	12749
929.218	12688
929.323	12646
929.428	12525
929.533	12738
929.638	12547
929.743	12593
929.848	12528
929.953	12528
930.058	12460
930.163	12224
930.267	12308
930.372	12376
930.477	12254
930.581	12445
930.685	12289
930.79	12144
930.894	12186
930.998	12159
931.103	12239
931.207	11912
931.311	11870
931.415	11672
931.519	11547
931.623	11535
