Data from test_V78500241_1106.txt Node
Date: Fri Mar 25 15:49:27 CST 2022
User: usil
Spectrometer: V785-0024
Trigger mode: 0
Integration Time (sec): 4.000000E-1
Scans to average: 1
Nonlinearity correction enabled: false
Boxcar width: 0
Storing dark spectrum: false
XAxis mode: Wavelengths
Number of Pixels in Spectrum: 1024
>>>>>Begin Spectral Data<<<<<
801.071	28500
801.214	28394
801.356	28291
801.499	28261
801.641	28246
801.783	27964
801.926	28086
802.068	28086
802.211	27998
802.353	27937
802.496	27720
802.638	27831
802.78	27675
802.923	27679
803.065	27652
803.208	27724
803.35	27838
803.492	27876
803.635	27979
803.777	27914
803.919	27861
804.061	28310
804.204	28029
804.346	27945
804.488	27865
804.63	27953
804.773	27846
804.915	27903
805.057	27964
805.199	27956
805.341	28150
805.483	28177
805.626	28067
805.768	28051
805.91	28090
806.052	28044
806.194	28154
806.336	28249
806.478	28242
806.62	28150
806.762	28306
806.904	28394
807.046	28588
807.188	28557
807.33	28698
807.472	28717
807.614	28546
807.756	28645
807.898	28440
808.04	28401
808.182	28287
808.324	28401
808.465	28497
808.607	28607
808.749	28801
808.891	28854
809.033	28927
809.174	28771
809.316	28843
809.458	28725
809.6	28721
809.741	28892
809.883	28896
810.025	29170
810.166	29075
810.308	29143
810.45	29117
810.591	29052
810.733	28866
810.875	28839
811.016	28622
811.158	28679
811.299	28892
811.441	29037
811.582	28942
811.724	28786
811.865	28854
812.007	28847
812.148	28824
812.29	28774
812.431	28968
812.573	29037
812.714	29410
812.855	29425
812.997	29486
813.138	29433
813.279	29448
813.421	29440
813.562	29322
813.703	29159
813.845	29162
813.986	28759
814.127	28569
814.268	28500
814.41	28512
814.551	28573
814.692	28618
814.833	28641
814.974	28527
815.115	28683
815.256	28367
815.397	28367
815.539	28413
815.68	28371
815.821	28287
815.962	28417
816.103	28352
816.244	28139
816.385	28109
816.526	28166
816.666	27907
816.807	27907
816.948	27930
817.089	27975
817.23	27903
817.371	27835
817.512	27823
817.653	27888
817.793	27899
817.934	27778
818.075	27838
818.216	27941
818.356	27747
818.497	27789
818.638	27500
818.778	27553
818.919	27686
819.06	27576
819.2	27743
819.341	27827
819.481	27888
819.622	27956
819.762	28192
819.903	28063
820.043	28010
820.184	27991
820.324	27914
820.465	27861
820.605	27945
820.746	27960
820.886	27774
821.026	27956
821.167	27899
821.307	27907
821.447	27903
821.588	27709
821.728	27766
821.868	27469
822.008	27340
822.149	27325
822.289	27405
822.429	26986
822.569	27146
822.709	27112
822.849	26925
822.99	26933
823.13	26731
823.27	26864
823.41	26667
823.55	26552
823.69	26579
823.83	26670
823.97	26598
824.11	26499
824.25	26579
824.389	26480
824.529	26598
824.669	26606
824.809	26518
824.949	26579
825.089	26545
825.228	26518
825.368	26377
825.508	26465
825.648	26328
825.787	26431
825.927	26313
826.067	26271
826.206	26476
826.346	26358
826.485	26309
826.625	26374
826.765	26499
826.904	26358
827.044	26027
827.183	26145
827.323	25951
827.462	26183
827.601	26130
827.741	26168
827.88	25997
828.02	25986
828.159	26077
828.298	26058
828.437	26103
828.577	26103
828.716	26210
828.855	25936
828.994	25826
829.134	25731
829.273	25883
829.412	25696
829.551	25597
829.69	25788
829.829	25989
829.968	25860
830.107	25822
830.246	25788
830.385	25715
830.524	25643
830.663	25571
830.802	25537
830.941	25331
831.08	25320
831.219	25400
831.357	25510
831.496	25540
831.635	25297
831.774	25308
831.913	25285
832.051	25247
832.19	25213
832.329	25148
832.467	25053
832.606	25110
832.744	24954
832.883	25050
833.022	24913
833.16	25019
833.299	25133
833.437	25247
833.576	25168
833.714	25069
833.852	25190
833.991	25095
834.129	25209
834.267	25175
834.406	25061
834.544	25221
834.682	25080
834.821	25012
834.959	25289
835.097	24996
835.235	25179
835.373	25027
835.511	25129
835.65	24954
835.788	24996
835.926	24730
836.064	24863
836.202	24753
836.34	24886
836.478	24867
836.615	24913
836.753	24920
836.891	24973
837.029	24985
837.167	24757
837.305	24924
837.443	24817
837.58	24768
837.718	24882
837.856	24894
837.993	24802
838.131	24722
838.269	24642
838.406	24700
838.544	24604
838.681	24475
838.819	24327
838.956	24323
839.094	24148
839.231	24296
839.369	24502
839.506	24760
839.643	24452
839.781	24304
839.918	24148
840.055	24186
840.193	24148
840.33	23927
840.467	24121
840.604	24144
840.742	24323
840.879	24053
841.016	24197
841.153	24091
841.29	24372
841.427	24038
841.564	24209
841.701	24178
841.838	24030
841.975	24018
842.112	24057
842.249	23904
842.385	23904
842.522	24201
842.659	24015
842.796	23874
842.933	23885
843.069	23718
843.206	23710
843.343	23798
843.479	23855
843.616	23817
843.752	23741
843.889	23646
844.025	23813
844.162	23661
844.298	23771
844.435	23512
844.571	23642
844.708	23543
844.844	23745
844.98	23878
845.117	23680
845.253	23680
845.389	23551
845.525	23600
845.661	23463
845.798	23345
845.934	23433
846.07	23311
846.206	23387
846.342	23452
846.478	23440
846.614	23143
846.75	23067
846.886	23090
847.022	23105
847.158	23083
847.294	23124
847.429	23041
847.565	23094
847.701	23349
847.837	22824
847.972	22721
848.108	22820
848.244	22900
848.379	22729
848.515	22736
848.65	22679
848.786	22733
848.921	22717
849.057	22782
849.192	22805
849.328	22675
849.463	22786
849.598	22683
849.734	22630
849.869	22538
850.004	22413
850.14	22599
850.275	22523
850.41	22318
850.545	22500
850.68	22455
850.815	22546
850.95	22424
851.085	22710
851.22	22455
851.355	22409
851.49	22466
851.625	22470
851.76	22329
851.895	22500
852.03	22333
852.165	22443
852.299	22516
852.434	22523
852.569	22360
852.703	22451
852.838	22615
852.973	22497
853.107	22607
853.242	22413
853.376	22299
853.511	22139
853.645	22196
853.78	22329
853.914	22337
854.048	22253
854.183	22284
854.317	22280
854.451	22348
854.585	22272
854.72	22303
854.854	22337
854.988	22291
855.122	22379
855.256	22185
855.39	22261
855.524	22265
855.658	22295
855.792	22211
855.926	22382
856.06	22329
856.194	22451
856.327	22303
856.461	22173
856.595	22223
856.729	22211
856.862	22306
856.996	22253
857.13	22287
857.263	22455
857.397	22386
857.53	22363
857.664	22360
857.797	22413
857.931	22367
858.064	22386
858.197	22394
858.331	22322
858.464	22139
858.597	22238
858.731	22246
858.864	22246
858.997	22158
859.13	22265
859.263	22226
859.396	22371
859.529	22215
859.662	22268
859.795	22215
859.928	22325
860.061	22413
860.194	22580
860.327	22402
860.46	22295
860.592	22432
860.725	22500
860.858	22478
860.99	22226
861.123	22272
861.256	22147
861.388	22341
861.521	22957
861.653	21987
861.786	22051
861.918	22017
862.05	22128
862.183	22162
862.315	22234
862.447	22291
862.58	22105
862.712	21930
862.844	21987
862.976	22048
863.108	21953
863.24	22485
863.372	21869
863.504	21964
863.636	21854
863.768	22029
863.9	21987
864.032	21945
864.164	22013
864.296	22097
864.428	22196
864.559	22074
864.691	22090
864.823	22021
864.954	21869
865.086	22097
865.217	22010
865.349	21854
865.48	21998
865.612	21960
865.743	22017
865.875	21831
866.006	21876
866.137	21873
866.269	21816
866.4	21789
866.531	21941
866.662	21823
866.793	21846
866.924	21937
867.055	21800
867.186	21876
867.317	21835
867.448	21679
867.579	21857
867.71	21698
867.841	21759
867.972	21823
868.103	21762
868.233	21705
868.364	21861
868.495	21899
868.625	21945
868.756	22139
868.886	21983
869.017	22040
869.147	22078
869.278	22246
869.408	22048
869.539	22059
869.669	22036
869.799	21964
869.929	22101
870.06	22090
870.19	22382
870.32	22436
870.45	22428
870.58	22394
870.71	22561
870.84	22489
870.97	22322
871.1	22428
871.23	22554
871.36	22603
871.489	22512
871.619	22664
871.749	22611
871.879	22649
872.008	22702
872.138	22786
872.267	22550
872.397	22481
872.526	22523
872.656	22470
872.785	22516
872.915	22645
873.044	22675
873.173	22721
873.303	22535
873.432	22847
873.561	22767
873.69	22687
873.819	22653
873.948	22767
874.077	22672
874.206	22622
874.335	22687
874.464	22816
874.593	22877
874.722	22881
874.851	22881
874.979	22927
875.108	22938
875.237	22786
875.365	22721
875.494	22934
875.623	22839
875.751	22763
875.88	22843
876.008	23079
876.136	23056
876.265	23254
876.393	23334
876.521	23452
876.65	23345
876.778	23140
876.906	23197
877.034	23159
877.162	23273
877.29	23075
877.418	23220
877.546	23246
877.674	23197
877.802	23113
877.93	23265
878.058	23208
878.185	23090
878.313	23166
878.441	23128
878.568	23117
878.696	23200
878.824	23273
878.951	23246
879.079	23410
879.206	23566
879.333	23376
879.461	23170
879.588	23318
879.715	23326
879.842	23455
879.97	23178
880.097	22984
880.224	22976
880.351	23003
880.478	23147
880.605	23132
880.732	22965
880.859	23254
880.986	23056
881.112	23094
881.239	22850
881.366	22812
881.493	22786
881.619	22618
881.746	22584
881.872	22641
881.999	22573
882.125	22599
882.252	22550
882.378	22493
882.505	22584
882.631	22470
882.757	22299
882.883	22360
883.01	22215
883.136	22325
883.262	22196
883.388	22082
883.514	22268
883.64	22367
883.766	22211
883.892	22017
884.018	22097
884.143	22185
884.269	22204
884.395	21918
884.52	21880
884.646	21869
884.772	21968
884.897	21846
885.023	21899
885.148	21911
885.274	22078
885.399	22078
885.524	21865
885.65	21975
885.775	21808
885.9	21903
886.025	22090
886.15	21991
886.275	21911
886.4	21797
886.525	21937
886.65	21709
886.775	21838
886.9	21968
887.025	22143
887.149	21812
887.274	21732
887.399	21679
887.523	21686
887.648	21523
887.773	21660
887.897	21644
888.021	21629
888.146	21610
888.27	21701
888.395	21751
888.519	21682
888.643	21698
888.767	21701
888.891	21530
889.015	21496
889.139	21397
889.263	21374
889.387	21610
889.511	21778
889.635	21644
889.759	21492
889.883	21473
890.006	21393
890.13	21568
890.254	21275
890.377	21325
890.501	21207
890.624	21230
890.748	21176
890.871	21058
890.995	20963
891.118	21047
891.241	21047
891.364	20910
891.488	21146
891.611	21047
891.734	21017
891.857	21077
891.98	20941
892.103	21032
892.226	21096
892.349	20933
892.471	20762
892.594	21043
892.717	20960
892.839	20861
892.962	20891
893.085	21058
893.207	20921
893.33	20746
893.452	20826
893.575	20941
893.697	20925
893.819	21058
893.941	21077
894.064	21051
894.186	20819
894.308	20868
894.43	20933
894.552	20963
894.674	21055
894.796	20906
894.918	20937
895.04	20765
895.161	20994
895.283	20941
895.405	20834
895.526	20921
895.648	20921
895.769	20914
895.891	21024
896.012	21001
896.134	20868
896.255	20902
896.376	20838
896.498	20853
896.619	20937
896.74	20895
896.861	20834
896.982	21199
897.103	21348
897.224	21268
897.345	21074
897.466	21104
897.587	21036
897.708	21195
897.828	21104
897.949	21066
898.07	20960
898.19	21017
898.311	21230
898.431	21036
898.552	21142
898.672	21184
898.792	21089
898.913	20952
899.033	20967
899.153	20823
899.273	20864
899.393	20811
899.513	20880
899.633	20792
899.753	20883
899.873	20800
899.993	20811
900.113	20781
900.232	20708
900.352	20758
900.472	20568
900.591	20648
900.711	20579
900.83	20587
900.95	20678
901.069	20678
901.189	20503
901.308	20298
901.427	20180
901.546	20153
901.665	20206
901.784	20092
901.904	20126
902.023	19932
902.141	19753
902.26	19742
902.379	19708
902.498	19624
902.617	19674
902.735	19662
902.854	19571
902.973	19605
903.091	19434
903.21	19263
903.328	19301
903.446	19308
903.565	19156
903.683	19160
903.801	19084
903.919	19080
904.038	19042
904.156	18848
904.274	19015
904.392	18901
904.51	18833
904.627	18947
904.745	18905
904.863	19012
904.981	18677
905.098	18547
905.216	18414
905.334	18525
905.451	18528
905.569	18475
905.686	18551
905.803	18551
905.921	18334
906.038	18418
906.155	18323
906.272	18197
906.389	18277
906.506	18076
906.623	18186
906.74	18171
906.857	17973
906.974	18068
907.091	18110
907.208	18136
907.324	18095
907.441	17980
907.557	17832
907.674	17882
907.79	17809
907.907	17718
908.023	17786
908.139	17745
908.256	17729
908.372	17726
908.488	17680
908.604	17490
908.72	17581
908.836	17589
908.952	17429
909.068	17566
909.184	17562
909.3	17532
909.415	17562
909.531	17425
909.647	17353
909.762	17231
909.878	17239
909.993	17265
910.108	17280
910.224	17200
910.339	17181
910.454	17048
910.57	17060
910.685	16949
910.8	17181
910.915	17166
911.03	16949
911.145	16850
911.259	16763
911.374	16805
911.489	16592
911.604	16668
911.718	16535
911.833	16573
911.947	16516
912.062	16402
912.176	16512
912.291	16546
912.405	16466
912.519	16782
912.633	16694
912.748	16546
912.862	16500
912.976	16432
913.09	16234
913.204	16211
913.318	16303
913.431	16363
913.545	16382
913.659	16371
913.772	16299
913.886	16109
914	16116
914.113	16200
914.226	16234
914.34	16120
914.453	16006
914.566	16154
914.68	16112
914.793	15873
914.906	15789
915.019	15766
915.132	15629
915.245	15755
915.358	15850
915.47	15644
915.583	15724
915.696	15751
915.809	15823
915.921	15865
916.034	15800
916.146	15618
916.259	15618
916.371	15629
916.483	15694
916.595	15542
916.708	15580
916.82	15557
916.932	15469
917.044	15477
917.156	15443
917.268	15363
917.38	15469
917.491	15325
917.603	15408
917.715	15428
917.826	15492
917.938	15291
918.049	15218
918.161	15317
918.272	15424
918.384	15507
918.495	15165
918.606	15089
918.717	15085
918.828	15203
918.939	15131
919.05	14941
919.161	15093
919.272	14948
919.383	14895
919.494	15062
919.604	15211
919.715	15020
919.826	14956
919.936	15146
920.047	15066
920.157	14975
920.267	15249
920.378	15131
920.488	14929
920.598	15180
920.708	15294
920.818	15214
920.928	15192
921.038	15374
921.148	15275
921.258	15039
921.368	14887
921.477	14804
921.587	14800
921.697	14648
921.806	14804
921.916	14640
922.025	14560
922.134	14396
922.244	14461
922.353	14438
922.462	14259
922.571	14161
922.68	14081
922.789	14043
922.898	14001
923.007	13982
923.116	14077
923.224	14039
923.333	14008
923.442	13879
923.55	13837
923.659	13860
923.767	13883
923.876	13845
923.984	13913
924.092	13811
924.201	13742
924.309	13746
924.417	13658
924.525	13647
924.633	13670
924.741	14511
924.849	13548
924.956	13586
925.064	13453
925.172	13411
925.279	13373
925.387	13499
925.494	13525
925.602	13586
925.709	13468
925.816	13251
925.924	13419
926.031	13419
926.138	13324
926.245	13487
926.352	13304
926.459	13354
926.566	13441
926.673	13266
926.779	13236
926.886	13168
926.993	13019
927.099	12966
927.206	12958
927.312	13000
927.419	13076
927.525	12981
927.631	13069
927.737	12920
927.843	12802
927.95	12677
928.056	12817
928.162	12806
928.267	12798
928.373	13381
928.479	12924
928.585	12574
928.69	12696
928.796	12798
928.901	12684
929.007	12582
929.112	12658
929.218	12578
929.323	12479
929.428	12456
929.533	12612
929.638	12460
929.743	12437
929.848	12517
929.953	12494
930.058	12372
930.163	12216
930.267	12148
930.372	12388
930.477	12140
930.581	12403
930.685	12270
930.79	12026
930.894	12095
930.998	12049
931.103	12178
931.207	11847
931.311	11703
931.415	11573
931.519	11444
931.623	11444
