Data from test_V78500241_2356.txt Node
Date: Fri Mar 25 15:58:07 CST 2022
User: usil
Spectrometer: V785-0024
Trigger mode: 0
Integration Time (sec): 4.000000E-1
Scans to average: 1
Nonlinearity correction enabled: false
Boxcar width: 0
Storing dark spectrum: false
XAxis mode: Wavelengths
Number of Pixels in Spectrum: 1024
>>>>>Begin Spectral Data<<<<<
801.071	29044
801.214	28991
801.356	28599
801.499	28569
801.641	28618
801.783	28599
801.926	28485
802.068	28489
802.211	28527
802.353	28405
802.496	28272
802.638	28169
802.78	28082
802.923	28120
803.065	28070
803.208	28116
803.35	28147
803.492	28405
803.635	28554
803.777	28226
803.919	28447
804.061	28702
804.204	28561
804.346	28405
804.488	28390
804.63	28382
804.773	28356
804.915	28512
805.057	28607
805.199	28440
805.341	28493
805.483	28733
805.626	28523
805.768	28592
805.91	28550
806.052	28778
806.194	28580
806.336	28725
806.478	28569
806.62	28748
806.762	28733
806.904	28999
807.046	29102
807.188	29193
807.33	29071
807.472	29181
807.614	29003
807.756	29117
807.898	29006
808.04	28915
808.182	28812
808.324	28900
808.465	28980
808.607	29086
808.749	29478
808.891	29478
809.033	29463
809.174	29417
809.316	29509
809.458	29315
809.6	29178
809.741	29315
809.883	29493
810.025	29570
810.166	29562
810.308	29608
810.45	29558
810.591	29516
810.733	29410
810.875	29318
811.016	29166
811.158	29235
811.299	29356
811.441	29474
811.582	29452
811.724	29406
811.865	29334
812.007	29455
812.148	29398
812.29	29398
812.431	29414
812.573	29642
812.714	29722
812.855	29733
812.997	30034
813.138	29977
813.279	29954
813.421	29996
813.562	29786
813.703	29722
813.845	29646
813.986	29334
814.127	29105
814.268	29079
814.41	29147
814.551	28972
814.692	29159
814.833	28984
814.974	29132
815.115	29098
815.256	28972
815.397	29022
815.539	28919
815.68	28888
815.821	28793
815.962	28835
816.103	28953
816.244	28858
816.385	28835
816.526	28725
816.666	28440
816.807	28318
816.948	28440
817.089	28421
817.23	28474
817.371	28363
817.512	28375
817.653	28363
817.793	28249
817.934	28462
818.075	28337
818.216	28390
818.356	28360
818.497	28097
818.638	28055
818.778	28143
818.919	28090
819.06	28272
819.2	28356
819.341	28291
819.481	28386
819.622	28584
819.762	28660
819.903	28512
820.043	28592
820.184	28455
820.324	28573
820.465	28554
820.605	28531
820.746	28394
820.886	28352
821.026	28554
821.167	28394
821.307	28535
821.447	28432
821.588	28329
821.728	28261
821.868	28078
822.008	27960
822.149	27865
822.289	27797
822.429	27557
822.569	27511
822.709	27553
822.849	27443
822.99	27351
823.13	27431
823.27	27264
823.41	27112
823.55	27146
823.69	27192
823.83	27203
823.97	27226
824.11	27096
824.25	26967
824.389	27062
824.529	27142
824.669	27036
824.809	27173
824.949	27157
825.089	27062
825.228	27108
825.368	26880
825.508	26864
825.648	26880
825.787	26857
825.927	27036
826.067	26906
826.206	26914
826.346	26880
826.485	26899
826.625	26750
826.765	27135
826.904	26918
827.044	26788
827.183	26571
827.323	26533
827.462	26743
827.601	26716
827.741	26659
827.88	26663
828.02	26587
828.159	26564
828.298	26636
828.437	26689
828.577	26564
828.716	26674
828.855	26693
828.994	26370
829.134	26423
829.273	26309
829.412	26385
829.551	26218
829.69	26434
829.829	26332
829.968	26492
830.107	26427
830.246	26282
830.385	26495
830.524	26195
830.663	26145
830.802	26138
830.941	26065
831.08	25963
831.219	25913
831.357	26046
831.496	26077
831.635	25966
831.774	25947
831.913	25906
832.051	25734
832.19	25704
832.329	25715
832.467	25731
832.606	25479
832.744	25590
832.883	25548
833.022	25605
833.16	25514
833.299	25662
833.437	25552
833.576	25761
833.714	25651
833.852	25620
833.991	25685
834.129	25837
834.267	25776
834.406	25666
834.544	25757
834.682	25639
834.821	25685
834.959	25845
835.097	25715
835.235	25826
835.373	25670
835.511	25734
835.65	25521
835.788	25453
835.926	25297
836.064	25373
836.202	25369
836.34	25457
836.478	25594
836.615	25487
836.753	25506
836.891	25567
837.029	25396
837.167	25358
837.305	25460
837.443	25400
837.58	25339
837.718	25392
837.856	25434
837.993	25236
838.131	25350
838.269	25225
838.406	25175
838.544	25103
838.681	24924
838.819	24825
838.956	24840
839.094	24859
839.231	24814
839.369	24932
839.506	25194
839.643	24981
839.781	24764
839.918	24700
840.055	24856
840.193	24749
840.33	24795
840.467	24661
840.604	24620
840.742	24966
840.879	24585
841.016	24665
841.153	24604
841.29	24764
841.427	24654
841.564	24631
841.701	24681
841.838	24521
841.975	24604
842.112	24578
842.249	24426
842.385	24342
842.522	24719
842.659	24517
842.796	24456
842.933	24289
843.069	24540
843.206	24380
843.343	24525
843.479	24388
843.616	24513
843.752	24197
843.889	24258
844.025	24410
844.162	24201
844.298	24361
844.435	24095
844.571	24232
844.708	24155
844.844	24304
844.98	24410
845.117	24197
845.253	24167
845.389	24018
845.525	23988
845.661	24098
845.798	23954
845.934	23980
846.07	23882
846.206	23961
846.342	23939
846.478	23912
846.614	23608
846.75	23737
846.886	23615
847.022	23691
847.158	23745
847.294	23551
847.429	23665
847.565	23680
847.701	24018
847.837	23353
847.972	23455
848.108	23471
848.244	23444
848.379	23265
848.515	23155
848.65	23269
848.786	23216
848.921	23292
849.057	23315
849.192	23349
849.328	23258
849.463	23178
849.598	23239
849.734	23079
849.869	23033
850.004	23025
850.14	23003
850.275	23006
850.41	22877
850.545	22995
850.68	22961
850.815	23006
850.95	22980
851.085	23170
851.22	23151
851.355	23071
851.49	23003
851.625	23052
851.76	22968
851.895	22930
852.03	22889
852.165	22946
852.299	23121
852.434	23060
852.569	23067
852.703	23060
852.838	23117
852.973	23159
853.107	23102
853.242	22953
853.376	22892
853.511	22664
853.645	22679
853.78	22938
853.914	22850
854.048	22847
854.183	22755
854.317	22793
854.451	23003
854.585	22850
854.72	22873
854.854	22778
854.988	22759
855.122	22744
855.256	22725
855.39	22694
855.524	22873
855.658	22801
855.792	22713
855.926	22812
856.06	22904
856.194	22972
856.327	22835
856.461	22694
856.595	22763
856.729	22672
856.862	22999
856.996	22927
857.13	22854
857.263	22831
857.397	22968
857.53	22759
857.664	22816
857.797	22904
857.931	22911
858.064	22736
858.197	22911
858.331	22896
858.464	22759
858.597	22687
858.731	22847
858.864	22729
858.997	22774
859.13	22790
859.263	22927
859.396	22965
859.529	22752
859.662	22748
859.795	22725
859.928	22740
860.061	22980
860.194	23052
860.327	22850
860.46	22710
860.592	22946
860.725	23052
860.858	22828
860.99	22786
861.123	22687
861.256	22778
861.388	22801
861.521	23592
861.653	22607
861.786	22607
861.918	22622
862.05	22634
862.183	22721
862.315	22759
862.447	22900
862.58	22774
862.712	22565
862.844	22497
862.976	22603
863.108	22603
863.24	23010
863.372	22497
863.504	22531
863.636	22527
863.768	22554
863.9	22519
864.032	22489
864.164	22470
864.296	22485
864.428	22546
864.559	22679
864.691	22584
864.823	22580
864.954	22462
865.086	22523
865.217	22542
865.349	22394
865.48	22405
865.612	22413
865.743	22538
865.875	22413
866.006	22291
866.137	22390
866.269	22428
866.4	22325
866.531	22451
866.662	22341
866.793	22363
866.924	22341
867.055	22299
867.186	22375
867.317	22390
867.448	22185
867.579	22280
867.71	22242
867.841	22223
867.972	22348
868.103	22402
868.233	22242
868.364	22268
868.495	22360
868.625	22493
868.756	22786
868.886	22497
869.017	22630
869.147	22569
869.278	22698
869.408	22580
869.539	22546
869.669	22675
869.799	22626
869.929	22694
870.06	22668
870.19	22934
870.32	22824
870.45	22858
870.58	22961
870.71	23151
870.84	23079
870.97	22968
871.1	22995
871.23	23166
871.36	23174
871.489	23041
871.619	23117
871.749	23155
871.879	23250
872.008	23277
872.138	23143
872.267	23098
872.397	23124
872.526	22869
872.656	22976
872.785	22930
872.915	23079
873.044	23246
873.173	23159
873.303	23166
873.432	23284
873.561	23360
873.69	23162
873.819	23113
873.948	23349
874.077	23185
874.206	23060
874.335	23079
874.464	23322
874.593	23383
874.722	23417
874.851	23398
874.979	23421
875.108	23467
875.237	23463
875.365	23337
875.494	23425
875.623	23509
875.751	23376
875.88	23387
876.008	23486
876.136	23512
876.265	23779
876.393	23912
876.521	23802
876.65	23878
876.778	23729
876.906	23809
877.034	23714
877.162	23760
877.29	23680
877.418	23775
877.546	23729
877.674	23714
877.802	23741
877.93	23809
878.058	23649
878.185	23414
878.313	23592
878.441	23817
878.568	23535
878.696	23741
878.824	23775
878.951	23817
879.079	23904
879.206	23996
879.333	23783
879.461	23737
879.588	23790
879.715	23805
879.842	24110
879.97	23767
880.097	23539
880.224	23566
880.351	23554
880.478	23642
880.605	23558
880.732	23668
880.859	23745
880.986	23566
881.112	23638
881.239	23406
881.366	23220
881.493	23174
881.619	23143
881.746	23136
881.872	23094
881.999	22957
882.125	23056
882.252	23079
882.378	23006
882.505	23075
882.631	22919
882.757	22809
882.883	22908
883.01	22706
883.136	22679
883.262	22622
883.388	22698
883.514	22744
883.64	22854
883.766	22702
883.892	22538
884.018	22538
884.143	22698
884.269	22759
884.395	22409
884.52	22325
884.646	22363
884.772	22405
884.897	22204
885.023	22363
885.148	22424
885.274	22550
885.399	22455
885.524	22398
885.65	22356
885.775	22325
885.9	22329
886.025	22493
886.15	22432
886.275	22367
886.4	22204
886.525	22348
886.65	22360
886.775	22291
886.9	22474
887.025	22436
887.149	22280
887.274	22147
887.399	22093
887.523	22173
887.648	22021
887.773	22006
887.897	22169
888.021	22242
888.146	22078
888.27	22348
888.395	22196
888.519	22128
888.643	22135
888.767	22261
888.891	22147
889.015	22006
889.139	22059
889.263	21968
889.387	21975
889.511	22055
889.635	21979
889.759	21941
889.883	22055
890.006	21956
890.13	21911
890.254	21861
890.377	21857
890.501	21656
890.624	21606
890.748	21656
890.871	21614
890.995	21549
891.118	21401
891.241	21534
891.364	21401
891.488	21603
891.611	21450
891.734	21454
891.857	21572
891.98	21401
892.103	21492
892.226	21408
892.349	21397
892.471	21249
892.594	21435
892.717	21466
892.839	21393
892.962	21302
893.085	21424
893.207	21359
893.33	21317
893.452	21260
893.575	21348
893.697	21412
893.819	21606
893.941	21492
894.064	21530
894.186	21302
894.308	21458
894.43	21363
894.552	21477
894.674	21530
894.796	21329
894.918	21279
895.04	21306
895.161	21351
895.283	21252
895.405	21184
895.526	21287
895.648	21389
895.769	21272
895.891	21291
896.012	21393
896.134	21370
896.255	21199
896.376	21283
896.498	21439
896.619	21302
896.74	21363
896.861	21412
896.982	21728
897.103	21701
897.224	21625
897.345	21553
897.466	21420
897.587	21477
897.708	21679
897.828	21652
897.949	21428
898.07	21397
898.19	21401
898.311	21603
898.431	21526
898.552	21622
898.672	21534
898.792	21587
898.913	21580
899.033	21466
899.153	21351
899.273	21264
899.393	21237
899.513	21348
899.633	21283
899.753	21359
899.873	21233
899.993	21165
900.113	21272
900.232	21150
900.352	21108
900.472	21211
900.591	20933
900.711	20979
900.83	20868
900.95	21009
901.069	21039
901.189	20883
901.308	20716
901.427	20541
901.546	20575
901.665	20705
901.784	20571
901.904	20518
902.023	20294
902.141	20237
902.26	20126
902.379	20221
902.498	20016
902.617	20024
902.735	20142
902.854	20092
902.973	19906
903.091	19776
903.21	19567
903.328	19715
903.446	19639
903.565	19601
903.683	19586
903.801	19373
903.919	19430
904.038	19403
904.156	19285
904.274	19396
904.392	19278
904.51	19183
904.627	19282
904.745	19377
904.863	19411
904.981	19031
905.098	18977
905.216	18951
905.334	18958
905.451	18977
905.569	18932
905.686	18886
905.803	18844
905.921	18715
906.038	18772
906.155	18726
906.272	18623
906.389	18627
906.506	18441
906.623	18509
906.74	18486
906.857	18338
906.974	18437
907.091	18521
907.208	18582
907.324	18566
907.441	18376
907.557	18319
907.674	18209
907.79	18045
907.907	18098
908.023	18201
908.139	18216
908.256	18194
908.372	18106
908.488	18076
908.604	17973
908.72	17923
908.836	17950
908.952	17840
909.068	17897
909.184	17980
909.3	17817
909.415	17965
909.531	17893
909.647	17646
909.762	17665
909.878	17630
909.993	17608
910.108	17539
910.224	17425
910.339	17490
910.454	17391
910.57	17379
910.685	17318
910.8	17657
910.915	17448
911.03	17421
911.145	17155
911.259	17037
911.374	17181
911.489	17052
911.604	17060
911.718	16995
911.833	16866
911.947	16854
912.062	16740
912.176	16923
912.291	16862
912.405	16885
912.519	17037
912.633	17075
912.748	16927
912.862	16873
912.976	16740
913.09	16702
913.204	16702
913.318	16744
913.431	16706
913.545	16698
913.659	16831
913.772	16774
913.886	16561
914	16428
914.113	16641
914.226	16630
914.34	16569
914.453	16470
914.566	16459
914.68	16409
914.793	16337
914.906	16131
915.019	16078
915.132	15998
915.245	15975
915.358	16230
915.47	16112
915.583	16147
915.696	16029
915.809	16200
915.921	16265
916.034	16078
916.146	15922
916.259	15956
916.371	16055
916.483	16006
916.595	15831
916.708	15926
916.82	15800
916.932	15876
917.044	15819
917.156	15835
917.268	15690
917.38	15804
917.491	15637
917.603	15694
917.715	15717
917.826	15736
917.938	15656
918.049	15564
918.161	15622
918.272	15747
918.384	15743
918.495	15610
918.606	15439
918.717	15363
918.828	15454
918.939	15519
919.05	15386
919.161	15469
919.272	15214
919.383	15317
919.494	15431
919.604	15538
919.715	15435
919.826	15222
919.936	15378
920.047	15439
920.157	15393
920.267	15504
920.378	15382
920.488	15329
920.598	15523
920.708	15557
920.818	15568
920.928	15454
921.038	15526
921.148	15568
921.258	15279
921.368	15157
921.477	15146
921.587	15009
921.697	14998
921.806	15180
921.916	14910
922.025	14823
922.134	14686
922.244	14640
922.353	14861
922.462	14583
922.571	14537
922.68	14377
922.789	14343
922.898	14362
923.007	14332
923.116	14366
923.224	14343
923.333	14298
923.442	14225
923.55	14172
923.659	14199
923.767	14180
923.876	14134
923.984	14161
924.092	14031
924.201	14065
924.309	14020
924.417	14065
924.525	14039
924.633	14031
924.741	14883
924.849	13784
924.956	13940
925.064	13769
925.172	13586
925.279	13708
925.387	13788
925.494	13780
925.602	13814
925.709	13757
925.816	13563
925.924	13590
926.031	13765
926.138	13674
926.245	13605
926.352	13597
926.459	13674
926.566	13681
926.673	13518
926.779	13552
926.886	13453
926.993	13266
927.099	13240
927.206	13202
927.312	13236
927.419	13308
927.525	13240
927.631	13217
927.737	13217
927.843	13114
927.95	12943
928.056	13046
928.162	13088
928.267	13152
928.373	13772
928.479	13126
928.585	12886
928.69	13053
928.796	12951
928.901	12859
929.007	12833
929.112	12951
929.218	12871
929.323	12734
929.428	12745
929.533	12878
929.638	12764
929.743	12719
929.848	12696
929.953	12627
930.058	12589
930.163	12391
930.267	12437
930.372	12570
930.477	12369
930.581	12673
930.685	12456
930.79	12338
930.894	12311
930.998	12262
931.103	12513
931.207	12095
931.311	12057
931.415	11809
931.519	11642
931.623	11657
