Data from test_V78500241_1942.txt Node
Date: Fri Mar 25 15:55:15 CST 2022
User: usil
Spectrometer: V785-0024
Trigger mode: 0
Integration Time (sec): 4.000000E-1
Scans to average: 1
Nonlinearity correction enabled: false
Boxcar width: 0
Storing dark spectrum: false
XAxis mode: Wavelengths
Number of Pixels in Spectrum: 1024
>>>>>Begin Spectral Data<<<<<
801.071	28660
801.214	28626
801.356	28489
801.499	28516
801.641	28291
801.783	28352
801.926	28272
802.068	28249
802.211	28207
802.353	28188
802.496	28025
802.638	28082
802.78	27892
802.923	27956
803.065	27861
803.208	27972
803.35	28150
803.492	28166
803.635	28097
803.777	28090
803.919	28268
804.061	28497
804.204	28314
804.346	28124
804.488	28128
804.63	28318
804.773	28211
804.915	28329
805.057	28432
805.199	28207
805.341	28523
805.483	28390
805.626	28356
805.768	28329
805.91	28405
806.052	28580
806.194	28310
806.336	28653
806.478	28459
806.62	28493
806.762	28557
806.904	28634
807.046	29029
807.188	28881
807.33	28888
807.472	29037
807.614	28778
807.756	28866
807.898	28694
808.04	28683
808.182	28603
808.324	28801
808.465	28904
808.607	28972
808.749	29117
808.891	29318
809.033	29315
809.174	29162
809.316	29204
809.458	29246
809.6	29113
809.741	29098
809.883	29368
810.025	29345
810.166	29463
810.308	29395
810.45	29531
810.591	29375
810.733	29155
810.875	29060
811.016	29025
811.158	29029
811.299	29280
811.441	29231
811.582	29242
811.724	29090
811.865	29003
812.007	29227
812.148	29147
812.29	29067
812.431	29337
812.573	29391
812.714	29634
812.855	29615
812.997	29676
813.138	29840
813.279	29840
813.421	29630
813.562	29600
813.703	29471
813.845	29337
813.986	28987
814.127	29044
814.268	28744
814.41	28831
814.551	28748
814.692	28888
814.833	28740
814.974	28603
815.115	28816
815.256	28645
815.397	28660
815.539	28793
815.68	28500
815.821	28478
815.962	28793
816.103	28653
816.244	28500
816.385	28493
816.526	28390
816.666	28234
816.807	28109
816.948	28238
817.089	28192
817.23	28124
817.371	28120
817.512	28032
817.653	28070
817.793	28063
817.934	28112
818.075	28067
818.216	28166
818.356	28139
818.497	27998
818.638	27884
818.778	27918
818.919	27819
819.06	27941
819.2	28101
819.341	28109
819.481	28135
819.622	28341
819.762	28394
819.903	28322
820.043	28371
820.184	28261
820.324	28226
820.465	28352
820.605	28192
820.746	28249
820.886	28166
821.026	28504
821.167	28268
821.307	28375
821.447	28185
821.588	28078
821.728	28036
821.868	27793
822.008	27599
822.149	27701
822.289	27549
822.429	27401
822.569	27306
822.709	27275
822.849	27233
822.99	27112
823.13	27138
823.27	27017
823.41	26929
823.55	26765
823.69	26975
823.83	27066
823.97	26902
824.11	26788
824.25	26777
824.389	26857
824.529	26887
824.669	26792
824.809	26845
824.949	26929
825.089	26762
825.228	27005
825.368	26739
825.508	26735
825.648	26758
825.787	26712
825.927	26762
826.067	26682
826.206	26693
826.346	26758
826.485	26769
826.625	26609
826.765	26800
826.904	26670
827.044	26393
827.183	26503
827.323	26317
827.462	26438
827.601	26469
827.741	26412
827.88	26400
828.02	26434
828.159	26434
828.298	26415
828.437	26518
828.577	26385
828.716	26362
828.855	26301
828.994	26130
829.134	26035
829.273	26126
829.412	26020
829.551	26107
829.69	26069
829.829	26027
829.968	26240
830.107	26119
830.246	26157
830.385	26172
830.524	25898
830.663	26027
830.802	25727
830.941	25788
831.08	25594
831.219	25624
831.357	25772
831.496	25959
831.635	25727
831.774	25533
831.913	25575
832.051	25533
832.19	25407
832.329	25514
832.467	25495
832.606	25289
832.744	25343
832.883	25392
833.022	25392
833.16	25251
833.299	25430
833.437	25384
833.576	25434
833.714	25343
833.852	25400
833.991	25514
834.129	25487
834.267	25525
834.406	25434
834.544	25369
834.682	25400
834.821	25278
834.959	25658
835.097	25369
835.235	25468
835.373	25396
835.511	25369
835.65	25114
835.788	25190
835.926	25171
836.064	24951
836.202	25042
836.34	25259
836.478	25289
836.615	25304
836.753	25255
836.891	25304
837.029	25263
837.167	25270
837.305	25221
837.443	25148
837.58	25221
837.718	25027
837.856	25053
837.993	24951
838.131	25114
838.269	24905
838.406	24935
838.544	24928
838.681	24817
838.819	24703
838.956	24464
839.094	24551
839.231	24715
839.369	24677
839.506	24825
839.643	24871
839.781	24635
839.918	24498
840.055	24555
840.193	24441
840.33	24475
840.467	24426
840.604	24544
840.742	24665
840.879	24330
841.016	24441
841.153	24254
841.29	24479
841.427	24353
841.564	24456
841.701	24319
841.838	24254
841.975	24334
842.112	24319
842.249	24330
842.385	24182
842.522	24391
842.659	24232
842.796	24136
842.933	24197
843.069	24117
843.206	24155
843.343	24140
843.479	24148
843.616	24121
843.752	23999
843.889	24083
844.025	24057
844.162	24026
844.298	24007
844.435	23893
844.571	23874
844.708	24041
844.844	24129
844.98	24110
845.117	24038
845.253	23836
845.389	23771
845.525	23980
845.661	23904
845.798	23794
845.934	23676
846.07	23756
846.206	23764
846.342	23836
846.478	23707
846.614	23535
846.75	23406
846.886	23406
847.022	23425
847.158	23349
847.294	23299
847.429	23573
847.565	23379
847.701	23760
847.837	23117
847.972	23170
848.108	23204
848.244	23174
848.379	22995
848.515	22976
848.65	22904
848.786	22881
848.921	23037
849.057	23124
849.192	23102
849.328	22999
849.463	23064
849.598	22980
849.734	22816
849.869	22972
850.004	22820
850.14	22767
850.275	22820
850.41	22790
850.545	22717
850.68	22664
850.815	22816
850.95	22809
851.085	22923
851.22	22900
851.355	22774
851.49	22675
851.625	22729
851.76	22771
851.895	22630
852.03	22691
852.165	22710
852.299	22828
852.434	22843
852.569	22702
852.703	22721
852.838	22824
852.973	22965
853.107	22892
853.242	22698
853.376	22713
853.511	22478
853.645	22588
853.78	22672
853.914	22588
854.048	22557
854.183	22622
854.317	22611
854.451	22786
854.585	22611
854.72	22607
854.854	22664
854.988	22542
855.122	22500
855.256	22382
855.39	22672
855.524	22668
855.658	22615
855.792	22588
855.926	22645
856.06	22626
856.194	22637
856.327	22512
856.461	22485
856.595	22580
856.729	22542
856.862	22710
856.996	22611
857.13	22691
857.263	22729
857.397	22733
857.53	22611
857.664	22561
857.797	22622
857.931	22664
858.064	22729
858.197	22653
858.331	22550
858.464	22550
858.597	22447
858.731	22542
858.864	22580
858.997	22455
859.13	22557
859.263	22599
859.396	22630
859.529	22649
859.662	22596
859.795	22512
859.928	22470
860.061	22683
860.194	22858
860.327	22500
860.46	22736
860.592	22615
860.725	22767
860.858	22816
860.99	22592
861.123	22379
861.256	22546
861.388	22557
861.521	23448
861.653	22504
861.786	22504
861.918	22436
862.05	22531
862.183	22542
862.315	22394
862.447	22531
862.58	22588
862.712	22333
862.844	22147
862.976	22405
863.108	22310
863.24	22786
863.372	22215
863.504	22261
863.636	22276
863.768	22329
863.9	22242
864.032	22344
864.164	22154
864.296	22257
864.428	22363
864.559	22329
864.691	22253
864.823	22185
864.954	22261
865.086	22268
865.217	22120
865.349	22112
865.48	22173
865.612	22196
865.743	22230
865.875	22280
866.006	22173
866.137	22143
866.269	22200
866.4	22185
866.531	22078
866.662	22021
866.793	22185
866.924	22010
867.055	22109
867.186	22120
867.317	22048
867.448	22059
867.579	22051
867.71	21975
867.841	22032
867.972	22097
868.103	22074
868.233	22021
868.364	22090
868.495	22139
868.625	22363
868.756	22375
868.886	22234
869.017	22223
869.147	22402
869.278	22348
869.408	22295
869.539	22303
869.669	22432
869.799	22413
869.929	22493
870.06	22337
870.19	22542
870.32	22706
870.45	22660
870.58	22801
870.71	22877
870.84	22847
870.97	22706
871.1	22759
871.23	22923
871.36	22805
871.489	22873
871.619	22774
871.749	22908
871.879	22854
872.008	22953
872.138	22889
872.267	22904
872.397	22774
872.526	22816
872.656	22748
872.785	22755
872.915	22984
873.044	22995
873.173	22847
873.303	23018
873.432	22976
873.561	23170
873.69	22908
873.819	22930
873.948	22999
874.077	23075
874.206	22908
874.335	22911
874.464	23113
874.593	23105
874.722	23151
874.851	23197
874.979	23174
875.108	23132
875.237	23151
875.365	22942
875.494	23147
875.623	23193
875.751	23014
875.88	23162
876.008	23326
876.136	23303
876.265	23547
876.393	23600
876.521	23665
876.65	23520
876.778	23562
876.906	23318
877.034	23455
877.162	23372
877.29	23429
877.418	23512
877.546	23478
877.674	23482
877.802	23402
877.93	23440
878.058	23311
878.185	23303
878.313	23490
878.441	23482
878.568	23406
878.696	23383
878.824	23505
878.951	23490
879.079	23695
879.206	23779
879.333	23596
879.461	23486
879.588	23558
879.715	23566
879.842	23707
879.97	23585
880.097	23341
880.224	23356
880.351	23364
880.478	23231
880.605	23162
880.732	23349
880.859	23486
880.986	23250
881.112	23227
881.239	23212
881.366	23174
881.493	22980
881.619	22801
881.746	22908
881.872	22900
881.999	22797
882.125	22717
882.252	22946
882.378	22691
882.505	22949
882.631	22858
882.757	22615
882.883	22706
883.01	22622
883.136	22519
883.262	22447
883.388	22500
883.514	22542
883.64	22538
883.766	22402
883.892	22291
884.018	22394
884.143	22432
884.269	22668
884.395	22192
884.52	22158
884.646	22173
884.772	22112
884.897	22036
885.023	22162
885.148	22246
885.274	22371
885.399	22207
885.524	22112
885.65	22105
885.775	22131
885.9	22139
886.025	22181
886.15	22185
886.275	22124
886.4	22032
886.525	22128
886.65	22143
886.775	21956
886.9	22147
887.025	22360
887.149	22177
887.274	21998
887.399	21854
887.523	21937
887.648	21865
887.773	21968
887.897	21983
888.021	21953
888.146	21842
888.27	22090
888.395	21994
888.519	21926
888.643	21930
888.767	21918
888.891	21797
889.015	21732
889.139	21816
889.263	21698
889.387	21918
889.511	21869
889.635	21869
889.759	21766
889.883	21682
890.006	21603
890.13	21720
890.254	21633
890.377	21530
890.501	21462
890.624	21401
890.748	21553
890.871	21386
890.995	21233
891.118	21165
891.241	21332
891.364	21169
891.488	21317
891.611	21245
891.734	21317
891.857	21252
891.98	21325
892.103	21405
892.226	21188
892.349	21123
892.471	21070
892.594	21256
892.717	21173
892.839	21237
892.962	21036
893.085	21367
893.207	21180
893.33	21013
893.452	21112
893.575	21146
893.697	21039
893.819	21272
893.941	21325
894.064	21142
894.186	21173
894.308	21100
894.43	21165
894.552	21252
894.674	21154
894.796	21058
894.918	21146
895.04	21005
895.161	21161
895.283	21154
895.405	21089
895.526	21089
895.648	21116
895.769	21089
895.891	21138
896.012	21203
896.134	21142
896.255	21005
896.376	21218
896.498	21020
896.619	21195
896.74	21112
896.861	21081
896.982	21447
897.103	21549
897.224	21393
897.345	21329
897.466	21233
897.587	21329
897.708	21572
897.828	21401
897.949	21195
898.07	21154
898.19	21336
898.311	21458
898.431	21214
898.552	21230
898.672	21447
898.792	21382
898.913	21256
899.033	21203
899.153	21154
899.273	21077
899.393	21028
899.513	21142
899.633	21104
899.753	21116
899.873	21009
899.993	21055
900.113	20952
900.232	21074
900.352	21036
900.472	20986
900.591	20758
900.711	20849
900.83	20712
900.95	20853
901.069	20906
901.189	20712
901.308	20484
901.427	20522
901.546	20393
901.665	20370
901.784	20389
901.904	20191
902.023	20138
902.141	20100
902.26	19852
902.379	20024
902.498	19913
902.617	19845
902.735	19921
902.854	19826
902.973	19723
903.091	19601
903.21	19552
903.328	19552
903.446	19403
903.565	19331
903.683	19358
903.801	19263
903.919	19434
904.038	19289
904.156	19031
904.274	19282
904.392	19084
904.51	19076
904.627	19084
904.745	19145
904.863	19088
904.981	18833
905.098	18825
905.216	18772
905.334	18776
905.451	18817
905.569	18764
905.686	18764
905.803	18722
905.921	18650
906.038	18635
906.155	18589
906.272	18467
906.389	18498
906.506	18323
906.623	18395
906.74	18380
906.857	18201
906.974	18194
907.091	18304
907.208	18422
907.324	18410
907.441	18178
907.557	17988
907.674	17973
907.79	17851
907.907	17988
908.023	18007
908.139	17988
908.256	17965
908.372	17798
908.488	17817
908.604	17828
908.72	17604
908.836	17653
908.952	17771
909.068	17627
909.184	17901
909.3	17794
909.415	17718
909.531	17714
909.647	17349
909.762	17356
909.878	17459
909.993	17368
910.108	17330
910.224	17326
910.339	17387
910.454	17345
910.57	17334
910.685	17136
910.8	17280
910.915	17296
911.03	17299
911.145	17064
911.259	16953
911.374	16972
911.489	16953
911.604	16908
911.718	16771
911.833	16691
911.947	16736
912.062	16558
912.176	16752
912.291	16854
912.405	16698
912.519	16881
912.633	16919
912.748	16881
912.862	16611
912.976	16656
913.09	16382
913.204	16535
913.318	16504
913.431	16653
913.545	16584
913.659	16649
913.772	16459
913.886	16371
914	16280
914.113	16405
914.226	16402
914.34	16390
914.453	16120
914.566	16341
914.68	16139
914.793	16226
914.906	15937
915.019	15888
915.132	15873
915.245	15899
915.358	15979
915.47	15816
915.583	15797
915.696	15854
915.809	16074
915.921	15953
916.034	15857
916.146	15701
916.259	15701
916.371	15918
916.483	15747
916.595	15808
916.708	15724
916.82	15785
916.932	15549
917.044	15656
917.156	15599
917.268	15557
917.38	15599
917.491	15519
917.603	15504
917.715	15652
917.826	15576
917.938	15523
918.049	15291
918.161	15450
918.272	15549
918.384	15488
918.495	15515
918.606	15329
918.717	15207
918.828	15294
918.939	15344
919.05	15214
919.161	15188
919.272	15005
919.383	15123
919.494	15195
919.604	15504
919.715	15241
919.826	14998
919.936	15214
920.047	15302
920.157	15260
920.267	15386
920.378	15279
920.488	15157
920.598	15397
920.708	15515
920.818	15397
920.928	15363
921.038	15564
921.148	15481
921.258	15188
921.368	15058
921.477	14895
921.587	14872
921.697	14891
921.806	14963
921.916	14819
922.025	14644
922.134	14644
922.244	14636
922.353	14533
922.462	14427
922.571	14313
922.68	14248
922.789	14183
922.898	14294
923.007	14142
923.116	14259
923.224	14248
923.333	14130
923.442	13951
923.55	14016
923.659	14092
923.767	14096
923.876	13868
923.984	14012
924.092	13890
924.201	14001
924.309	14016
924.417	13928
924.525	13921
924.633	13868
924.741	14826
924.849	13731
924.956	13757
925.064	13571
925.172	13548
925.279	13544
925.387	13643
925.494	13548
925.602	13738
925.709	13499
925.816	13476
925.924	13457
926.031	13609
926.138	13575
926.245	13632
926.352	13400
926.459	13529
926.566	13552
926.673	13407
926.779	13354
926.886	13335
926.993	13236
927.099	13179
927.206	13095
927.312	13042
927.419	13164
927.525	13149
927.631	13149
927.737	13012
927.843	13114
927.95	12795
928.056	12909
928.162	12947
928.267	12958
928.373	13559
928.479	13027
928.585	12719
928.69	12806
928.796	12924
928.901	12825
929.007	12711
929.112	12871
929.218	12692
929.323	12688
929.428	12582
929.533	12745
929.638	12574
929.743	12635
929.848	12658
929.953	12627
930.058	12521
930.163	12338
930.267	12372
930.372	12441
930.477	12251
930.581	12490
930.685	12414
930.79	12167
930.894	12243
930.998	12292
931.103	12296
931.207	12015
931.311	11882
931.415	11840
931.519	11524
931.623	11596
