Data from test_V78500241_1840.txt Node
Date: Fri Mar 25 15:54:32 CST 2022
User: usil
Spectrometer: V785-0024
Trigger mode: 0
Integration Time (sec): 4.000000E-1
Scans to average: 1
Nonlinearity correction enabled: false
Boxcar width: 0
Storing dark spectrum: false
XAxis mode: Wavelengths
Number of Pixels in Spectrum: 1024
>>>>>Begin Spectral Data<<<<<
801.071	28379
801.214	28386
801.356	28109
801.499	28082
801.641	27899
801.783	27994
801.926	28063
802.068	27914
802.211	27918
802.353	27903
802.496	27838
802.638	27618
802.78	27622
802.923	27606
803.065	27599
803.208	27583
803.35	27648
803.492	28013
803.635	27766
803.777	27804
803.919	27949
804.061	28234
804.204	27964
804.346	27819
804.488	27781
804.63	27937
804.773	27823
804.915	27979
805.057	28021
805.199	27991
805.341	27991
805.483	28131
805.626	28025
805.768	27991
805.91	28150
806.052	28230
806.194	27975
806.336	28150
806.478	28063
806.62	28006
806.762	28265
806.904	28360
807.046	28603
807.188	28382
807.33	28504
807.472	28493
807.614	28516
807.756	28440
807.898	28249
808.04	28226
808.182	28360
808.324	28421
808.465	28432
808.607	28557
808.749	28782
808.891	28820
809.033	28911
809.174	28908
809.316	28820
809.458	28717
809.6	28755
809.741	28683
809.883	28797
810.025	29162
810.166	29003
810.308	29056
810.45	29067
810.591	28911
810.733	28622
810.875	28683
811.016	28653
811.158	28531
811.299	28862
811.441	28908
811.582	28938
811.724	28824
811.865	28668
812.007	28603
812.148	28805
812.29	28805
812.431	28866
812.573	29071
812.714	29052
812.855	29170
812.997	29353
813.138	29490
813.279	29322
813.421	29269
813.562	29170
813.703	29037
813.845	28949
813.986	28694
814.127	28675
814.268	28352
814.41	28481
814.551	28443
814.692	28485
814.833	28333
814.974	28424
815.115	28447
815.256	28226
815.397	28367
815.539	28344
815.68	28158
815.821	28223
815.962	28371
816.103	28268
816.244	28211
816.385	27876
816.526	28067
816.666	27739
816.807	27694
816.948	27895
817.089	27857
817.23	27633
817.371	27797
817.512	27747
817.653	27671
817.793	27648
817.934	27564
818.075	27781
818.216	27759
818.356	27633
818.497	27462
818.638	27412
818.778	27408
818.919	27462
819.06	27538
819.2	27485
819.341	27789
819.481	27713
819.622	27899
819.762	28109
819.903	27930
820.043	27911
820.184	27831
820.324	27922
820.465	27842
820.605	27937
820.746	27972
820.886	27660
821.026	27816
821.167	27892
821.307	27774
821.447	27842
821.588	27709
821.728	27542
821.868	27378
822.008	27260
822.149	27055
822.289	27195
822.429	26998
822.569	26857
822.709	26998
822.849	26739
822.99	26804
823.13	26853
823.27	26587
823.41	26518
823.55	26408
823.69	26461
823.83	26526
823.97	26450
824.11	26343
824.25	26199
824.389	26336
824.529	26450
824.669	26366
824.809	26541
824.949	26484
825.089	26408
825.228	26473
825.368	26263
825.508	26145
825.648	26240
825.787	26438
825.927	26366
826.067	26199
826.206	26199
826.346	26256
826.485	26298
826.625	26145
826.765	26355
826.904	26214
827.044	26164
827.183	26050
827.323	25788
827.462	25932
827.601	25902
827.741	25902
827.88	25989
828.02	25856
828.159	25822
828.298	26130
828.437	25909
828.577	25845
828.716	26031
828.855	25868
828.994	25578
829.134	25586
829.273	25712
829.412	25666
829.551	25464
829.69	25529
829.829	25620
829.968	25727
830.107	25624
830.246	25586
830.385	25605
830.524	25483
830.663	25438
830.802	25373
830.941	25343
831.08	25213
831.219	25331
831.357	25285
831.496	25434
831.635	25099
831.774	25057
831.913	25118
832.051	25072
832.19	25061
832.329	25091
832.467	25027
832.606	24825
832.744	24951
832.883	24909
833.022	24852
833.16	24852
833.299	25015
833.437	24954
833.576	24935
833.714	24981
833.852	25103
833.991	24966
834.129	24992
834.267	24939
834.406	24913
834.544	24928
834.682	25076
834.821	25027
834.959	25156
835.097	24825
835.235	24939
835.373	24852
835.511	24935
835.65	24730
835.788	24833
835.926	24604
836.064	24658
836.202	24764
836.34	24730
836.478	24825
836.615	24650
836.753	24810
836.891	24882
837.029	24787
837.167	24821
837.305	24749
837.443	24551
837.58	24639
837.718	24692
837.856	24821
837.993	24585
838.131	24665
838.269	24650
838.406	24410
838.544	24353
838.681	24311
838.819	24273
838.956	24163
839.094	24136
839.231	24174
839.369	24251
839.506	24361
839.643	24342
839.781	24251
839.918	23942
840.055	24045
840.193	24091
840.33	24045
840.467	24140
840.604	24057
840.742	24197
840.879	23901
841.016	23988
841.153	23927
841.29	24060
841.427	23931
841.564	24022
841.701	24034
841.838	24038
841.975	23832
842.112	23912
842.249	23729
842.385	23764
842.522	24091
842.659	23851
842.796	23767
842.933	23764
843.069	23695
843.206	23570
843.343	23809
843.479	23707
843.616	23771
843.752	23547
843.889	23722
844.025	23726
844.162	23535
844.298	23718
844.435	23551
844.571	23467
844.708	23433
844.844	23680
844.98	23611
845.117	23680
845.253	23410
845.389	23436
845.525	23581
845.661	23471
845.798	23223
845.934	23398
846.07	23265
846.206	23299
846.342	23372
846.478	23250
846.614	23025
846.75	22991
846.886	23155
847.022	23147
847.158	22987
847.294	23067
847.429	23014
847.565	22965
847.701	23200
847.837	22748
847.972	22645
848.108	22828
848.244	22618
848.379	22656
848.515	22481
848.65	22565
848.786	22607
848.921	22607
849.057	22691
849.192	22733
849.328	22538
849.463	22664
849.598	22580
849.734	22382
849.869	22485
850.004	22428
850.14	22322
850.275	22246
850.41	22261
850.545	22253
850.68	22314
850.815	22379
850.95	22226
851.085	22542
851.22	22421
851.355	22318
851.49	22379
851.625	22337
851.76	22219
851.895	22261
852.03	22371
852.165	22253
852.299	22390
852.434	22443
852.569	22375
852.703	22284
852.838	22466
852.973	22363
853.107	22443
853.242	22299
853.376	22158
853.511	22086
853.645	22173
853.78	22344
853.914	22143
854.048	22131
854.183	22109
854.317	22265
854.451	22314
854.585	22238
854.72	22139
854.854	22207
854.988	22029
855.122	22162
855.256	22070
855.39	22109
855.524	22249
855.658	22162
855.792	22185
855.926	22207
856.06	22265
856.194	22230
856.327	22215
856.461	22063
856.595	22086
856.729	22242
856.862	22200
856.996	22143
857.13	22280
857.263	22257
857.397	22207
857.53	22116
857.664	22246
857.797	22249
857.931	22329
858.064	22120
858.197	22181
858.331	22166
858.464	22131
858.597	22032
858.731	22120
858.864	22131
858.997	22090
859.13	22147
859.263	22135
859.396	22306
859.529	22090
859.662	22124
859.795	22093
859.928	22055
860.061	22352
860.194	22325
860.327	22211
860.46	22124
860.592	22284
860.725	22295
860.858	22360
860.99	22124
861.123	22135
861.256	22048
861.388	22268
861.521	22824
861.653	22067
861.786	21953
861.918	22025
862.05	22032
862.183	22086
862.315	22074
862.447	22112
862.58	22013
862.712	21968
862.844	21812
862.976	21991
863.108	22021
863.24	22257
863.372	21827
863.504	21819
863.636	21915
863.768	21918
863.9	21812
864.032	21755
864.164	21850
864.296	21819
864.428	21956
864.559	21869
864.691	22044
864.823	21884
864.954	21930
865.086	21660
865.217	21732
865.349	21629
865.48	21857
865.612	21766
865.743	21880
865.875	21831
866.006	21812
866.137	21724
866.269	21759
866.4	21682
866.531	21576
866.662	21637
866.793	21603
866.924	21686
867.055	21732
867.186	21804
867.317	21564
867.448	21603
867.579	21637
867.71	21526
867.841	21625
867.972	21717
868.103	21644
868.233	21751
868.364	21751
868.495	21812
868.625	21899
868.756	22006
868.886	21800
869.017	21869
869.147	21956
869.278	21945
869.408	21816
869.539	21861
869.669	22002
869.799	21975
869.929	22021
870.06	22013
870.19	22223
870.32	22226
870.45	22291
870.58	22306
870.71	22299
870.84	22322
870.97	22325
871.1	22325
871.23	22557
871.36	22580
871.489	22398
871.619	22428
871.749	22485
871.879	22512
872.008	22618
872.138	22675
872.267	22436
872.397	22443
872.526	22367
872.656	22306
872.785	22299
872.915	22542
873.044	22702
873.173	22649
873.303	22557
873.432	22630
873.561	22538
873.69	22478
873.819	22466
873.948	22531
874.077	22478
874.206	22413
874.335	22459
874.464	22611
874.593	22733
874.722	22771
874.851	22835
874.979	22706
875.108	22793
875.237	22683
875.365	22577
875.494	22752
875.623	22854
875.751	22702
875.88	22721
876.008	22904
876.136	22911
876.265	23109
876.393	23353
876.521	23303
876.65	23174
876.778	23151
876.906	23067
877.034	22889
877.162	23136
877.29	22972
877.418	22972
877.546	23227
877.674	23113
877.802	22968
877.93	23052
878.058	23204
878.185	22953
878.313	23079
878.441	23067
878.568	22949
878.696	22965
878.824	23189
878.951	23204
879.079	23212
879.206	23337
879.333	23242
879.461	23128
879.588	23356
879.715	23261
879.842	23436
879.97	23140
880.097	22965
880.224	22892
880.351	22919
880.478	22930
880.605	22843
880.732	22885
880.859	23147
880.986	22961
881.112	22892
881.239	22782
881.366	22687
881.493	22664
881.619	22607
881.746	22489
881.872	22504
881.999	22413
882.125	22481
882.252	22405
882.378	22436
882.505	22542
882.631	22284
882.757	22124
882.883	22143
883.01	22200
883.136	22048
883.262	22013
883.388	22067
883.514	22090
883.64	22162
883.766	22090
883.892	21884
884.018	22040
884.143	22158
884.269	22226
884.395	21857
884.52	21705
884.646	21770
884.772	21694
884.897	21705
885.023	21823
885.148	21972
885.274	21964
885.399	21998
885.524	21732
885.65	21865
885.775	21644
885.9	21819
886.025	21808
886.15	21873
886.275	21770
886.4	21675
886.525	21698
886.65	21804
886.775	21728
886.9	21922
887.025	21895
887.149	21728
887.274	21583
887.399	21428
887.523	21473
887.648	21561
887.773	21447
887.897	21690
888.021	21435
888.146	21466
888.27	21572
888.395	21515
888.519	21580
888.643	21492
888.767	21580
888.891	21462
889.015	21378
889.139	21462
889.263	21302
889.387	21496
889.511	21549
889.635	21416
889.759	21408
889.883	21374
890.006	21443
890.13	21481
890.254	21249
890.377	21287
890.501	21142
890.624	21070
890.748	21070
890.871	21085
890.995	21047
891.118	20743
891.241	20887
891.364	20838
891.488	21013
891.611	20895
891.734	20792
891.857	21017
891.98	20899
892.103	20967
892.226	20895
892.349	20876
892.471	20609
892.594	20842
892.717	20823
892.839	20754
892.962	20754
893.085	20796
893.207	20933
893.33	20720
893.452	20754
893.575	20842
893.697	20697
893.819	20948
893.941	21093
894.064	20910
894.186	20727
894.308	20655
894.43	20933
894.552	20929
894.674	20819
894.796	20670
894.918	20708
895.04	20804
895.161	20925
895.283	20823
895.405	20674
895.526	20902
895.648	20880
895.769	20834
895.891	20773
896.012	20876
896.134	20807
896.255	20807
896.376	20876
896.498	20788
896.619	20853
896.74	20868
896.861	20796
896.982	21116
897.103	21184
897.224	21131
897.345	21096
897.466	21024
897.587	21024
897.708	21119
897.828	21096
897.949	20982
898.07	20963
898.19	20960
898.311	21127
898.431	20887
898.552	20967
898.672	21089
898.792	21123
898.913	20956
899.033	20941
899.153	20842
899.273	20716
899.393	20781
899.513	20785
899.633	20815
899.753	20861
899.873	20613
899.993	20777
900.113	20659
900.232	20769
900.352	20583
900.472	20590
900.591	20484
900.711	20507
900.83	20450
900.95	20552
901.069	20552
901.189	20473
901.308	20271
901.427	20058
901.546	20126
901.665	20172
901.784	20050
901.904	19921
902.023	19890
902.141	19700
902.26	19635
902.379	19662
902.498	19529
902.617	19525
902.735	19685
902.854	19696
902.973	19571
903.091	19373
903.21	19339
903.328	19255
903.446	19053
903.565	19148
903.683	19099
903.801	18916
903.919	19084
904.038	19095
904.156	18833
904.274	18916
904.392	18871
904.51	18707
904.627	18760
904.745	18897
904.863	18863
904.981	18719
905.098	18547
905.216	18536
905.334	18582
905.451	18410
905.569	18372
905.686	18460
905.803	18616
905.921	18357
906.038	18502
906.155	18350
906.272	18182
906.389	18254
906.506	18076
906.623	18091
906.74	18007
906.857	17870
906.974	17946
907.091	18144
907.208	18247
907.324	18045
907.441	17882
907.557	17840
907.674	17741
907.79	17699
907.907	17611
908.023	17745
908.139	17653
908.256	17722
908.372	17585
908.488	17516
908.604	17490
908.72	17436
908.836	17455
908.952	17478
909.068	17524
909.184	17467
909.3	17482
909.415	17414
909.531	17452
909.647	17185
909.762	17223
909.878	17269
909.993	17223
910.108	17162
910.224	17121
910.339	17098
910.454	17006
910.57	16938
910.685	16862
910.8	17143
910.915	16953
911.03	16961
911.145	16793
911.259	16721
911.374	16694
911.489	16660
911.604	16622
911.718	16569
911.833	16394
911.947	16417
912.062	16455
912.176	16485
912.291	16440
912.405	16466
912.519	16675
912.633	16717
912.748	16440
912.862	16466
912.976	16310
913.09	16128
913.204	16276
913.318	16242
913.431	16356
913.545	16337
913.659	16489
913.772	16173
913.886	16048
914	16021
914.113	16188
914.226	16196
914.34	16246
914.453	15968
914.566	16017
914.68	15876
914.793	15899
914.906	15778
915.019	15660
915.132	15610
915.245	15561
915.358	15614
915.47	15663
915.583	15641
915.696	15625
915.809	15854
915.921	15774
916.034	15641
916.146	15652
916.259	15393
916.371	15694
916.483	15507
916.595	15511
916.708	15526
916.82	15504
916.932	15397
917.044	15431
917.156	15348
917.268	15268
917.38	15336
917.491	15336
917.603	15374
917.715	15367
917.826	15370
917.938	15237
918.049	15104
918.161	15317
918.272	15389
918.384	15367
918.495	15154
918.606	15074
918.717	14998
918.828	15097
918.939	15074
919.05	14864
919.161	15142
919.272	14777
919.383	14937
919.494	14979
919.604	15317
919.715	15009
919.826	14925
919.936	14998
920.047	15005
920.157	15047
920.267	15176
920.378	14990
920.488	14990
920.598	15207
920.708	15298
920.818	15127
920.928	15085
921.038	15294
921.148	15222
921.258	14876
921.368	14868
921.477	14785
921.587	14701
921.697	14514
921.806	14705
921.916	14629
922.025	14366
922.134	14415
922.244	14309
922.353	14412
922.462	14149
922.571	14123
922.68	14016
922.789	13967
922.898	14084
923.007	13940
923.116	14119
923.224	14024
923.333	13944
923.442	13818
923.55	13860
923.659	13890
923.767	13906
923.876	13765
923.984	13818
924.092	13849
924.201	13852
924.309	13791
924.417	13719
924.525	13693
924.633	13677
924.741	14377
924.849	13464
924.956	13609
925.064	13457
925.172	13331
925.279	13358
925.387	13453
925.494	13403
925.602	13487
925.709	13422
925.816	13263
925.924	13441
926.031	13426
926.138	13247
926.245	13396
926.352	13202
926.459	13400
926.566	13388
926.673	13270
926.779	13202
926.886	13137
926.993	13084
927.099	13015
927.206	12913
927.312	12913
927.419	12970
927.525	13023
927.631	12951
927.737	12871
927.843	12875
927.95	12677
928.056	12764
928.162	12833
928.267	12764
928.373	13377
928.479	12833
928.585	12593
928.69	12711
928.796	12749
928.901	12612
929.007	12433
929.112	12544
929.218	12448
929.323	12502
929.428	12407
929.533	12540
929.638	12342
929.743	12391
929.848	12471
929.953	12395
930.058	12319
930.163	12144
930.267	12114
930.372	12262
930.477	12072
930.581	12292
930.685	12213
930.79	12144
930.894	12022
930.998	12022
931.103	12152
931.207	11748
931.311	11779
931.415	11688
931.519	11376
931.623	11463
