Data from test_V78500241_2128.txt Node
Date: Fri Mar 25 15:56:32 CST 2022
User: usil
Spectrometer: V785-0024
Trigger mode: 0
Integration Time (sec): 4.000000E-1
Scans to average: 1
Nonlinearity correction enabled: false
Boxcar width: 0
Storing dark spectrum: false
XAxis mode: Wavelengths
Number of Pixels in Spectrum: 1024
>>>>>Begin Spectral Data<<<<<
801.071	28976
801.214	28942
801.356	28710
801.499	28596
801.641	28538
801.783	28527
801.926	28668
802.068	28649
802.211	28611
802.353	28497
802.496	28421
802.638	28363
802.78	28341
802.923	28150
803.065	28105
803.208	28310
803.35	28322
803.492	28462
803.635	28542
803.777	28504
803.919	28679
804.061	28729
804.204	28645
804.346	28519
804.488	28459
804.63	28535
804.773	28535
804.915	28603
805.057	28733
805.199	28607
805.341	28630
805.483	28786
805.626	28664
805.768	28672
805.91	28778
806.052	28816
806.194	28615
806.336	28896
806.478	28733
806.62	28812
806.762	28702
806.904	28980
807.046	29322
807.188	29159
807.33	29216
807.472	29185
807.614	29140
807.756	29155
807.898	29090
808.04	28999
808.182	28991
808.324	29098
808.465	29113
808.607	29326
808.749	29471
808.891	29531
809.033	29528
809.174	29577
809.316	29360
809.458	29471
809.6	29337
809.741	29604
809.883	29566
810.025	29707
810.166	29733
810.308	29878
810.45	29699
810.591	29619
810.733	29444
810.875	29315
811.016	29330
811.158	29417
811.299	29668
811.441	29566
811.582	29657
811.724	29455
811.865	29528
812.007	29364
812.148	29501
812.29	29455
812.431	29737
812.573	29832
812.714	29969
812.855	30072
812.997	30053
813.138	30224
813.279	30171
813.421	29996
813.562	29836
813.703	29783
813.845	29703
813.986	29436
814.127	29174
814.268	29159
814.41	29204
814.551	29105
814.692	29216
814.833	29056
814.974	29174
815.115	29189
815.256	29014
815.397	29170
815.539	28938
815.68	29014
815.821	28843
815.962	28972
816.103	28900
816.244	28908
816.385	28736
816.526	28725
816.666	28706
816.807	28394
816.948	28569
817.089	28554
817.23	28561
817.371	28531
817.512	28512
817.653	28455
817.793	28436
817.934	28447
818.075	28493
818.216	28584
818.356	28569
818.497	28459
818.638	28223
818.778	28386
818.919	28306
819.06	28303
819.2	28447
819.341	28615
819.481	28417
819.622	28687
819.762	28881
819.903	28778
820.043	28675
820.184	28649
820.324	28675
820.465	28668
820.605	28588
820.746	28763
820.886	28557
821.026	28615
821.167	28691
821.307	28508
821.447	28634
821.588	28382
821.728	28314
821.868	28177
822.008	27922
822.149	28147
822.289	27934
822.429	27686
822.569	27481
822.709	27701
822.849	27435
822.99	27488
823.13	27500
823.27	27424
823.41	27313
823.55	27275
823.69	27374
823.83	27401
823.97	27298
824.11	27188
824.25	27074
824.389	27226
824.529	27207
824.669	27195
824.809	27294
824.949	27203
825.089	27222
825.228	27096
825.368	27009
825.508	27039
825.648	27036
825.787	27074
825.927	26982
826.067	26998
826.206	26998
826.346	27085
826.485	27203
826.625	27150
826.765	27108
826.904	26956
827.044	26861
827.183	26895
827.323	26716
827.462	26826
827.601	26804
827.741	26834
827.88	26716
828.02	26564
828.159	26686
828.298	26708
828.437	26731
828.577	26708
828.716	26845
828.855	26590
828.994	26457
829.134	26412
829.273	26400
829.412	26434
829.551	26396
829.69	26275
829.829	26446
829.968	26473
830.107	26568
830.246	26511
830.385	26294
830.524	26320
830.663	26259
830.802	26172
830.941	26016
831.08	25978
831.219	26138
831.357	26031
831.496	26275
831.635	26001
831.774	25997
831.913	25947
832.051	25822
832.19	25799
832.329	25890
832.467	25750
832.606	25613
832.744	25658
832.883	25655
833.022	25685
833.16	25738
833.299	25738
833.437	25689
833.576	25738
833.714	25818
833.852	25788
833.991	25712
834.129	25830
834.267	25830
834.406	25750
834.544	25788
834.682	25734
834.821	25734
834.959	25902
835.097	25670
835.235	25791
835.373	25860
835.511	25803
835.65	25544
835.788	25590
835.926	25346
836.064	25403
836.202	25559
836.34	25647
836.478	25647
836.615	25651
836.753	25708
836.891	25609
837.029	25670
837.167	25499
837.305	25392
837.443	25426
837.58	25419
837.718	25571
837.856	25460
837.993	25354
838.131	25407
838.269	25255
838.406	25259
838.544	25278
838.681	25118
838.819	25118
838.956	24844
839.094	24947
839.231	24928
839.369	25057
839.506	25251
839.643	25126
839.781	24821
839.918	24768
840.055	24821
840.193	24783
840.33	24802
840.467	24939
840.604	24878
840.742	25042
840.879	24677
841.016	24669
841.153	24582
841.29	24859
841.427	24741
841.564	24772
841.701	24749
841.838	24597
841.975	24768
842.112	24696
842.249	24589
842.385	24479
842.522	24852
842.659	24681
842.796	24517
842.933	24467
843.069	24521
843.206	24498
843.343	24505
843.479	24555
843.616	24479
843.752	24224
843.889	24197
844.025	24376
844.162	24258
844.298	24467
844.435	24304
844.571	24205
844.708	24296
844.844	24372
844.98	24494
845.117	24391
845.253	24270
845.389	24194
845.525	24304
845.661	24239
845.798	24060
845.934	24038
846.07	24106
846.206	24038
846.342	24102
846.478	24003
846.614	23828
846.75	23687
846.886	23767
847.022	23847
847.158	23813
847.294	23733
847.429	23596
847.565	23699
847.701	23878
847.837	23444
847.972	23414
848.108	23520
848.244	23486
848.379	23433
848.515	23284
848.65	23299
848.786	23402
848.921	23261
849.057	23395
849.192	23516
849.328	23185
849.463	23364
849.598	23311
849.734	23220
849.869	23151
850.004	23083
850.14	23170
850.275	23102
850.41	23109
850.545	23197
850.68	23056
850.815	23056
850.95	23006
851.085	23337
851.22	23296
851.355	23189
851.49	22987
851.625	23064
851.76	23029
851.895	23056
852.03	22976
852.165	23071
852.299	23079
852.434	23265
852.569	23193
852.703	23155
852.838	23136
852.973	23231
853.107	23193
853.242	22961
853.376	22850
853.511	22721
853.645	22911
853.78	23140
853.914	22911
854.048	22976
854.183	22896
854.317	22885
854.451	23105
854.585	23056
854.72	22900
854.854	22972
854.988	22744
855.122	22904
855.256	22877
855.39	22755
855.524	23010
855.658	22934
855.792	23033
855.926	22854
856.06	22927
856.194	23067
856.327	22881
856.461	22721
856.595	22850
856.729	22889
856.862	22972
856.996	22869
857.13	23071
857.263	23064
857.397	22934
857.53	22854
857.664	22987
857.797	22900
857.931	23048
858.064	22911
858.197	22896
858.331	22850
858.464	22892
858.597	22820
858.731	22934
858.864	22896
858.997	22881
859.13	22923
859.263	22946
859.396	22942
859.529	22767
859.662	22885
859.795	22816
859.928	22873
860.061	23105
860.194	23174
860.327	22942
860.46	22866
860.592	23003
860.725	23029
860.858	23003
860.99	22809
861.123	22889
861.256	22919
861.388	22919
861.521	23615
861.653	22843
861.786	22656
861.918	22713
862.05	22774
862.183	22801
862.315	22896
862.447	22854
862.58	22919
862.712	22744
862.844	22538
862.976	22679
863.108	22683
863.24	23022
863.372	22649
863.504	22592
863.636	22630
863.768	22634
863.9	22634
864.032	22557
864.164	22459
864.296	22694
864.428	22694
864.559	22675
864.691	22668
864.823	22630
864.954	22580
865.086	22626
865.217	22466
865.349	22436
865.48	22462
865.612	22447
865.743	22603
865.875	22413
866.006	22424
866.137	22466
866.269	22481
866.4	22481
866.531	22512
866.662	22341
866.793	22348
866.924	22356
867.055	22497
867.186	22447
867.317	22382
867.448	22310
867.579	22462
867.71	22314
867.841	22272
867.972	22394
868.103	22356
868.233	22413
868.364	22538
868.495	22508
868.625	22675
868.756	22824
868.886	22561
869.017	22691
869.147	22809
869.278	22675
869.408	22683
869.539	22554
869.669	22831
869.799	22649
869.929	22843
870.06	22812
870.19	23033
870.32	22984
870.45	23064
870.58	23037
870.71	23098
870.84	23109
870.97	23037
871.1	23056
871.23	23273
871.36	23280
871.489	23041
871.619	23277
871.749	23433
871.879	23200
872.008	23345
872.138	23254
872.267	23383
872.397	23079
872.526	23166
872.656	23025
872.785	23098
872.915	23288
873.044	23315
873.173	23280
873.303	23284
873.432	23299
873.561	23463
873.69	23292
873.819	23178
873.948	23433
874.077	23349
874.206	23121
874.335	23296
874.464	23433
874.593	23535
874.722	23379
874.851	23566
874.979	23539
875.108	23642
875.237	23395
875.365	23360
875.494	23360
875.623	23577
875.751	23429
875.88	23531
876.008	23471
876.136	23710
876.265	23832
876.393	23931
876.521	23885
876.65	23847
876.778	23904
876.906	23767
877.034	23832
877.162	23836
877.29	23680
877.418	23851
877.546	23805
877.674	23863
877.802	23695
877.93	23802
878.058	23847
878.185	23771
878.313	23760
878.441	23779
878.568	23779
878.696	23748
878.824	23897
878.951	23961
879.079	23992
879.206	23980
879.333	23992
879.461	23821
879.588	23984
879.715	24003
879.842	23954
879.97	23843
880.097	23649
880.224	23566
880.351	23668
880.478	23684
880.605	23547
880.732	23627
880.859	23836
880.986	23657
881.112	23657
881.239	23493
881.366	23421
881.493	23303
881.619	23292
881.746	23151
881.872	23136
881.999	23147
882.125	23060
882.252	23083
882.378	23132
882.505	23128
882.631	23151
882.757	22904
882.883	22927
883.01	22961
883.136	22801
883.262	22672
883.388	22698
883.514	22854
883.64	22938
883.766	22691
883.892	22698
884.018	22694
884.143	22774
884.269	22828
884.395	22554
884.52	22367
884.646	22611
884.772	22360
884.897	22375
885.023	22455
885.148	22512
885.274	22588
885.399	22565
885.524	22497
885.65	22432
885.775	22428
885.9	22432
886.025	22478
886.15	22569
886.275	22474
886.4	22360
886.525	22432
886.65	22470
886.775	22375
886.9	22546
887.025	22660
887.149	22382
887.274	22367
887.399	22207
887.523	22272
887.648	22246
887.773	22177
887.897	22322
888.021	22253
888.146	22109
888.27	22413
888.395	22352
888.519	22223
888.643	22344
888.767	22280
888.891	22166
889.015	21983
889.139	21972
889.263	21945
889.387	21987
889.511	22428
889.635	22150
889.759	22040
889.883	22010
890.006	22051
890.13	22090
890.254	21903
890.377	21972
890.501	21846
890.624	21747
890.748	21819
890.871	21675
890.995	21542
891.118	21580
891.241	21485
891.364	21534
891.488	21743
891.611	21591
891.734	21481
891.857	21656
891.98	21488
892.103	21641
892.226	21595
892.349	21496
892.471	21389
892.594	21496
892.717	21485
892.839	21420
892.962	21348
893.085	21568
893.207	21481
893.33	21275
893.452	21237
893.575	21595
893.697	21367
893.819	21629
893.941	21557
894.064	21564
894.186	21386
894.308	21294
894.43	21454
894.552	21580
894.674	21553
894.796	21283
894.918	21424
895.04	21500
895.161	21416
895.283	21313
895.405	21260
895.526	21443
895.648	21351
895.769	21469
895.891	21348
896.012	21481
896.134	21523
896.255	21450
896.376	21355
896.498	21428
896.619	21302
896.74	21420
896.861	21545
896.982	21690
897.103	21774
897.224	21728
897.345	21568
897.466	21538
897.587	21614
897.708	21865
897.828	21656
897.949	21477
898.07	21313
898.19	21477
898.311	21793
898.431	21587
898.552	21496
898.672	21614
898.792	21625
898.913	21580
899.033	21500
899.153	21363
899.273	21310
899.393	21370
899.513	21252
899.633	21275
899.753	21507
899.873	21218
899.993	21348
900.113	21176
900.232	21359
900.352	21272
900.472	21233
900.591	21032
900.711	21104
900.83	20937
900.95	21169
901.069	21001
901.189	21047
901.308	20807
901.427	20632
901.546	20697
901.665	20674
901.784	20552
901.904	20476
902.023	20415
902.141	20275
902.26	20142
902.379	20301
902.498	20130
902.617	20092
902.735	20240
902.854	20134
902.973	20180
903.091	19902
903.21	19902
903.328	19830
903.446	19776
903.565	19651
903.683	19628
903.801	19407
903.919	19548
904.038	19613
904.156	19419
904.274	19434
904.392	19434
904.51	19384
904.627	19369
904.745	19335
904.863	19422
904.981	19126
905.098	19179
905.216	19236
905.334	19004
905.451	19069
905.569	18924
905.686	18977
905.803	19061
905.921	18768
906.038	18943
906.155	18894
906.272	18700
906.389	18715
906.506	18559
906.623	18563
906.74	18585
906.857	18456
906.974	18418
907.091	18642
907.208	18631
907.324	18517
907.441	18464
907.557	18266
907.674	18216
907.79	18243
907.907	18304
908.023	18270
908.139	18182
908.256	18213
908.372	18079
908.488	18045
908.604	17977
908.72	18015
908.836	18045
908.952	17904
909.068	18019
909.184	18057
909.3	17863
909.415	17961
909.531	17954
909.647	17699
909.762	17615
909.878	17691
909.993	17661
910.108	17619
910.224	17592
910.339	17608
910.454	17551
910.57	17448
910.685	17402
910.8	17668
910.915	17611
911.03	17448
911.145	17284
911.259	17181
911.374	17124
911.489	17098
911.604	17018
911.718	16881
911.833	16911
911.947	16885
912.062	16702
912.176	16968
912.291	16946
912.405	16972
912.519	17231
912.633	17197
912.748	16946
912.862	16961
912.976	16911
913.09	16615
913.204	16748
913.318	16793
913.431	16835
913.545	16809
913.659	16828
913.772	16721
913.886	16596
914	16504
914.113	16603
914.226	16702
914.34	16584
914.453	16504
914.566	16588
914.68	16432
914.793	16424
914.906	16291
915.019	16032
915.132	16268
915.245	16261
915.358	16090
915.47	16101
915.583	16097
915.696	16169
915.809	16329
915.921	16177
916.034	16071
916.146	15930
916.259	16017
916.371	16105
916.483	15994
916.595	16071
916.708	15937
916.82	15972
916.932	15861
917.044	15819
917.156	15876
917.268	15766
917.38	15785
917.491	15690
917.603	15679
917.715	15808
917.826	15759
917.938	15679
918.049	15618
918.161	15705
918.272	15720
918.384	15827
918.495	15614
918.606	15485
918.717	15363
918.828	15454
918.939	15488
919.05	15393
919.161	15420
919.272	15268
919.383	15351
919.494	15462
919.604	15618
919.715	15397
919.826	15363
919.936	15504
920.047	15488
920.157	15393
920.267	15743
920.378	15469
920.488	15477
920.598	15679
920.708	15679
920.818	15549
920.928	15629
921.038	15785
921.148	15629
921.258	15359
921.368	15321
921.477	15272
921.587	15116
921.697	15062
921.806	15161
921.916	15081
922.025	14868
922.134	14743
922.244	14701
922.353	14887
922.462	14689
922.571	14533
922.68	14396
922.789	14366
922.898	14362
923.007	14385
923.116	14465
923.224	14484
923.333	14438
923.442	14259
923.55	14195
923.659	14233
923.767	14237
923.876	14202
923.984	14317
924.092	14020
924.201	14195
924.309	14149
924.417	14164
924.525	14081
924.633	14084
924.741	14834
924.849	13875
924.956	14016
925.064	13757
925.172	13731
925.279	13780
925.387	13791
925.494	13791
925.602	13849
925.709	13826
925.816	13704
925.924	13731
926.031	13734
926.138	13674
926.245	13685
926.352	13556
926.459	13731
926.566	13738
926.673	13658
926.779	13468
926.886	13601
926.993	13308
927.099	13392
927.206	13327
927.312	13293
927.419	13301
927.525	13312
927.631	13373
927.737	13179
927.843	13183
927.95	13015
928.056	13057
928.162	13072
928.267	13160
928.373	13772
928.479	13171
928.585	13042
928.69	13027
928.796	13118
928.901	12951
929.007	12833
929.112	12973
929.218	12962
929.323	12871
929.428	12795
929.533	12996
929.638	12722
929.743	12688
929.848	12821
929.953	12730
930.058	12650
930.163	12513
930.267	12464
930.372	12741
930.477	12479
930.581	12673
930.685	12547
930.79	12445
930.894	12304
930.998	12380
931.103	12486
931.207	12034
931.311	12057
931.415	11912
931.519	11726
931.623	11718
