Data from test_V78500241_3614.txt Node
Date: Fri Mar 25 16:06:50 CST 2022
User: usil
Spectrometer: V785-0024
Trigger mode: 0
Integration Time (sec): 4.000000E-1
Scans to average: 1
Nonlinearity correction enabled: false
Boxcar width: 0
Storing dark spectrum: false
XAxis mode: Wavelengths
Number of Pixels in Spectrum: 1024
>>>>>Begin Spectral Data<<<<<
801.071	28782
801.214	28683
801.356	28474
801.499	28371
801.641	28367
801.783	28284
801.926	28306
802.068	28371
802.211	28287
802.353	28230
802.496	28032
802.638	28025
802.78	27968
802.923	27907
803.065	27838
803.208	27930
803.35	27922
803.492	28067
803.635	28188
803.777	28124
803.919	28303
804.061	28588
804.204	28261
804.346	28082
804.488	28135
804.63	28188
804.773	28169
804.915	28371
805.057	28379
805.199	28196
805.341	28329
805.483	28447
805.626	28405
805.768	28489
805.91	28295
806.052	28409
806.194	28367
806.336	28611
806.478	28360
806.62	28443
806.762	28561
806.904	28626
807.046	28999
807.188	28881
807.33	28999
807.472	28908
807.614	28793
807.756	28797
807.898	28672
808.04	28546
808.182	28672
808.324	28744
808.465	28603
808.607	28961
808.749	28968
808.891	29239
809.033	29372
809.174	29143
809.316	29159
809.458	29162
809.6	28927
809.741	29056
809.883	29235
810.025	29459
810.166	29440
810.308	29509
810.45	29383
810.591	29254
810.733	29246
810.875	29147
811.016	29151
811.158	29079
811.299	29231
811.441	29326
811.582	29337
811.724	29155
811.865	29140
812.007	29143
812.148	29273
812.29	29212
812.431	29269
812.573	29372
812.714	29566
812.855	29687
812.997	29577
813.138	29923
813.279	29668
813.421	29764
813.562	29703
813.703	29531
813.845	29322
813.986	28892
814.127	28984
814.268	28892
814.41	28866
814.551	28782
814.692	28854
814.833	28877
814.974	28847
815.115	28805
815.256	28691
815.397	28721
815.539	28607
815.68	28596
815.821	28645
815.962	28683
816.103	28694
816.244	28474
816.385	28409
816.526	28424
816.666	28325
816.807	27964
816.948	28276
817.089	28272
817.23	28078
817.371	28226
817.512	28048
817.653	28223
817.793	28154
817.934	28154
818.075	28143
818.216	28082
818.356	28158
818.497	27964
818.638	27804
818.778	28051
818.919	27857
819.06	27964
819.2	28021
819.341	28166
819.481	28162
819.622	28394
819.762	28645
819.903	28474
820.043	28322
820.184	28386
820.324	28394
820.465	28371
820.605	28337
820.746	28169
820.886	28257
821.026	28181
821.167	28101
821.307	28299
821.447	28147
821.588	28086
821.728	28044
821.868	27800
822.008	27675
822.149	27686
822.289	27720
822.429	27443
822.569	27252
822.709	27283
822.849	27093
822.99	27173
823.13	27017
823.27	27055
823.41	26963
823.55	26910
823.69	27001
823.83	26910
823.97	26933
824.11	26781
824.25	26655
824.389	26872
824.529	26975
824.669	26944
824.809	26910
824.949	26918
825.089	26811
825.228	26781
825.368	26670
825.508	26686
825.648	26625
825.787	26739
825.927	26758
826.067	26609
826.206	26632
826.346	26746
826.485	26804
826.625	26693
826.765	26781
826.904	26762
827.044	26518
827.183	26469
827.323	26415
827.462	26412
827.601	26507
827.741	26419
827.88	26400
828.02	26389
828.159	26453
828.298	26423
828.437	26408
828.577	26305
828.716	26442
828.855	26355
828.994	26081
829.134	26107
829.273	26176
829.412	25986
829.551	26005
829.69	26065
829.829	26058
829.968	26233
830.107	26176
830.246	26024
830.385	25974
830.524	26008
830.663	25890
830.802	25799
830.941	25738
831.08	25719
831.219	25765
831.357	25765
831.496	25849
831.635	25628
831.774	25635
831.913	25495
832.051	25521
832.19	25506
832.329	25487
832.467	25251
832.606	25362
832.744	25316
832.883	25434
833.022	25316
833.16	25251
833.299	25529
833.437	25289
833.576	25324
833.714	25415
833.852	25502
833.991	25540
834.129	25460
834.267	25472
834.406	25396
834.544	25438
834.682	25377
834.821	25510
834.959	25605
835.097	25506
835.235	25529
835.373	25464
835.511	25354
835.65	25308
835.788	25244
835.926	25152
836.064	25072
836.202	25122
836.34	25362
836.478	25270
836.615	25293
836.753	25335
836.891	25259
837.029	25198
837.167	25160
837.305	25091
837.443	25088
837.58	24954
837.718	25187
837.856	25110
837.993	25046
838.131	25034
838.269	24798
838.406	24890
838.544	24920
838.681	24623
838.819	24783
838.956	24589
839.094	24658
839.231	24517
839.369	24726
839.506	24886
839.643	24810
839.781	24525
839.918	24544
840.055	24300
840.193	24551
840.33	24311
840.467	24525
840.604	24525
840.742	24802
840.879	24391
841.016	24289
841.153	24342
841.29	24536
841.427	24441
841.564	24486
841.701	24357
841.838	24258
841.975	24395
842.112	24243
842.249	24289
842.385	24102
842.522	24384
842.659	24361
842.796	24155
842.933	24315
843.069	24239
843.206	24068
843.343	24285
843.479	24136
843.616	24220
843.752	24140
843.889	24026
844.025	24034
844.162	24007
844.298	24030
844.435	23954
844.571	24053
844.708	24041
844.844	23996
844.98	24167
845.117	24110
845.253	23828
845.389	23767
845.525	23874
845.661	23901
845.798	23695
845.934	23672
846.07	23752
846.206	23642
846.342	23942
846.478	23707
846.614	23657
846.75	23356
846.886	23474
847.022	23478
847.158	23429
847.294	23318
847.429	23482
847.565	23448
847.701	23729
847.837	23155
847.972	23208
848.108	23204
848.244	23258
848.379	23105
848.515	23003
848.65	23075
848.786	22980
848.921	23075
849.057	23052
849.192	23056
849.328	23025
849.463	23124
849.598	23037
849.734	23067
849.869	22885
850.004	22691
850.14	22812
850.275	22892
850.41	22790
850.545	22786
850.68	22744
850.815	22828
850.95	22774
851.085	23006
851.22	22850
851.355	22816
851.49	22847
851.625	22755
851.76	22733
851.895	22733
852.03	22778
852.165	22774
852.299	22721
852.434	22961
852.569	22637
852.703	22805
852.838	22809
852.973	22908
853.107	22968
853.242	22702
853.376	22660
853.511	22497
853.645	22542
853.78	22664
853.914	22660
854.048	22504
854.183	22557
854.317	22660
854.451	22611
854.585	22588
854.72	22565
854.854	22717
854.988	22580
855.122	22535
855.256	22542
855.39	22538
855.524	22729
855.658	22706
855.792	22668
855.926	22580
856.06	22736
856.194	22660
856.327	22729
856.461	22596
856.595	22550
856.729	22599
856.862	22733
856.996	22603
857.13	22687
857.263	22664
857.397	22797
857.53	22561
857.664	22717
857.797	22721
857.931	22793
858.064	22664
858.197	22649
858.331	22584
858.464	22599
858.597	22542
858.731	22580
858.864	22588
858.997	22637
859.13	22561
859.263	22645
859.396	22694
859.529	22550
859.662	22474
859.795	22516
859.928	22687
860.061	22729
860.194	22786
860.327	22698
860.46	22599
860.592	22816
860.725	22740
860.858	22721
860.99	22584
861.123	22485
861.256	22550
861.388	22523
861.521	23280
861.653	22519
861.786	22394
861.918	22508
862.05	22497
862.183	22569
862.315	22588
862.447	22569
862.58	22462
862.712	22424
862.844	22257
862.976	22322
863.108	22337
863.24	22820
863.372	22249
863.504	22360
863.636	22253
863.768	22295
863.9	22291
864.032	22154
864.164	22284
864.296	22234
864.428	22428
864.559	22432
864.691	22504
864.823	22375
864.954	22386
865.086	22257
865.217	22200
865.349	22143
865.48	22177
865.612	22131
865.743	22276
865.875	22246
866.006	22200
866.137	22211
866.269	22242
866.4	22211
866.531	22143
866.662	22120
866.793	22120
866.924	22086
867.055	22211
867.186	22219
867.317	22070
867.448	21964
867.579	22120
867.71	22002
867.841	22116
867.972	22181
868.103	22109
868.233	22101
868.364	22059
868.495	22128
868.625	22318
868.756	22466
868.886	22447
869.017	22299
869.147	22375
869.278	22356
869.408	22470
869.539	22478
869.669	22428
869.799	22443
869.929	22500
870.06	22519
870.19	22736
870.32	22626
870.45	22736
870.58	22759
870.71	22877
870.84	22778
870.97	22763
871.1	22694
871.23	22869
871.36	22968
871.489	22896
871.619	22862
871.749	22938
871.879	22995
872.008	23029
872.138	22858
872.267	23037
872.397	22790
872.526	22740
872.656	22854
872.785	22793
872.915	23109
873.044	23174
873.173	22999
873.303	22885
873.432	23071
873.561	23064
873.69	22938
873.819	23010
873.948	22987
874.077	23029
874.206	22885
874.335	22987
874.464	23143
874.593	23227
874.722	23140
874.851	23132
874.979	23269
875.108	23204
875.237	23178
875.365	23071
875.494	23079
875.623	23170
875.751	23170
875.88	23227
876.008	23330
876.136	23254
876.265	23608
876.393	23813
876.521	23585
876.65	23627
876.778	23543
876.906	23512
877.034	23524
877.162	23516
877.29	23455
877.418	23570
877.546	23524
877.674	23524
877.802	23531
877.93	23535
878.058	23509
878.185	23398
878.313	23452
878.441	23554
878.568	23330
878.696	23471
878.824	23570
878.951	23592
879.079	23741
879.206	23866
879.333	23786
879.461	23535
879.588	23714
879.715	23623
879.842	23866
879.97	23558
880.097	23353
880.224	23341
880.351	23433
880.478	23425
880.605	23376
880.732	23315
880.859	23638
880.986	23345
881.112	23334
881.239	23220
881.366	23178
881.493	22885
881.619	22927
881.746	23029
881.872	22820
881.999	22839
882.125	22873
882.252	23003
882.378	22843
882.505	22885
882.631	22816
882.757	22687
882.883	22664
883.01	22656
883.136	22664
883.262	22413
883.388	22417
883.514	22535
883.64	22668
883.766	22474
883.892	22310
884.018	22371
884.143	22588
884.269	22653
884.395	22234
884.52	22265
884.646	22230
884.772	22154
884.897	22272
885.023	22219
885.148	22379
885.274	22421
885.399	22291
885.524	22280
885.65	22234
885.775	22280
885.9	22188
886.025	22284
886.15	22284
886.275	22234
886.4	22154
886.525	22242
886.65	22040
886.775	22109
886.9	22341
887.025	22455
887.149	22067
887.274	21941
887.399	21926
887.523	22139
887.648	21918
887.773	21880
887.897	22013
888.021	21964
888.146	21812
888.27	22120
888.395	21972
888.519	22074
888.643	21911
888.767	22078
888.891	22082
889.015	21739
889.139	21797
889.263	21736
889.387	21857
889.511	21907
889.635	21903
889.759	21766
889.883	21762
890.006	21736
890.13	21842
890.254	21656
890.377	21648
890.501	21549
890.624	21374
890.748	21405
890.871	21454
890.995	21203
891.118	21237
891.241	21275
891.364	21378
891.488	21481
891.611	21279
891.734	21146
891.857	21374
891.98	21454
892.103	21374
892.226	21370
892.349	21245
892.471	21055
892.594	21116
892.717	21211
892.839	21211
892.962	21180
893.085	21233
893.207	21207
893.33	21100
893.452	21302
893.575	21138
893.697	21116
893.819	21367
893.941	21370
894.064	21249
894.186	21131
894.308	21051
894.43	21291
894.552	21370
894.674	21249
894.796	21055
894.918	21188
895.04	21024
895.161	21188
895.283	21302
895.405	21036
895.526	21119
895.648	21020
895.769	21199
895.891	21173
896.012	21355
896.134	21138
896.255	21135
896.376	21119
896.498	21146
896.619	21123
896.74	21127
896.861	21154
896.982	21401
897.103	21530
897.224	21443
897.345	21389
897.466	21310
897.587	21332
897.708	21370
897.828	21466
897.949	21408
898.07	21249
898.19	21268
898.311	21462
898.431	21332
898.552	21272
898.672	21458
898.792	21237
898.913	21416
899.033	21241
899.153	21036
899.273	21070
899.393	21001
899.513	21146
899.633	21176
899.753	21199
899.873	20994
899.993	21108
900.113	20876
900.232	21119
900.352	20937
900.472	20914
900.591	20758
900.711	20956
900.83	20750
900.95	20971
901.069	20899
901.189	20762
901.308	20450
901.427	20336
901.546	20446
901.665	20393
901.784	20442
901.904	20404
902.023	20252
902.141	20050
902.26	19963
902.379	20039
902.498	20077
902.617	19883
902.735	19959
902.854	19837
902.973	19807
903.091	19613
903.21	19666
903.328	19738
903.446	19605
903.565	19403
903.683	19377
903.801	19301
903.919	19373
904.038	19438
904.156	19137
904.274	19232
904.392	19175
904.51	19107
904.627	19053
904.745	19202
904.863	19084
904.981	18973
905.098	18783
905.216	18688
905.334	18791
905.451	18722
905.569	18768
905.686	18875
905.803	18779
905.921	18574
906.038	18722
906.155	18741
906.272	18410
906.389	18604
906.506	18418
906.623	18372
906.74	18300
906.857	18273
906.974	18258
907.091	18281
907.208	18437
907.324	18441
907.441	18205
907.557	17980
907.674	18003
907.79	18022
907.907	18064
908.023	18034
908.139	18136
908.256	17908
908.372	17992
908.488	17961
908.604	17790
908.72	17748
908.836	17767
908.952	17714
909.068	17843
909.184	17939
909.3	17695
909.415	17843
909.531	17882
909.647	17516
909.762	17376
909.878	17474
909.993	17471
910.108	17562
910.224	17364
910.339	17444
910.454	17299
910.57	17246
910.685	17193
910.8	17421
910.915	17391
911.03	17220
911.145	17109
911.259	16995
911.374	17105
911.489	16911
911.604	17014
911.718	16759
911.833	16809
911.947	16713
912.062	16694
912.176	16793
912.291	16691
912.405	16744
912.519	16942
912.633	17014
912.748	16869
912.862	16744
912.976	16607
913.09	16641
913.204	16546
913.318	16508
913.431	16630
913.545	16634
913.659	16736
913.772	16428
913.886	16440
914	16341
914.113	16512
914.226	16519
914.34	16417
914.453	16310
914.566	16394
914.68	16344
914.793	16287
914.906	16067
915.019	16013
915.132	15816
915.245	15888
915.358	16010
915.47	16036
915.583	15876
915.696	15953
915.809	16040
915.921	16021
916.034	15774
916.146	15850
916.259	15720
916.371	15903
916.483	15854
916.595	15819
916.708	15732
916.82	15778
916.932	15694
917.044	15751
917.156	15724
917.268	15622
917.38	15576
917.491	15485
917.603	15564
917.715	15656
917.826	15595
917.938	15561
918.049	15477
918.161	15511
918.272	15682
918.384	15538
918.495	15568
918.606	15382
918.717	15291
918.828	15386
918.939	15431
919.05	15173
919.161	15359
919.272	15001
919.383	15135
919.494	15412
919.604	15454
919.715	15370
919.826	15237
919.936	15188
920.047	15336
920.157	15268
920.267	15447
920.378	15363
920.488	15279
920.598	15504
920.708	15523
920.818	15431
920.928	15389
921.038	15492
921.148	15515
921.258	15279
921.368	15100
921.477	14971
921.587	15036
921.697	14883
921.806	14967
921.916	14910
922.025	14731
922.134	14674
922.244	14617
922.353	14648
922.462	14537
922.571	14530
922.68	14355
922.789	14362
922.898	14320
923.007	14256
923.116	14370
923.224	14400
923.333	14225
923.442	14199
923.55	13997
923.659	14123
923.767	14256
923.876	14107
923.984	14290
924.092	14077
924.201	14012
924.309	14062
924.417	13936
924.525	13955
924.633	13906
924.741	14864
924.849	13715
924.956	13833
925.064	13662
925.172	13597
925.279	13681
925.387	13772
925.494	13677
925.602	13833
925.709	13761
925.816	13582
925.924	13575
926.031	13552
926.138	13552
926.245	13613
926.352	13590
926.459	13453
926.566	13700
926.673	13578
926.779	13487
926.886	13445
926.993	13244
927.099	13232
927.206	13152
927.312	13198
927.419	13202
927.525	13183
927.631	13225
927.737	13038
927.843	13034
927.95	12913
928.056	13004
928.162	13027
928.267	13152
928.373	13712
928.479	13000
928.585	12886
928.69	12981
928.796	13023
928.901	12825
929.007	12707
929.112	12913
929.218	12886
929.323	12753
929.428	12703
929.533	12791
929.638	12642
929.743	12593
929.848	12703
929.953	12684
930.058	12585
930.163	12388
930.267	12395
930.372	12582
930.477	12410
930.581	12547
930.685	12399
930.79	12209
930.894	12273
930.998	12315
931.103	12384
931.207	11946
931.311	11992
931.415	11901
931.519	11649
931.623	11684
