Data from test_V78500241_1208.txt Node
Date: Fri Mar 25 15:50:10 CST 2022
User: usil
Spectrometer: V785-0024
Trigger mode: 0
Integration Time (sec): 4.000000E-1
Scans to average: 1
Nonlinearity correction enabled: false
Boxcar width: 0
Storing dark spectrum: false
XAxis mode: Wavelengths
Number of Pixels in Spectrum: 1024
>>>>>Begin Spectral Data<<<<<
801.071	28557
801.214	28344
801.356	28253
801.499	28268
801.641	28086
801.783	28162
801.926	28166
802.068	28120
802.211	28063
802.353	27998
802.496	27842
802.638	27698
802.78	27739
802.923	27930
803.065	27728
803.208	27724
803.35	27819
803.492	27930
803.635	27998
803.777	27831
803.919	28017
804.061	28314
804.204	28147
804.346	28010
804.488	27930
804.63	28097
804.773	27819
804.915	27926
805.057	28074
805.199	27934
805.341	28120
805.483	28284
805.626	28120
805.768	28112
805.91	28109
806.052	28181
806.194	28090
806.336	28207
806.478	28128
806.62	28158
806.762	28280
806.904	28485
807.046	28618
807.188	28531
807.33	28675
807.472	28748
807.614	28386
807.756	28607
807.898	28531
808.04	28493
808.182	28409
808.324	28588
808.465	28561
808.607	28683
808.749	28869
808.891	28805
809.033	29037
809.174	28904
809.316	28991
809.458	28888
809.6	28710
809.741	28930
809.883	28991
810.025	29216
810.166	29117
810.308	29204
810.45	29140
810.591	28965
810.733	28942
810.875	28854
811.016	28877
811.158	28698
811.299	29018
811.441	28965
811.582	29067
811.724	29029
811.865	28938
812.007	28843
812.148	28797
812.29	28881
812.431	28991
812.573	29197
812.714	29448
812.855	29288
812.997	29535
813.138	29703
813.279	29474
813.421	29414
813.562	29417
813.703	29280
813.845	29170
813.986	28930
814.127	28577
814.268	28580
814.41	28634
814.551	28538
814.692	28618
814.833	28535
814.974	28493
815.115	28675
815.256	28565
815.397	28485
815.539	28398
815.68	28512
815.821	28344
815.962	28352
816.103	28234
816.244	28291
816.385	28109
816.526	28238
816.666	28002
816.807	27785
816.948	27987
817.089	28040
817.23	27991
817.371	27884
817.512	27876
817.653	27998
817.793	27865
817.934	27804
818.075	28017
818.216	28006
818.356	27774
818.497	27819
818.638	27580
818.778	27618
818.919	27641
819.06	27755
819.2	27705
819.341	27945
819.481	27884
819.622	28036
819.762	28299
819.903	28382
820.043	28078
820.184	28036
820.324	28002
820.465	28036
820.605	28013
820.746	27930
820.886	27907
821.026	28124
821.167	28044
821.307	28116
821.447	27941
821.588	27880
821.728	27622
821.868	27496
822.008	27363
822.149	27401
822.289	27344
822.429	27188
822.569	27047
822.709	27043
822.849	26929
822.99	26842
823.13	26838
823.27	26811
823.41	26716
823.55	26568
823.69	26762
823.83	26705
823.97	26777
824.11	26453
824.25	26419
824.389	26549
824.529	26530
824.669	26629
824.809	26686
824.949	26488
825.089	26735
825.228	26693
825.368	26396
825.508	26343
825.648	26317
825.787	26537
825.927	26526
826.067	26499
826.206	26499
826.346	26457
826.485	26453
826.625	26450
826.765	26438
826.904	26480
827.044	26149
827.183	26252
827.323	26046
827.462	26206
827.601	26107
827.741	26103
827.88	26164
828.02	25970
828.159	26092
828.298	26180
828.437	26191
828.577	26126
828.716	26237
828.855	25947
828.994	25811
829.134	25875
829.273	25913
829.412	25780
829.551	25837
829.69	25772
829.829	25966
829.968	25856
830.107	25906
830.246	25894
830.385	25799
830.524	25746
830.663	25578
830.802	25518
830.941	25358
831.08	25510
831.219	25533
831.357	25559
831.496	25674
831.635	25487
831.774	25457
831.913	25202
832.051	25312
832.19	25247
832.329	25221
832.467	25179
832.606	25019
832.744	25042
832.883	25160
833.022	25206
833.16	25168
833.299	25133
833.437	25152
833.576	25114
833.714	25232
833.852	25259
833.991	25270
834.129	25179
834.267	25320
834.406	25183
834.544	25221
834.682	25293
834.821	25244
834.959	25350
835.097	24977
835.235	25221
835.373	25217
835.511	25072
835.65	25008
835.788	25088
835.926	24878
836.064	24798
836.202	24768
836.34	25156
836.478	25050
836.615	25076
836.753	25000
836.891	25107
837.029	25050
837.167	24909
837.305	24947
837.443	24772
837.58	24863
837.718	24897
837.856	24875
837.993	24658
838.131	24882
838.269	24661
838.406	24825
838.544	24738
838.681	24513
838.819	24361
838.956	24319
839.094	24213
839.231	24327
839.369	24429
839.506	24760
839.643	24623
839.781	24315
839.918	24308
840.055	24273
840.193	24292
840.33	24197
840.467	24285
840.604	24281
840.742	24517
840.879	24121
841.016	24136
841.153	24007
841.29	24235
841.427	24197
841.564	24251
841.701	24266
841.838	24213
841.975	24121
842.112	24079
842.249	24015
842.385	23893
842.522	24178
842.659	24106
842.796	23984
842.933	23935
843.069	23874
843.206	23969
843.343	24003
843.479	23969
843.616	23961
843.752	23767
843.889	23783
844.025	23729
844.162	23802
844.298	23859
844.435	23752
844.571	23737
844.708	23695
844.844	23832
844.98	23699
845.117	23893
845.253	23695
845.389	23505
845.525	23630
845.661	23497
845.798	23501
845.934	23528
846.07	23467
846.206	23608
846.342	23581
846.478	23410
846.614	23277
846.75	23124
846.886	23140
847.022	23197
847.158	23098
847.294	23311
847.429	23151
847.565	23159
847.701	23433
847.837	23006
847.972	22961
848.108	23048
848.244	22919
848.379	22778
848.515	22729
848.65	22755
848.786	22683
848.921	22698
849.057	22980
849.192	22748
849.328	22877
849.463	22767
849.598	22778
849.734	22687
849.869	22649
850.004	22565
850.14	22542
850.275	22531
850.41	22504
850.545	22417
850.68	22417
850.815	22577
850.95	22489
851.085	22580
851.22	22653
851.355	22618
851.49	22497
851.625	22451
851.76	22508
851.895	22432
852.03	22512
852.165	22421
852.299	22508
852.434	22542
852.569	22436
852.703	22459
852.838	22527
852.973	22668
853.107	22599
853.242	22409
853.376	22333
853.511	22200
853.645	22333
853.78	22455
853.914	22409
854.048	22196
854.183	22188
854.317	22341
854.451	22569
854.585	22318
854.72	22443
854.854	22371
854.988	22314
855.122	22402
855.256	22287
855.39	22246
855.524	22329
855.658	22386
855.792	22360
855.926	22322
856.06	22500
856.194	22363
856.327	22363
856.461	22196
856.595	22253
856.729	22287
856.862	22394
856.996	22443
857.13	22386
857.263	22398
857.397	22462
857.53	22322
857.664	22382
857.797	22485
857.931	22485
858.064	22329
858.197	22424
858.331	22352
858.464	22268
858.597	22246
858.731	22386
858.864	22333
858.997	22348
859.13	22424
859.263	22230
859.396	22402
859.529	22367
859.662	22211
859.795	22322
859.928	22333
860.061	22371
860.194	22478
860.327	22303
860.46	22344
860.592	22428
860.725	22421
860.858	22451
860.99	22371
861.123	22219
861.256	22295
861.388	22432
861.521	23048
861.653	22230
861.786	22207
861.918	22192
862.05	22135
862.183	22291
862.315	22280
862.447	22295
862.58	22128
862.712	22158
862.844	22010
862.976	22196
863.108	22048
863.24	22386
863.372	22044
863.504	22063
863.636	22097
863.768	22158
863.9	22112
864.032	22017
864.164	21949
864.296	22154
864.428	22078
864.559	22128
864.691	22143
864.823	21994
864.954	21934
865.086	22067
865.217	22002
865.349	21964
865.48	21895
865.612	21907
865.743	21964
865.875	22002
866.006	21876
866.137	21865
866.269	21812
866.4	21888
866.531	21800
866.662	21854
866.793	21842
866.924	21835
867.055	21789
867.186	21850
867.317	21694
867.448	21675
867.579	21808
867.71	21660
867.841	21804
867.972	21739
868.103	21922
868.233	21880
868.364	21941
868.495	21819
868.625	22074
868.756	22238
868.886	22059
869.017	22070
869.147	22200
869.278	22291
869.408	22112
869.539	22238
869.669	22207
869.799	22215
869.929	22196
870.06	22139
870.19	22291
870.32	22466
870.45	22443
870.58	22493
870.71	22580
870.84	22462
870.97	22474
871.1	22516
871.23	22634
871.36	22691
871.489	22580
871.619	22489
871.749	22668
871.879	22755
872.008	22820
872.138	22793
872.267	22672
872.397	22615
872.526	22497
872.656	22519
872.785	22512
872.915	22713
873.044	22672
873.173	22664
873.303	22622
873.432	22809
873.561	22843
873.69	22774
873.819	22713
873.948	22866
874.077	22603
874.206	22706
874.335	22702
874.464	22649
874.593	22946
874.722	22896
874.851	22984
874.979	22965
875.108	22957
875.237	22763
875.365	22908
875.494	22892
875.623	23105
875.751	23022
875.88	23064
876.008	22961
876.136	23060
876.265	23258
876.393	23474
876.521	23356
876.65	23273
876.778	23227
876.906	23273
877.034	23235
877.162	23341
877.29	23330
877.418	23280
877.546	23216
877.674	23254
877.802	23242
877.93	23204
878.058	23174
878.185	23159
878.313	23250
878.441	23204
878.568	23128
878.696	23296
878.824	23303
878.951	23387
879.079	23440
879.206	23554
879.333	23436
879.461	23231
879.588	23410
879.715	23406
879.842	23444
879.97	23372
880.097	23105
880.224	23083
880.351	23052
880.478	23094
880.605	23033
880.732	23151
880.859	23197
880.986	23075
881.112	23200
881.239	22953
881.366	22850
881.493	22725
881.619	22710
881.746	22641
881.872	22672
881.999	22561
882.125	22634
882.252	22702
882.378	22698
882.505	22820
882.631	22504
882.757	22337
882.883	22363
883.01	22356
883.136	22257
883.262	22223
883.388	22059
883.514	22306
883.64	22367
883.766	22234
883.892	22135
884.018	22116
884.143	22150
884.269	22344
884.395	22029
884.52	21964
884.646	21812
884.772	21842
884.897	21880
885.023	21960
885.148	21964
885.274	22086
885.399	22055
885.524	22036
885.65	22002
885.775	21991
885.9	21918
886.025	22097
886.15	22021
886.275	21960
886.4	21975
886.525	21876
886.65	21956
886.775	21945
886.9	22002
887.025	22070
887.149	21812
887.274	21789
887.399	21747
887.523	21667
887.648	21667
887.773	21515
887.897	21713
888.021	21747
888.146	21728
888.27	21759
888.395	21781
888.519	21652
888.643	21686
888.767	21781
888.891	21675
889.015	21538
889.139	21523
889.263	21614
889.387	21595
889.511	21686
889.635	21492
889.759	21599
889.883	21447
890.006	21447
890.13	21526
890.254	21325
890.377	21401
890.501	21222
890.624	21249
890.748	21096
890.871	21135
890.995	20986
891.118	21062
891.241	21119
891.364	21127
891.488	21230
891.611	21051
891.734	21043
891.857	21119
891.98	21077
892.103	21024
892.226	21066
892.349	21036
892.471	20910
892.594	21058
892.717	20918
892.839	21047
892.962	20948
893.085	21051
893.207	20975
893.33	20876
893.452	20910
893.575	20937
893.697	20948
893.819	21032
893.941	21112
894.064	21108
894.186	20864
894.308	20815
894.43	20925
894.552	20948
894.674	21024
894.796	20883
894.918	20880
895.04	20864
895.161	20902
895.283	21001
895.405	20823
895.526	21047
895.648	20902
895.769	20979
895.891	20891
896.012	20975
896.134	20925
896.255	20876
896.376	20868
896.498	20944
896.619	20918
896.74	20986
896.861	21051
896.982	21351
897.103	21340
897.224	21058
897.345	21203
897.466	20998
897.587	21241
897.708	21150
897.828	21108
897.949	21100
898.07	21036
898.19	21138
898.311	21207
898.431	21020
898.552	21138
898.672	21214
898.792	21195
898.913	21036
899.033	21085
899.153	20948
899.273	20849
899.393	20902
899.513	21013
899.633	20891
899.753	20883
899.873	20754
899.993	20861
900.113	20800
900.232	20819
900.352	20792
900.472	20769
900.591	20648
900.711	20792
900.83	20492
900.95	20663
901.069	20716
901.189	20488
901.308	20271
901.427	20225
901.546	20195
901.665	20282
901.784	20187
901.904	20233
902.023	19967
902.141	19814
902.26	19658
902.379	19818
902.498	19620
902.617	19742
902.735	19738
902.854	19666
902.973	19635
903.091	19354
903.21	19301
903.328	19278
903.446	19259
903.565	19206
903.683	19251
903.801	19103
903.919	19213
904.038	19015
904.156	19023
904.274	19038
904.392	18939
904.51	19019
904.627	18897
904.745	18935
904.863	19015
904.981	18719
905.098	18570
905.216	18646
905.334	18620
905.451	18635
905.569	18639
905.686	18677
905.803	18551
905.921	18357
906.038	18494
906.155	18475
906.272	18216
906.389	18311
906.506	18110
906.623	18140
906.74	18171
906.857	18064
906.974	18076
907.091	18045
907.208	18228
907.324	18106
907.441	17988
907.557	17798
907.674	17817
907.79	17718
907.907	17741
908.023	17889
908.139	17786
908.256	17805
908.372	17703
908.488	17821
908.604	17634
908.72	17619
908.836	17592
908.952	17497
909.068	17585
909.184	17687
909.3	17611
909.415	17627
909.531	17551
909.647	17258
909.762	17258
909.878	17284
909.993	17261
910.108	17246
910.224	17246
910.339	17273
910.454	17136
910.57	17052
910.685	16972
910.8	17235
910.915	17117
911.03	17052
911.145	16885
911.259	16809
911.374	16930
911.489	16733
911.604	16584
911.718	16626
911.833	16512
911.947	16493
912.062	16466
912.176	16535
912.291	16497
912.405	16573
912.519	16805
912.633	16771
912.748	16649
912.862	16421
912.976	16413
913.09	16341
913.204	16337
913.318	16421
913.431	16451
913.545	16352
913.659	16352
913.772	16280
913.886	16204
914	16147
914.113	16280
914.226	16158
914.34	16166
914.453	15960
914.566	16207
914.68	16086
914.793	16059
914.906	15876
915.019	15797
915.132	15671
915.245	15633
915.358	15884
915.47	15808
915.583	15743
915.696	15819
915.809	15819
915.921	15808
916.034	15660
916.146	15701
916.259	15652
916.371	15800
916.483	15663
916.595	15641
916.708	15701
916.82	15557
916.932	15485
917.044	15462
917.156	15530
917.268	15367
917.38	15378
917.491	15374
917.603	15393
917.715	15519
917.826	15420
917.938	15374
918.049	15176
918.161	15344
918.272	15416
918.384	15382
918.495	15401
918.606	15169
918.717	15074
918.828	15100
918.939	15195
919.05	14979
919.161	15104
919.272	14933
919.383	15009
919.494	15184
919.604	15325
919.715	15237
919.826	15028
919.936	15146
920.047	15192
920.157	15051
920.267	15184
920.378	15058
920.488	15043
920.598	15249
920.708	15321
920.818	15222
920.928	15233
921.038	15424
921.148	15447
921.258	15066
921.368	15001
921.477	14834
921.587	14785
921.697	14667
921.806	14819
921.916	14667
922.025	14530
922.134	14442
922.244	14366
922.353	14431
922.462	14355
922.571	14282
922.68	14164
922.789	14084
922.898	14016
923.007	13986
923.116	14107
923.224	13982
923.333	14050
923.442	13940
923.55	13860
923.659	13947
923.767	13959
923.876	13887
923.984	13951
924.092	13814
924.201	13795
924.309	13780
924.417	13803
924.525	13746
924.633	13799
924.741	14541
924.849	13563
924.956	13643
925.064	13529
925.172	13441
925.279	13331
925.387	13556
925.494	13445
925.602	13632
925.709	13510
925.816	13415
925.924	13487
926.031	13582
926.138	13460
926.245	13460
926.352	13232
926.459	13415
926.566	13476
926.673	13274
926.779	13202
926.886	13285
926.993	13057
927.099	12970
927.206	12935
927.312	12989
927.419	12977
927.525	13019
927.631	13072
927.737	12920
927.843	12859
927.95	12623
928.056	12844
928.162	12806
928.267	12852
928.373	13441
928.479	12901
928.585	12696
928.69	12768
928.796	12810
928.901	12650
929.007	12563
929.112	12711
929.218	12631
929.323	12616
929.428	12509
929.533	12696
929.638	12384
929.743	12506
929.848	12498
929.953	12414
930.058	12369
930.163	12178
930.267	12270
930.372	12410
930.477	12117
930.581	12441
930.685	12228
930.79	12049
930.894	12163
930.998	12049
931.103	12209
931.207	11851
931.311	11733
931.415	11695
931.519	11436
931.623	11417
