Data from test_V78500241_1150.txt Node
Date: Fri Mar 25 15:49:46 CST 2022
User: usil
Spectrometer: V785-0024
Trigger mode: 0
Integration Time (sec): 4.000000E-1
Scans to average: 1
Nonlinearity correction enabled: false
Boxcar width: 0
Storing dark spectrum: false
XAxis mode: Wavelengths
Number of Pixels in Spectrum: 1024
>>>>>Begin Spectral Data<<<<<
801.071	28599
801.214	28527
801.356	28257
801.499	28344
801.641	28097
801.783	28188
801.926	28204
802.068	28120
802.211	28120
802.353	27922
802.496	27842
802.638	27732
802.78	27838
802.923	27789
803.065	27747
803.208	27922
803.35	27785
803.492	27998
803.635	28025
803.777	27876
803.919	27945
804.061	28436
804.204	28044
804.346	27945
804.488	27892
804.63	27854
804.773	27945
804.915	28036
805.057	28124
805.199	28074
805.341	28067
805.483	28185
805.626	28078
805.768	27987
805.91	28196
806.052	28185
806.194	28139
806.336	28519
806.478	28306
806.62	28246
806.762	28447
806.904	28455
807.046	28637
807.188	28710
807.33	28645
807.472	28763
807.614	28645
807.756	28748
807.898	28481
808.04	28508
808.182	28580
808.324	28550
808.465	28542
808.607	28843
808.749	28881
808.891	28885
809.033	29094
809.174	28896
809.316	28755
809.458	28911
809.6	28778
809.741	28892
809.883	29033
810.025	29227
810.166	29330
810.308	29315
810.45	29166
810.591	29231
810.733	29102
810.875	28828
811.016	28885
811.158	28748
811.299	28949
811.441	29109
811.582	29064
811.724	28980
811.865	28904
812.007	28995
812.148	28869
812.29	28972
812.431	29079
812.573	29155
812.714	29334
812.855	29455
812.997	29543
813.138	29592
813.279	29547
813.421	29467
813.562	29524
813.703	29197
813.845	29124
813.986	28782
814.127	28717
814.268	28683
814.41	28752
814.551	28531
814.692	28854
814.833	28668
814.974	28683
815.115	28634
815.256	28561
815.397	28546
815.539	28554
815.68	28451
815.821	28432
815.962	28436
816.103	28630
816.244	28360
816.385	28299
816.526	28116
816.666	28025
816.807	27884
816.948	27979
817.089	28086
817.23	28051
817.371	28002
817.512	28036
817.653	28067
817.793	27945
817.934	27888
818.075	27797
818.216	27991
818.356	27907
818.497	27918
818.638	27770
818.778	27766
818.919	27564
819.06	27709
819.2	27876
819.341	27918
819.481	27922
819.622	28112
819.762	28329
819.903	28192
820.043	28276
820.184	28166
820.324	28086
820.465	28303
820.605	28112
820.746	28105
820.886	27884
821.026	28078
821.167	28059
821.307	28070
821.447	27968
821.588	27907
821.728	27785
821.868	27622
822.008	27519
822.149	27492
822.289	27393
822.429	27363
822.569	27203
822.709	27226
822.849	27001
822.99	26986
823.13	26925
823.27	26937
823.41	26861
823.55	26663
823.69	26883
823.83	26830
823.97	26655
824.11	26564
824.25	26530
824.389	26484
824.529	26549
824.669	26617
824.809	26811
824.949	26697
825.089	26724
825.228	26678
825.368	26453
825.508	26438
825.648	26514
825.787	26549
825.927	26575
826.067	26507
826.206	26590
826.346	26476
826.485	26503
826.625	26412
826.765	26625
826.904	26492
827.044	26358
827.183	26237
827.323	26119
827.462	26252
827.601	26244
827.741	26248
827.88	26271
828.02	26107
828.159	26005
828.298	26282
828.437	26195
828.577	26168
828.716	26214
828.855	26119
828.994	25909
829.134	25852
829.273	26001
829.412	25772
829.551	25734
829.69	25860
829.829	25898
829.968	26039
830.107	25944
830.246	25940
830.385	25723
830.524	25677
830.663	25791
830.802	25567
830.941	25510
831.08	25529
831.219	25715
831.357	25571
831.496	25765
831.635	25384
831.774	25358
831.913	25415
832.051	25350
832.19	25301
832.329	25415
832.467	25206
832.606	25175
832.744	25187
832.883	25194
833.022	25168
833.16	25251
833.299	25209
833.437	25244
833.576	25198
833.714	25327
833.852	25335
833.991	25434
834.129	25373
834.267	25285
834.406	25278
834.544	25377
834.682	25274
834.821	25236
834.959	25422
835.097	25080
835.235	25327
835.373	25183
835.511	25274
835.65	25145
835.788	25061
835.926	25050
836.064	24772
836.202	24863
836.34	25072
836.478	25156
836.615	25076
836.753	25012
836.891	25141
837.029	25053
837.167	25122
837.305	24924
837.443	24954
837.58	24844
837.718	24882
837.856	24837
837.993	24821
838.131	24867
838.269	24772
838.406	24837
838.544	24719
838.681	24692
838.819	24559
838.956	24327
839.094	24490
839.231	24350
839.369	24604
839.506	24726
839.643	24631
839.781	24380
839.918	24369
840.055	24475
840.193	24334
840.33	24391
840.467	24357
840.604	24273
840.742	24597
840.879	24136
841.016	24308
841.153	24106
841.29	24414
841.427	24270
841.564	24365
841.701	24262
841.838	24254
841.975	24117
842.112	24171
842.249	24064
842.385	24038
842.522	24171
842.659	24167
842.796	23999
842.933	24064
843.069	24045
843.206	23889
843.343	23916
843.479	24034
843.616	24110
843.752	23798
843.889	23691
844.025	23920
844.162	23680
844.298	23965
844.435	23847
844.571	23687
844.708	23927
844.844	23935
844.98	23969
845.117	23828
845.253	23866
845.389	23554
845.525	23509
845.661	23600
845.798	23543
845.934	23554
846.07	23566
846.206	23539
846.342	23752
846.478	23402
846.614	23387
846.75	23337
846.886	23220
847.022	23334
847.158	23436
847.294	23250
847.429	23296
847.565	23231
847.701	23596
847.837	22934
847.972	22866
848.108	23056
848.244	23174
848.379	22953
848.515	22942
848.65	22866
848.786	22858
848.921	22892
849.057	22911
849.192	22919
849.328	22820
849.463	22862
849.598	22835
849.734	22771
849.869	22656
850.004	22596
850.14	22634
850.275	22733
850.41	22436
850.545	22462
850.68	22645
850.815	22588
850.95	22603
851.085	22656
851.22	22767
851.355	22569
851.49	22538
851.625	22584
851.76	22516
851.895	22447
852.03	22516
852.165	22634
852.299	22645
852.434	22668
852.569	22668
852.703	22694
852.838	22493
852.973	22622
853.107	22637
853.242	22523
853.376	22618
853.511	22360
853.645	22386
853.78	22428
853.914	22466
854.048	22394
854.183	22413
854.317	22413
854.451	22588
854.585	22348
854.72	22478
854.854	22428
854.988	22386
855.122	22367
855.256	22291
855.39	22337
855.524	22493
855.658	22344
855.792	22527
855.926	22402
856.06	22375
856.194	22500
856.327	22421
856.461	22451
856.595	22402
856.729	22398
856.862	22504
856.996	22398
857.13	22489
857.263	22512
857.397	22535
857.53	22504
857.664	22333
857.797	22561
857.931	22630
858.064	22618
858.197	22504
858.331	22413
858.464	22344
858.597	22246
858.731	22451
858.864	22299
858.997	22402
859.13	22436
859.263	22466
859.396	22481
859.529	22352
859.662	22363
859.795	22382
859.928	22276
860.061	22508
860.194	22672
860.327	22538
860.46	22402
860.592	22538
860.725	22607
860.858	22565
860.99	22462
861.123	22405
861.256	22329
861.388	22329
861.521	23136
861.653	22421
861.786	22265
861.918	22344
862.05	22291
862.183	22363
862.315	22382
862.447	22402
862.58	22348
862.712	22226
862.844	22131
862.976	22280
863.108	22261
863.24	22538
863.372	22078
863.504	22105
863.636	21987
863.768	22265
863.9	22059
864.032	22059
864.164	22078
864.296	22147
864.428	22196
864.559	22211
864.691	22219
864.823	22109
864.954	22105
865.086	22135
865.217	22013
865.349	21922
865.48	21994
865.612	22097
865.743	22131
865.875	22070
866.006	21876
866.137	21998
866.269	22067
866.4	21953
866.531	21979
866.662	21865
866.793	21857
866.924	21884
867.055	21991
867.186	22040
867.317	21934
867.448	21827
867.579	21895
867.71	21873
867.841	21823
867.972	21994
868.103	21991
868.233	21975
868.364	21876
868.495	22078
868.625	22124
868.756	22284
868.886	22082
869.017	22253
869.147	22223
869.278	22219
869.408	22147
869.539	22268
869.669	22287
869.799	22124
869.929	22268
870.06	22356
870.19	22367
870.32	22348
870.45	22478
870.58	22645
870.71	22713
870.84	22637
870.97	22664
871.1	22550
871.23	22725
871.36	22786
871.489	22637
871.619	22778
871.749	22679
871.879	22752
872.008	22934
872.138	22729
872.267	22812
872.397	22588
872.526	22592
872.656	22634
872.785	22618
872.915	22607
873.044	22736
873.173	22793
873.303	22763
873.432	22858
873.561	22976
873.69	22763
873.819	22733
873.948	22908
874.077	22778
874.206	22672
874.335	22683
874.464	22934
874.593	22961
874.722	23041
874.851	22999
874.979	22961
875.108	23037
875.237	22946
875.365	22919
875.494	22965
875.623	23064
875.751	22858
875.88	22991
876.008	23159
876.136	23162
876.265	23406
876.393	23543
876.521	23326
876.65	23360
876.778	23474
876.906	23364
877.034	23395
877.162	23345
877.29	23280
877.418	23387
877.546	23254
877.674	23265
877.802	23273
877.93	23273
878.058	23273
878.185	23223
878.313	23208
878.441	23250
878.568	23185
878.696	23216
878.824	23330
878.951	23303
879.079	23611
879.206	23668
879.333	23581
879.461	23455
879.588	23543
879.715	23531
879.842	23570
879.97	23376
880.097	23128
880.224	23098
880.351	23132
880.478	23288
880.605	23124
880.732	23299
880.859	23395
880.986	23193
881.112	23124
881.239	22999
881.366	22938
881.493	22976
881.619	22660
881.746	22733
881.872	22626
881.999	22641
882.125	22599
882.252	22717
882.378	22672
882.505	22820
882.631	22630
882.757	22367
882.883	22489
883.01	22382
883.136	22386
883.262	22246
883.388	22265
883.514	22375
883.64	22462
883.766	22348
883.892	22105
884.018	22200
884.143	22424
884.269	22413
884.395	22169
884.52	21960
884.646	22105
884.772	21835
884.897	21934
885.023	21983
885.148	22128
885.274	22162
885.399	22128
885.524	22105
885.65	22063
885.775	21934
885.9	21964
886.025	22082
886.15	22086
886.275	21903
886.4	21888
886.525	22109
886.65	21994
886.775	21892
886.9	22002
887.025	22139
887.149	22017
887.274	21918
887.399	21812
887.523	21854
887.648	21671
887.773	21732
887.897	21922
888.021	21835
888.146	21713
888.27	21842
888.395	21831
888.519	21797
888.643	21797
888.767	21797
888.891	21713
889.015	21656
889.139	21637
889.263	21519
889.387	21618
889.511	21804
889.635	21675
889.759	21458
889.883	21454
890.006	21625
890.13	21660
890.254	21386
890.377	21519
890.501	21298
890.624	21302
890.748	21344
890.871	21222
890.995	21024
891.118	21100
891.241	21001
891.364	21055
891.488	21313
891.611	21104
891.734	21043
891.857	21157
891.98	21047
892.103	21184
892.226	21108
892.349	21066
892.471	20975
892.594	21062
892.717	21085
892.839	21009
892.962	20960
893.085	21150
893.207	21066
893.33	20941
893.452	20937
893.575	21150
893.697	20967
893.819	21093
893.941	21279
894.064	21043
894.186	20971
894.308	21032
894.43	21131
894.552	21096
894.674	20975
894.796	20807
894.918	20986
895.04	21024
895.161	21074
895.283	21100
895.405	21043
895.526	20929
895.648	21024
895.769	21176
895.891	20986
896.012	21123
896.134	20933
896.255	21119
896.376	20918
896.498	20986
896.619	20876
896.74	21017
896.861	21161
896.982	21344
897.103	21397
897.224	21104
897.345	21264
897.466	21070
897.587	21100
897.708	21279
897.828	21176
897.949	21173
898.07	21077
898.19	21085
898.311	21355
898.431	21176
898.552	21188
898.672	21241
898.792	21264
898.913	21222
899.033	21112
899.153	21036
899.273	20838
899.393	20918
899.513	20906
899.633	20960
899.753	20921
899.873	20826
899.993	21009
900.113	20887
900.232	20982
900.352	20910
900.472	20895
900.591	20636
900.711	20712
900.83	20743
900.95	20762
901.069	20792
901.189	20594
901.308	20415
901.427	20256
901.546	20358
901.665	20199
901.784	20259
901.904	20202
902.023	20050
902.141	19875
902.26	19803
902.379	19868
902.498	19788
902.617	19723
902.735	19860
902.854	19670
902.973	19620
903.091	19411
903.21	19354
903.328	19369
903.446	19244
903.565	19274
903.683	19301
903.801	19175
903.919	19175
904.038	19137
904.156	19004
904.274	19118
904.392	18897
904.51	18924
904.627	18935
904.745	19019
904.863	19004
904.981	18779
905.098	18795
905.216	18578
905.334	18677
905.451	18703
905.569	18620
905.686	18692
905.803	18608
905.921	18464
906.038	18578
906.155	18509
906.272	18270
906.389	18342
906.506	18140
906.623	18235
906.74	18129
906.857	18133
906.974	18068
907.091	18152
907.208	18270
907.324	18296
907.441	18197
907.557	17863
907.674	17851
907.79	17855
907.907	17878
908.023	17855
908.139	17764
908.256	17882
908.372	17767
908.488	17783
908.604	17699
908.72	17672
908.836	17596
908.952	17646
909.068	17604
909.184	17729
909.3	17611
909.415	17657
909.531	17619
909.647	17395
909.762	17444
909.878	17330
909.993	17292
910.108	17330
910.224	17242
910.339	17242
910.454	17208
910.57	17079
910.685	17037
910.8	17318
910.915	17296
911.03	17155
911.145	16957
911.259	16999
911.374	16820
911.489	16881
911.604	16733
911.718	16675
911.833	16603
911.947	16558
912.062	16489
912.176	16717
912.291	16687
912.405	16603
912.519	16782
912.633	16793
912.748	16713
912.862	16603
912.976	16421
913.09	16417
913.204	16413
913.318	16379
913.431	16618
913.545	16531
913.659	16630
913.772	16363
913.886	16280
914	16238
914.113	16280
914.226	16360
914.34	16322
914.453	16112
914.566	16337
914.68	16192
914.793	16112
914.906	15899
915.019	15857
915.132	15861
915.245	15880
915.358	15915
915.47	15922
915.583	15846
915.696	15899
915.809	15930
915.921	15926
916.034	15850
916.146	15679
916.259	15686
916.371	15675
916.483	15797
916.595	15717
916.708	15648
916.82	15584
916.932	15603
917.044	15633
917.156	15519
917.268	15424
917.38	15511
917.491	15462
917.603	15496
917.715	15424
917.826	15485
917.938	15374
918.049	15283
918.161	15382
918.272	15549
918.384	15473
918.495	15378
918.606	15188
918.717	15211
918.828	15203
918.939	15192
919.05	15077
919.161	15123
919.272	14933
919.383	15108
919.494	15203
919.604	15370
919.715	15154
919.826	15089
919.936	15108
920.047	15214
920.157	15123
920.267	15317
920.378	15199
920.488	15062
920.598	15325
920.708	15450
920.818	15374
920.928	15298
921.038	15359
921.148	15367
921.258	15116
921.368	15043
921.477	14804
921.587	14845
921.697	14823
921.806	14845
921.916	14735
922.025	14549
922.134	14476
922.244	14389
922.353	14617
922.462	14396
922.571	14427
922.68	14172
922.789	14126
922.898	14145
923.007	14096
923.116	14103
923.224	14035
923.333	14077
923.442	13894
923.55	13951
923.659	13982
923.767	13997
923.876	13894
923.984	14046
924.092	13860
924.201	13928
924.309	13795
924.417	13856
924.525	13742
924.633	13734
924.741	14560
924.849	13594
924.956	13662
925.064	13590
925.172	13400
925.279	13373
925.387	13548
925.494	13563
925.602	13719
925.709	13578
925.816	13400
925.924	13529
926.031	13464
926.138	13472
926.245	13495
926.352	13384
926.459	13468
926.566	13506
926.673	13468
926.779	13324
926.886	13164
926.993	13107
927.099	13145
927.206	13012
927.312	12985
927.419	13088
927.525	13050
927.631	13110
927.737	13046
927.843	12863
927.95	12875
928.056	12863
928.162	12829
928.267	12989
928.373	13616
928.479	12985
928.585	12677
928.69	12829
928.796	12844
928.901	12696
929.007	12566
929.112	12726
929.218	12642
929.323	12620
929.428	12578
929.533	12662
929.638	12589
929.743	12631
929.848	12658
929.953	12521
930.058	12486
930.163	12304
930.267	12346
930.372	12308
930.477	12292
930.581	12467
930.685	12319
930.79	12197
930.894	12095
930.998	12133
931.103	12270
931.207	11889
931.311	11783
931.415	11703
931.519	11493
931.623	11566
