Data from test_V78500241_1047.txt Node
Date: Fri Mar 25 15:49:03 CST 2022
User: usil
Spectrometer: V785-0024
Trigger mode: 0
Integration Time (sec): 4.000000E-1
Scans to average: 1
Nonlinearity correction enabled: false
Boxcar width: 0
Storing dark spectrum: false
XAxis mode: Wavelengths
Number of Pixels in Spectrum: 1024
>>>>>Begin Spectral Data<<<<<
801.071	28470
801.214	28394
801.356	28101
801.499	28002
801.641	27983
801.783	28032
801.926	27991
802.068	27926
802.211	27861
802.353	27895
802.496	27656
802.638	27766
802.78	27675
802.923	27660
803.065	27557
803.208	27652
803.35	27766
803.492	27713
803.635	27892
803.777	27800
803.919	27876
804.061	28185
804.204	27850
804.346	27831
804.488	27728
804.63	27724
804.773	27975
804.915	27884
805.057	27914
805.199	27804
805.341	27869
805.483	27998
805.626	28017
805.768	27934
805.91	27983
806.052	28059
806.194	27930
806.336	28139
806.478	28070
806.62	28059
806.762	28051
806.904	28375
807.046	28565
807.188	28535
807.33	28500
807.472	28504
807.614	28226
807.756	28417
807.898	28401
808.04	28268
808.182	28356
808.324	28371
808.465	28363
808.607	28550
808.749	28774
808.891	28809
809.033	28797
809.174	28713
809.316	28733
809.458	28748
809.6	28592
809.741	28790
809.883	28927
810.025	29048
810.166	29033
810.308	29147
810.45	28972
810.591	28904
810.733	28835
810.875	28862
811.016	28588
811.158	28691
811.299	28782
811.441	28843
811.582	28892
811.724	28801
811.865	28611
812.007	28713
812.148	28805
812.29	28771
812.431	28953
812.573	29029
812.714	29212
812.855	29269
812.997	29303
813.138	29402
813.279	29375
813.421	29334
813.562	29345
813.703	29151
813.845	28976
813.986	28725
814.127	28481
814.268	28401
814.41	28394
814.551	28523
814.692	28512
814.833	28561
814.974	28440
815.115	28382
815.256	28348
815.397	28329
815.539	28268
815.68	28166
815.821	28238
815.962	28268
816.103	28204
816.244	27960
816.385	28090
816.526	28116
816.666	27949
816.807	27812
816.948	27850
817.089	27934
817.23	27884
817.371	27732
817.512	27698
817.653	27656
817.793	27724
817.934	27774
818.075	27808
818.216	27732
818.356	27774
818.497	27618
818.638	27412
818.778	27447
818.919	27534
819.06	27618
819.2	27774
819.341	27705
819.481	27675
819.622	27865
819.762	28063
819.903	27991
820.043	27956
820.184	27972
820.324	27934
820.465	27926
820.605	27899
820.746	27937
820.886	27770
821.026	27789
821.167	27800
821.307	27865
821.447	27804
821.588	27469
821.728	27545
821.868	27564
822.008	27233
822.149	27123
822.289	27260
822.429	26933
822.569	26861
822.709	26876
822.849	26788
822.99	26845
823.13	26659
823.27	26743
823.41	26503
823.55	26377
823.69	26594
823.83	26594
823.97	26514
824.11	26309
824.25	26377
824.389	26488
824.529	26541
824.669	26537
824.809	26492
824.949	26499
825.089	26442
825.228	26503
825.368	26157
825.508	26339
825.648	26393
825.787	26301
825.927	26324
826.067	26153
826.206	26252
826.346	26400
826.485	26355
826.625	26374
826.765	26450
826.904	26271
827.044	25928
827.183	25921
827.323	25963
827.462	26176
827.601	26062
827.741	26096
827.88	26073
828.02	25807
828.159	25997
828.298	26012
828.437	26130
828.577	25974
828.716	26054
828.855	25898
828.994	25727
829.134	25723
829.273	25704
829.412	25620
829.551	25628
829.69	25738
829.829	25590
829.968	25658
830.107	25655
830.246	25658
830.385	25696
830.524	25506
830.663	25529
830.802	25419
830.941	25308
831.08	25335
831.219	25525
831.357	25426
831.496	25609
831.635	25350
831.774	25209
831.913	25259
832.051	25190
832.19	25141
832.329	25065
832.467	25122
832.606	24821
832.744	24970
832.883	24859
833.022	24897
833.16	24939
833.299	25050
833.437	25000
833.576	24970
833.714	25015
833.852	25015
833.991	25019
834.129	25057
834.267	25110
834.406	24989
834.544	25008
834.682	24954
834.821	24989
834.959	25228
835.097	24844
835.235	24890
835.373	24909
835.511	25061
835.65	24886
835.788	24798
835.926	24722
836.064	24715
836.202	24635
836.34	24806
836.478	24928
836.615	24856
836.753	24829
836.891	24878
837.029	24920
837.167	24745
837.305	24654
837.443	24696
837.58	24715
837.718	24741
837.856	24715
837.993	24654
838.131	24616
838.269	24540
838.406	24635
838.544	24437
838.681	24369
838.819	24292
838.956	24209
839.094	23996
839.231	24110
839.369	24448
839.506	24483
839.643	24467
839.781	24251
839.918	24034
840.055	24167
840.193	24148
840.33	24110
840.467	24057
840.604	24011
840.742	24391
840.879	24018
841.016	23961
841.153	23946
841.29	24163
841.427	23958
841.564	24186
841.701	24041
841.838	24057
841.975	23965
842.112	23958
842.249	23866
842.385	23874
842.522	24026
842.659	23935
842.796	23722
842.933	23893
843.069	23752
843.206	23748
843.343	23923
843.479	23855
843.616	23748
843.752	23554
843.889	23570
844.025	23695
844.162	23463
844.298	23630
844.435	23608
844.571	23539
844.708	23619
844.844	23767
844.98	23836
845.117	23687
845.253	23543
845.389	23410
845.525	23501
845.661	23410
845.798	23288
845.934	23292
846.07	23220
846.206	23273
846.342	23376
846.478	23265
846.614	23117
846.75	23003
846.886	23025
847.022	23109
847.158	23044
847.294	22984
847.429	23048
847.565	22873
847.701	23349
847.837	22698
847.972	22816
848.108	22889
848.244	22919
848.379	22687
848.515	22656
848.65	22615
848.786	22516
848.921	22603
849.057	22767
849.192	22771
849.328	22725
849.463	22694
849.598	22584
849.734	22466
849.869	22455
850.004	22512
850.14	22409
850.275	22481
850.41	22272
850.545	22363
850.68	22356
850.815	22356
850.95	22386
851.085	22577
851.22	22447
851.355	22402
851.49	22261
851.625	22394
851.76	22344
851.895	22261
852.03	22310
852.165	22421
852.299	22417
852.434	22531
852.569	22504
852.703	22341
852.838	22409
852.973	22664
853.107	22481
853.242	22375
853.376	22223
853.511	21991
853.645	22147
853.78	22363
853.914	22105
854.048	22147
854.183	22192
854.317	22158
854.451	22363
854.585	22192
854.72	22238
854.854	22363
854.988	22242
855.122	22131
855.256	22074
855.39	22265
855.524	22265
855.658	22306
855.792	22147
855.926	22265
856.06	22318
856.194	22337
856.327	22154
856.461	22139
856.595	22135
856.729	22234
856.862	22173
856.996	22230
857.13	22356
857.263	22322
857.397	22333
857.53	22284
857.664	22162
857.797	22253
857.931	22363
858.064	22219
858.197	22322
858.331	22135
858.464	22215
858.597	22150
858.731	22154
858.864	22120
858.997	22238
859.13	22223
859.263	22200
859.396	22230
859.529	22116
859.662	22158
859.795	22287
859.928	22325
860.061	22234
860.194	22375
860.327	22234
860.46	22230
860.592	22265
860.725	22436
860.858	22284
860.99	22322
861.123	22238
861.256	22090
861.388	22268
861.521	22961
861.653	21964
861.786	21994
861.918	22051
862.05	22017
862.183	22036
862.315	22131
862.447	22173
862.58	22101
862.712	21827
862.844	21850
862.976	21979
863.108	22017
863.24	22394
863.372	21888
863.504	21884
863.636	21880
863.768	21884
863.9	21911
864.032	21778
864.164	21800
864.296	21949
864.428	21922
864.559	22059
864.691	21994
864.823	21899
864.954	21937
865.086	21884
865.217	21812
865.349	21797
865.48	21682
865.612	21964
865.743	21968
865.875	21869
866.006	21861
866.137	21774
866.269	21774
866.4	21812
866.531	21637
866.662	21701
866.793	21663
866.924	21637
867.055	21759
867.186	21732
867.317	21732
867.448	21523
867.579	21679
867.71	21671
867.841	21698
867.972	21732
868.103	21720
868.233	21720
868.364	21701
868.495	21804
868.625	21888
868.756	22070
868.886	21857
869.017	21964
869.147	22002
869.278	22169
869.408	21819
869.539	21991
869.669	21968
869.799	22036
869.929	22006
870.06	22063
870.19	22242
870.32	22215
870.45	22344
870.58	22276
870.71	22455
870.84	22531
870.97	22405
871.1	22341
871.23	22523
871.36	22481
871.489	22459
871.619	22519
871.749	22634
871.879	22584
872.008	22729
872.138	22550
872.267	22615
872.397	22538
872.526	22424
872.656	22424
872.785	22272
872.915	22637
873.044	22694
873.173	22462
873.303	22645
873.432	22611
873.561	22698
873.69	22512
873.819	22596
873.948	22603
874.077	22546
874.206	22535
874.335	22573
874.464	22725
874.593	22850
874.722	22793
874.851	22850
874.979	22736
875.108	22710
875.237	22797
875.365	22759
875.494	22702
875.623	22778
875.751	22702
875.88	22797
876.008	22831
876.136	22987
876.265	23178
876.393	23277
876.521	23349
876.65	23223
876.778	23151
876.906	23143
877.034	23128
877.162	23303
877.29	23025
877.418	23079
877.546	23079
877.674	23189
877.802	23075
877.93	23022
878.058	23071
878.185	23041
878.313	23025
878.441	22980
878.568	23025
878.696	23098
878.824	23102
878.951	23189
879.079	23280
879.206	23311
879.333	23311
879.461	23216
879.588	23212
879.715	23410
879.842	23406
879.97	23322
880.097	22991
880.224	22938
880.351	23105
880.478	22930
880.605	22934
880.732	22938
880.859	23208
880.986	22927
881.112	22946
881.239	22885
881.366	22565
881.493	22493
881.619	22542
881.746	22592
881.872	22485
881.999	22512
882.125	22512
882.252	22592
882.378	22493
882.505	22630
882.631	22421
882.757	22207
882.883	22261
883.01	22223
883.136	22249
883.262	22078
883.388	22029
883.514	22166
883.64	22177
883.766	22086
883.892	22010
884.018	21972
884.143	22162
884.269	22223
884.395	21857
884.52	21812
884.646	21850
884.772	21808
884.897	21732
885.023	21838
885.148	21972
885.274	21983
885.399	21884
885.524	21785
885.65	21812
885.775	21911
885.9	21774
886.025	21991
886.15	21831
886.275	21701
886.4	21770
886.525	21827
886.65	21846
886.775	21690
886.9	21892
887.025	22082
887.149	21800
887.274	21614
887.399	21629
887.523	21641
887.648	21435
887.773	21424
887.897	21690
888.021	21644
888.146	21515
888.27	21545
888.395	21641
888.519	21614
888.643	21549
888.767	21622
888.891	21428
889.015	21386
889.139	21359
889.263	21458
889.387	21530
889.511	21549
889.635	21492
889.759	21321
889.883	21439
890.006	21348
890.13	21603
890.254	21294
890.377	21252
890.501	21074
890.624	21108
890.748	21127
890.871	21089
890.995	20838
891.118	20811
891.241	20857
891.364	20899
891.488	21093
891.611	20982
891.734	20956
891.857	20963
891.98	20899
892.103	20994
892.226	20925
892.349	20800
892.471	20857
892.594	20864
892.717	20891
892.839	20891
892.962	20796
893.085	20929
893.207	20701
893.33	20746
893.452	20845
893.575	20883
893.697	20815
893.819	20937
893.941	20986
894.064	20899
894.186	20762
894.308	20632
894.43	20971
894.552	21077
894.674	20788
894.796	20701
894.918	20777
895.04	20845
895.161	20861
895.283	20819
895.405	20800
895.526	20849
895.648	20762
895.769	20815
895.891	20876
896.012	20910
896.134	20811
896.255	20887
896.376	20807
896.498	20842
896.619	20979
896.74	20765
896.861	20834
896.982	21135
897.103	21310
897.224	21154
897.345	21093
897.466	21032
897.587	20830
897.708	21188
897.828	21005
897.949	20918
898.07	20830
898.19	20918
898.311	21142
898.431	20971
898.552	20918
898.672	21192
898.792	21036
898.913	20963
899.033	20765
899.153	20807
899.273	20716
899.393	20758
899.513	20834
899.633	20731
899.753	20804
899.873	20735
899.993	20739
900.113	20746
900.232	20819
900.352	20705
900.472	20511
900.591	20518
900.711	20632
900.83	20389
900.95	20617
901.069	20686
901.189	20366
901.308	20138
901.427	20096
901.546	20259
901.665	20153
901.784	20103
901.904	19928
902.023	19871
902.141	19666
902.26	19620
902.379	19753
902.498	19518
902.617	19544
902.735	19540
902.854	19571
902.973	19434
903.091	19213
903.21	19308
903.328	19362
903.446	19076
903.565	19057
903.683	19080
903.801	19095
903.919	18958
904.038	18977
904.156	18905
904.274	18924
904.392	18722
904.51	18783
904.627	18726
904.745	18798
904.863	18787
904.981	18483
905.098	18551
905.216	18502
905.334	18627
905.451	18475
905.569	18525
905.686	18551
905.803	18467
905.921	18277
906.038	18365
906.155	18319
906.272	18129
906.389	18209
906.506	18053
906.623	18057
906.74	18026
906.857	17954
906.974	17965
907.091	18121
907.208	18095
907.324	18015
907.441	17969
907.557	17832
907.674	17775
907.79	17657
907.907	17733
908.023	17745
908.139	17843
908.256	17699
908.372	17554
908.488	17668
908.604	17467
908.72	17455
908.836	17471
908.952	17395
909.068	17520
909.184	17592
909.3	17501
909.415	17497
909.531	17493
909.647	17231
909.762	17121
909.878	17170
909.993	17197
910.108	17155
910.224	17064
910.339	17094
910.454	17022
910.57	16987
910.685	16953
910.8	17147
910.915	17075
911.03	16942
911.145	16694
911.259	16683
911.374	16713
911.489	16660
911.604	16584
911.718	16455
911.833	16546
911.947	16497
912.062	16409
912.176	16531
912.291	16447
912.405	16489
912.519	16656
912.633	16611
912.748	16527
912.862	16352
912.976	16242
913.09	16059
913.204	16223
913.318	16367
913.431	16329
913.545	16443
913.659	16398
913.772	16322
913.886	16124
914	16109
914.113	16200
914.226	16105
914.34	16131
914.453	16063
914.566	16215
914.68	15998
914.793	15873
914.906	15759
915.019	15686
915.132	15637
915.245	15568
915.358	15751
915.47	15743
915.583	15660
915.696	15720
915.809	15743
915.921	15755
916.034	15599
916.146	15507
916.259	15526
916.371	15591
916.483	15599
916.595	15485
916.708	15443
916.82	15477
916.932	15492
917.044	15458
917.156	15450
917.268	15310
917.38	15332
917.491	15348
917.603	15287
917.715	15332
917.826	15367
917.938	15252
918.049	15135
918.161	15268
918.272	15264
918.384	15321
918.495	15211
918.606	15066
918.717	14963
918.828	15104
918.939	15146
919.05	14975
919.161	14963
919.272	14788
919.383	14948
919.494	15066
919.604	15218
919.715	15001
919.826	14872
919.936	14971
920.047	15089
920.157	15051
920.267	15230
920.378	15058
920.488	14925
920.598	15161
920.708	15279
920.818	15154
920.928	15127
921.038	15329
921.148	15154
921.258	14986
921.368	14800
921.477	14754
921.587	14781
921.697	14606
921.806	14724
921.916	14670
922.025	14412
922.134	14393
922.244	14362
922.353	14374
922.462	14339
922.571	14176
922.68	14016
922.789	14054
922.898	14031
923.007	13902
923.116	13993
923.224	13936
923.333	13967
923.442	13959
923.55	13864
923.659	13822
923.767	13883
923.876	13852
923.984	13784
924.092	13674
924.201	13776
924.309	13753
924.417	13674
924.525	13643
924.633	13708
924.741	14396
924.849	13495
924.956	13632
925.064	13445
925.172	13270
925.279	13308
925.387	13480
925.494	13358
925.602	13472
925.709	13362
925.816	13331
925.924	13422
926.031	13472
926.138	13327
926.245	13316
926.352	13221
926.459	13445
926.566	13373
926.673	13301
926.779	13137
926.886	13129
926.993	12962
927.099	12947
927.206	12821
927.312	12943
927.419	12962
927.525	12981
927.631	12875
927.737	12768
927.843	12795
927.95	12677
928.056	12829
928.162	12795
928.267	12787
928.373	13236
928.479	12817
928.585	12612
928.69	12684
928.796	12768
928.901	12654
929.007	12479
929.112	12642
929.218	12582
929.323	12452
929.428	12540
929.533	12604
929.638	12399
929.743	12448
929.848	12513
929.953	12410
930.058	12254
930.163	12186
930.267	12155
930.372	12338
930.477	12007
930.581	12296
930.685	12220
930.79	11988
930.894	12064
930.998	12053
931.103	12121
931.207	11798
931.311	11745
931.415	11604
931.519	11467
931.623	11395
