Data from test_V78500241_2345.txt Node
Date: Fri Mar 25 15:58:02 CST 2022
User: usil
Spectrometer: V785-0024
Trigger mode: 0
Integration Time (sec): 4.000000E-1
Scans to average: 1
Nonlinearity correction enabled: false
Boxcar width: 0
Storing dark spectrum: false
XAxis mode: Wavelengths
Number of Pixels in Spectrum: 1024
>>>>>Begin Spectral Data<<<<<
801.071	28622
801.214	28451
801.356	28280
801.499	28306
801.641	28067
801.783	28070
801.926	28185
802.068	28055
802.211	28158
802.353	28086
802.496	27918
802.638	27850
802.78	27876
802.923	27778
803.065	27644
803.208	27816
803.35	27861
803.492	27880
803.635	28082
803.777	27838
803.919	28177
804.061	28341
804.204	28105
804.346	28002
804.488	27994
804.63	28021
804.773	27949
804.915	28105
805.057	28303
805.199	28139
805.341	28177
805.483	28337
805.626	28253
805.768	28067
805.91	28196
806.052	28143
806.194	28074
806.336	28504
806.478	28223
806.62	28356
806.762	28390
806.904	28596
807.046	28702
807.188	28615
807.33	28485
807.472	28729
807.614	28535
807.756	28557
807.898	28470
808.04	28443
808.182	28504
808.324	28481
808.465	28637
808.607	28771
808.749	28919
808.891	28946
809.033	28942
809.174	28961
809.316	28839
809.458	28869
809.6	28721
809.741	29025
809.883	28942
810.025	29071
810.166	29132
810.308	29162
810.45	29140
810.591	28953
810.733	28965
810.875	28911
811.016	28869
811.158	28839
811.299	28953
811.441	29044
811.582	29086
811.724	28946
811.865	28812
812.007	28828
812.148	28809
812.29	28942
812.431	29109
812.573	29200
812.714	29326
812.855	29493
812.997	29474
813.138	29786
813.279	29509
813.421	29558
813.562	29364
813.703	29242
813.845	29041
813.986	28866
814.127	28752
814.268	28527
814.41	28611
814.551	28504
814.692	28557
814.833	28481
814.974	28664
815.115	28634
815.256	28523
815.397	28493
815.539	28497
815.68	28417
815.821	28409
815.962	28436
816.103	28424
816.244	28219
816.385	28192
816.526	28276
816.666	28025
816.807	27846
816.948	28006
817.089	28017
817.23	27759
817.371	27972
817.512	27854
817.653	27766
817.793	27770
817.934	27888
818.075	27808
818.216	27937
818.356	27895
818.497	27793
818.638	27675
818.778	27618
818.919	27713
819.06	27705
819.2	27793
819.341	27983
819.481	27930
819.622	28010
819.762	28337
819.903	28181
820.043	28048
820.184	28055
820.324	28063
820.465	28086
820.605	27998
820.746	28010
820.886	27987
821.026	28074
821.167	28063
821.307	27994
821.447	27895
821.588	27899
821.728	27743
821.868	27732
822.008	27507
822.149	27344
822.289	27401
822.429	27165
822.569	27192
822.709	27005
822.849	27013
822.99	26880
823.13	26750
823.27	26788
823.41	26602
823.55	26689
823.69	26693
823.83	26838
823.97	26693
824.11	26537
824.25	26545
824.389	26507
824.529	26648
824.669	26571
824.809	26682
824.949	26514
825.089	26556
825.228	26648
825.368	26507
825.508	26393
825.648	26431
825.787	26381
825.927	26366
826.067	26309
826.206	26362
826.346	26518
826.485	26560
826.625	26389
826.765	26549
826.904	26469
827.044	26233
827.183	26134
827.323	26142
827.462	26206
827.601	26145
827.741	26062
827.88	26111
828.02	26046
828.159	26130
828.298	26130
828.437	26202
828.577	26043
828.716	26240
828.855	25966
828.994	25940
829.134	25830
829.273	25852
829.412	25742
829.551	25868
829.69	25887
829.829	25913
829.968	25955
830.107	25890
830.246	25822
830.385	25833
830.524	25635
830.663	25769
830.802	25616
830.941	25377
831.08	25339
831.219	25586
831.357	25430
831.496	25601
831.635	25438
831.774	25308
831.913	25228
832.051	25251
832.19	25179
832.329	25209
832.467	25164
832.606	24901
832.744	25099
832.883	25122
833.022	25129
833.16	25069
833.299	25152
833.437	25072
833.576	25099
833.714	25209
833.852	25350
833.991	25244
834.129	25263
834.267	25076
834.406	25228
834.544	25297
834.682	25240
834.821	25183
834.959	25232
835.097	25255
835.235	25164
835.373	25072
835.511	25015
835.65	24935
835.788	24913
835.926	24989
836.064	24924
836.202	24844
836.34	24981
836.478	25046
836.615	24954
836.753	24954
836.891	24943
837.029	25076
837.167	24764
837.305	24802
837.443	24863
837.58	24768
837.718	24753
837.856	24833
837.993	24696
838.131	24916
838.269	24688
838.406	24707
838.544	24673
838.681	24547
838.819	24544
838.956	24311
839.094	24395
839.231	24395
839.369	24407
839.506	24620
839.643	24517
839.781	24422
839.918	24262
840.055	24357
840.193	24289
840.33	24011
840.467	24182
840.604	24076
840.742	24429
840.879	24095
841.016	24087
841.153	24117
841.29	24171
841.427	24163
841.564	24251
841.701	24190
841.838	24178
841.975	24098
842.112	24087
842.249	24087
842.385	23794
842.522	24117
842.659	24007
842.796	23912
842.933	24015
843.069	23916
843.206	23904
843.343	24060
843.479	23935
843.616	23973
843.752	23729
843.889	23634
844.025	23805
844.162	23665
844.298	23897
844.435	23684
844.571	23661
844.708	23748
844.844	23828
844.98	23824
845.117	23722
845.253	23691
845.389	23512
845.525	23589
845.661	23520
845.798	23379
845.934	23516
846.07	23524
846.206	23482
846.342	23497
846.478	23353
846.614	23235
846.75	23132
846.886	23200
847.022	23246
847.158	23181
847.294	23124
847.429	23235
847.565	23162
847.701	23429
847.837	22889
847.972	22790
848.108	22984
848.244	22915
848.379	22790
848.515	22835
848.65	22793
848.786	22706
848.921	22740
849.057	22854
849.192	22873
849.328	22740
849.463	22809
849.598	22721
849.734	22675
849.869	22615
850.004	22577
850.14	22615
850.275	22405
850.41	22470
850.545	22432
850.68	22504
850.815	22588
850.95	22466
851.085	22694
851.22	22535
851.355	22641
851.49	22459
851.625	22440
851.76	22474
851.895	22382
852.03	22333
852.165	22443
852.299	22478
852.434	22615
852.569	22512
852.703	22470
852.838	22485
852.973	22637
853.107	22649
853.242	22519
853.376	22348
853.511	22299
853.645	22329
853.78	22561
853.914	22417
854.048	22348
854.183	22344
854.317	22341
854.451	22542
854.585	22314
854.72	22371
854.854	22352
854.988	22200
855.122	22386
855.256	22291
855.39	22409
855.524	22276
855.658	22360
855.792	22363
855.926	22409
856.06	22291
856.194	22417
856.327	22314
856.461	22295
856.595	22295
856.729	22303
856.862	22542
856.996	22325
857.13	22421
857.263	22500
857.397	22421
857.53	22181
857.664	22303
857.797	22318
857.931	22436
858.064	22344
858.197	22409
858.331	22360
858.464	22219
858.597	22238
858.731	22352
858.864	22215
858.997	22242
859.13	22329
859.263	22341
859.396	22405
859.529	22356
859.662	22314
859.795	22207
859.928	22379
860.061	22443
860.194	22656
860.327	22504
860.46	22314
860.592	22341
860.725	22459
860.858	22493
860.99	22379
861.123	22257
861.256	22306
861.388	22447
861.521	23014
861.653	22230
861.786	22131
861.918	22112
862.05	22287
862.183	22154
862.315	22181
862.447	22265
862.58	22219
862.712	22040
862.844	21968
862.976	22131
863.108	22048
863.24	22497
863.372	22025
863.504	22097
863.636	22025
863.768	22017
863.9	22059
864.032	21861
864.164	21956
864.296	22040
864.428	22086
864.559	21979
864.691	22032
864.823	22086
864.954	22017
865.086	22082
865.217	22021
865.349	21956
865.48	21892
865.612	21899
865.743	21975
865.875	21899
866.006	21880
866.137	21884
866.269	21770
866.4	21804
866.531	21873
866.662	21785
866.793	21743
866.924	21831
867.055	21854
867.186	21876
867.317	21846
867.448	21671
867.579	21717
867.71	21705
867.841	21724
867.972	21857
868.103	21778
868.233	21854
868.364	21895
868.495	21911
868.625	22048
868.756	22173
868.886	22131
869.017	22051
869.147	22082
869.278	22211
869.408	22124
869.539	22101
869.669	22147
869.799	22226
869.929	22253
870.06	22188
870.19	22310
870.32	22352
870.45	22337
870.58	22440
870.71	22554
870.84	22588
870.97	22489
871.1	22344
871.23	22653
871.36	22618
871.489	22668
871.619	22618
871.749	22660
871.879	22660
872.008	22759
872.138	22717
872.267	22672
872.397	22603
872.526	22440
872.656	22489
872.785	22577
872.915	22611
873.044	22774
873.173	22713
873.303	22873
873.432	22778
873.561	22858
873.69	22828
873.819	22725
873.948	22656
874.077	22740
874.206	22577
874.335	22782
874.464	22790
874.593	22885
874.722	22911
874.851	23056
874.979	22934
875.108	22991
875.237	22797
875.365	22809
875.494	22904
875.623	23048
875.751	22824
875.88	22938
876.008	22972
876.136	23086
876.265	23193
876.393	23429
876.521	23429
876.65	23429
876.778	23326
876.906	23258
877.034	23292
877.162	23315
877.29	23193
877.418	23292
877.546	23288
877.674	23181
877.802	23299
877.93	23220
878.058	23322
878.185	23132
878.313	23235
878.441	23174
878.568	22972
878.696	23227
878.824	23334
878.951	23334
879.079	23478
879.206	23482
879.333	23292
879.461	23311
879.588	23501
879.715	23391
879.842	23535
879.97	23299
880.097	23033
880.224	23018
880.351	23102
880.478	22923
880.605	23003
880.732	23124
880.859	23345
880.986	23117
881.112	22904
881.239	22942
881.366	22896
881.493	22744
881.619	22569
881.746	22713
881.872	22691
881.999	22645
882.125	22634
882.252	22767
882.378	22588
882.505	22706
882.631	22497
882.757	22462
882.883	22459
883.01	22261
883.136	22280
883.262	22207
883.388	22059
883.514	22280
883.64	22166
883.766	22249
883.892	22082
884.018	22059
884.143	22272
884.269	22318
884.395	22021
884.52	21808
884.646	22010
884.772	21930
884.897	21846
885.023	21895
885.148	21960
885.274	22051
885.399	22010
885.524	21972
885.65	21884
885.775	22059
885.9	21857
886.025	22017
886.15	21991
886.275	21869
886.4	21838
886.525	21972
886.65	21865
886.775	21869
886.9	21941
887.025	22078
887.149	21964
887.274	21698
887.399	21679
887.523	21644
887.648	21679
887.773	21591
887.897	21762
888.021	21736
888.146	21663
888.27	21800
888.395	21819
888.519	21671
888.643	21698
888.767	21755
888.891	21686
889.015	21538
889.139	21561
889.263	21462
889.387	21504
889.511	21774
889.635	21599
889.759	21469
889.883	21393
890.006	21454
890.13	21682
890.254	21523
890.377	21454
890.501	21306
890.624	21302
890.748	21249
890.871	21142
890.995	21039
891.118	20994
891.241	20982
891.364	21112
891.488	21173
891.611	21100
891.734	21055
891.857	21184
891.98	21070
892.103	21047
892.226	21116
892.349	20979
892.471	20883
892.594	20914
892.717	20891
892.839	20823
892.962	20960
893.085	21001
893.207	20944
893.33	20777
893.452	20941
893.575	21032
893.697	20899
893.819	21093
893.941	21249
894.064	21024
894.186	20967
894.308	20864
894.43	20971
894.552	21024
894.674	20994
894.796	20883
894.918	20982
895.04	20864
895.161	21062
895.283	20979
895.405	20815
895.526	20986
895.648	20876
895.769	20933
895.891	21024
896.012	21009
896.134	20906
896.255	20849
896.376	20883
896.498	20986
896.619	21017
896.74	20975
896.861	20902
896.982	21256
897.103	21245
897.224	21096
897.345	21116
897.466	21135
897.587	21146
897.708	21294
897.828	21135
897.949	21070
898.07	20948
898.19	21032
898.311	21283
898.431	21081
898.552	21066
898.672	21123
898.792	21245
898.913	21184
899.033	21039
899.153	20876
899.273	20861
899.393	20880
899.513	20975
899.633	20864
899.753	20823
899.873	20724
899.993	20914
900.113	20807
900.232	20792
900.352	20682
900.472	20701
900.591	20670
900.711	20594
900.83	20480
900.95	20800
901.069	20659
901.189	20564
901.308	20355
901.427	20252
901.546	20180
901.665	20320
901.784	20145
901.904	20153
902.023	19982
902.141	19731
902.26	19685
902.379	19799
902.498	19704
902.617	19681
902.735	19708
902.854	19719
902.973	19609
903.091	19422
903.21	19324
903.328	19350
903.446	19327
903.565	19289
903.683	19114
903.801	18951
903.919	19160
904.038	19175
904.156	19023
904.274	19004
904.392	18935
904.51	18909
904.627	18821
904.745	18989
904.863	18890
904.981	18707
905.098	18654
905.216	18646
905.334	18623
905.451	18578
905.569	18494
905.686	18547
905.803	18578
905.921	18346
906.038	18475
906.155	18433
906.272	18228
906.389	18372
906.506	18174
906.623	18205
906.74	18167
906.857	18041
906.974	18026
907.091	18152
907.208	18220
907.324	18064
907.441	18148
907.557	17870
907.674	17870
907.79	17805
907.907	17668
908.023	17813
908.139	17836
908.256	17783
908.372	17790
908.488	17729
908.604	17589
908.72	17524
908.836	17535
908.952	17391
909.068	17535
909.184	17649
909.3	17630
909.415	17539
909.531	17486
909.647	17185
909.762	17258
909.878	17246
909.993	17147
910.108	17159
910.224	17200
910.339	17151
910.454	17109
910.57	17090
910.685	16892
910.8	17220
910.915	17159
911.03	17045
911.145	16740
911.259	16858
911.374	16721
911.489	16763
911.604	16702
911.718	16527
911.833	16615
911.947	16436
912.062	16352
912.176	16527
912.291	16554
912.405	16474
912.519	16793
912.633	16679
912.748	16649
912.862	16489
912.976	16367
913.09	16242
913.204	16325
913.318	16341
913.431	16436
913.545	16341
913.659	16512
913.772	16303
913.886	16158
914	16139
914.113	16341
914.226	16257
914.34	16154
914.453	15987
914.566	16162
914.68	16135
914.793	16025
914.906	15838
915.019	15679
915.132	15694
915.245	15652
915.358	15751
915.47	15789
915.583	15682
915.696	15778
915.809	15899
915.921	15968
916.034	15576
916.146	15705
916.259	15591
916.371	15762
916.483	15614
916.595	15610
916.708	15625
916.82	15648
916.932	15553
917.044	15485
917.156	15538
917.268	15325
917.38	15405
917.491	15367
917.603	15367
917.715	15378
917.826	15412
917.938	15382
918.049	15207
918.161	15260
918.272	15424
918.384	15473
918.495	15279
918.606	15112
918.717	15108
918.828	15226
918.939	15203
919.05	15005
919.161	15169
919.272	15009
919.383	14990
919.494	15161
919.604	15374
919.715	15058
919.826	15001
919.936	15135
920.047	15222
920.157	15104
920.267	15348
920.378	15108
920.488	15020
920.598	15222
920.708	15370
920.818	15176
920.928	15176
921.038	15454
921.148	15317
921.258	15184
921.368	14948
921.477	14804
921.587	14826
921.697	14705
921.806	14910
921.916	14621
922.025	14488
922.134	14339
922.244	14427
922.353	14499
922.462	14290
922.571	14343
922.68	14103
922.789	14062
922.898	14172
923.007	14084
923.116	14119
923.224	14069
923.333	14115
923.442	13982
923.55	14012
923.659	14073
923.767	13967
923.876	13868
923.984	13940
924.092	13852
924.201	13906
924.309	13898
924.417	13928
924.525	13757
924.633	13712
924.741	14659
924.849	13578
924.956	13674
925.064	13548
925.172	13400
925.279	13480
925.387	13476
925.494	13514
925.602	13605
925.709	13636
925.816	13339
925.924	13457
926.031	13457
926.138	13426
926.245	13521
926.352	13293
926.459	13460
926.566	13544
926.673	13335
926.779	13160
926.886	13282
926.993	13095
927.099	13152
927.206	13042
927.312	13000
927.419	13023
927.525	13076
927.631	13133
927.737	12966
927.843	12913
927.95	12768
928.056	12833
928.162	12939
928.267	12837
928.373	13582
928.479	12977
928.585	12696
928.69	12776
928.796	12867
928.901	12658
929.007	12486
929.112	12741
929.218	12688
929.323	12604
929.428	12521
929.533	12711
929.638	12506
929.743	12506
929.848	12574
929.953	12445
930.058	12429
930.163	12190
930.267	12247
930.372	12365
930.477	12136
930.581	12384
930.685	12289
930.79	12060
930.894	12106
930.998	12167
931.103	12205
931.207	11897
931.311	11851
931.415	11783
931.519	11528
931.623	11520
