Data from test_V78500241_2947.txt Node
Date: Fri Mar 25 16:02:12 CST 2022
User: usil
Spectrometer: V785-0024
Trigger mode: 0
Integration Time (sec): 4.000000E-1
Scans to average: 1
Nonlinearity correction enabled: false
Boxcar width: 0
Storing dark spectrum: false
XAxis mode: Wavelengths
Number of Pixels in Spectrum: 1024
>>>>>Begin Spectral Data<<<<<
801.071	28885
801.214	28858
801.356	28561
801.499	28466
801.641	28512
801.783	28287
801.926	28474
802.068	28413
802.211	28363
802.353	28272
802.496	28055
802.638	28105
802.78	28139
802.923	27930
803.065	27842
803.208	28120
803.35	28116
803.492	28223
803.635	28143
803.777	28204
803.919	28196
804.061	28497
804.204	28390
804.346	28215
804.488	28253
804.63	28207
804.773	28261
804.915	28447
805.057	28546
805.199	28314
805.341	28428
805.483	28580
805.626	28527
805.768	28314
805.91	28653
806.052	28466
806.194	28382
806.336	28672
806.478	28504
806.62	28588
806.762	28634
806.904	28812
807.046	28946
807.188	29044
807.33	28881
807.472	29014
807.614	28885
807.756	28946
807.898	28927
808.04	28729
808.182	28607
808.324	28847
808.465	28607
808.607	29025
808.749	29231
808.891	29360
809.033	29311
809.174	29223
809.316	29037
809.458	29356
809.6	29079
809.741	29379
809.883	29364
810.025	29402
810.166	29497
810.308	29440
810.45	29303
810.591	29402
810.733	29151
810.875	29181
811.016	28987
811.158	29010
811.299	29337
811.441	29345
811.582	29334
811.724	29204
811.865	29303
812.007	29136
812.148	29284
812.29	29345
812.431	29349
812.573	29562
812.714	29710
812.855	29764
812.997	29798
813.138	29950
813.279	29843
813.421	29771
813.562	29573
813.703	29528
813.845	29349
813.986	29147
814.127	29044
814.268	28904
814.41	29003
814.551	28911
814.692	28942
814.833	28828
814.974	28999
815.115	28961
815.256	28858
815.397	28782
815.539	28763
815.68	28653
815.821	28672
815.962	28847
816.103	28733
816.244	28542
816.385	28421
816.526	28401
816.666	28333
816.807	28131
816.948	28459
817.089	28257
817.23	28147
817.371	28272
817.512	28158
817.653	28131
817.793	28223
817.934	28249
818.075	28131
818.216	28200
818.356	28128
818.497	28185
818.638	28025
818.778	27930
818.919	28013
819.06	27983
819.2	28082
819.341	28291
819.481	28207
819.622	28367
819.762	28493
819.903	28554
820.043	28314
820.184	28443
820.324	28367
820.465	28394
820.605	28318
820.746	28234
820.886	28124
821.026	28405
821.167	28230
821.307	28360
821.447	28261
821.588	28135
821.728	28070
821.868	27861
822.008	27823
822.149	27717
822.289	27747
822.429	27519
822.569	27469
822.709	27325
822.849	27256
822.99	27264
823.13	27112
823.27	27287
823.41	27062
823.55	27039
823.69	27066
823.83	27142
823.97	27001
824.11	27036
824.25	26963
824.389	26921
824.529	26998
824.669	26876
824.809	27039
824.949	26994
825.089	26937
825.228	26933
825.368	26811
825.508	26899
825.648	26864
825.787	26811
825.927	26724
826.067	26590
826.206	26872
826.346	26823
826.485	26743
826.625	26781
826.765	26815
826.904	26883
827.044	26518
827.183	26762
827.323	26434
827.462	26579
827.601	26556
827.741	26431
827.88	26499
828.02	26499
828.159	26492
828.298	26499
828.437	26579
828.577	26503
828.716	26587
828.855	26526
828.994	26172
829.134	26324
829.273	26202
829.412	26153
829.551	26142
829.69	26214
829.829	26126
829.968	26221
830.107	26339
830.246	26161
830.385	26187
830.524	25986
830.663	25951
830.802	25833
830.941	25856
831.08	25723
831.219	25811
831.357	25883
831.496	25989
831.635	25788
831.774	25849
831.913	25681
832.051	25647
832.19	25628
832.329	25521
832.467	25563
832.606	25552
832.744	25483
832.883	25510
833.022	25495
833.16	25411
833.299	25540
833.437	25483
833.576	25563
833.714	25533
833.852	25605
833.991	25624
834.129	25746
834.267	25575
834.406	25681
834.544	25529
834.682	25544
834.821	25559
834.959	25784
835.097	25415
835.235	25586
835.373	25464
835.511	25438
835.65	25407
835.788	25415
835.926	25282
836.064	25156
836.202	25289
836.34	25419
836.478	25358
836.615	25289
836.753	25411
836.891	25346
837.029	25381
837.167	25206
837.305	25240
837.443	25270
837.58	25023
837.718	25145
837.856	25156
837.993	25152
838.131	25099
838.269	24973
838.406	25145
838.544	25080
838.681	24757
838.819	24817
838.956	24635
839.094	24578
839.231	24623
839.369	24719
839.506	24920
839.643	24924
839.781	24658
839.918	24692
840.055	24631
840.193	24513
840.33	24551
840.467	24620
840.604	24490
840.742	24848
840.879	24357
841.016	24494
841.153	24289
841.29	24582
841.427	24544
841.564	24532
841.701	24502
841.838	24399
841.975	24471
842.112	24513
842.249	24308
842.385	24228
842.522	24536
842.659	24464
842.796	24239
842.933	24304
843.069	24243
843.206	24304
843.343	24338
843.479	24315
843.616	24289
843.752	24057
843.889	24015
844.025	24213
844.162	24011
844.298	24159
844.435	23973
844.571	24015
844.708	24083
844.844	24410
844.98	24285
845.117	24114
845.253	24076
845.389	23863
845.525	24007
845.661	24121
845.798	23805
845.934	23798
846.07	23863
846.206	23855
846.342	23916
846.478	23684
846.614	23558
846.75	23501
846.886	23524
847.022	23577
847.158	23455
847.294	23551
847.429	23562
847.565	23585
847.701	23775
847.837	23330
847.972	23136
848.108	23337
848.244	23303
848.379	23181
848.515	23193
848.65	23075
848.786	23079
848.921	23075
849.057	23250
849.192	23280
849.328	23216
849.463	23117
849.598	22976
849.734	23048
849.869	22995
850.004	22896
850.14	23018
850.275	22869
850.41	22850
850.545	22843
850.68	22911
850.815	22881
850.95	22847
851.085	23064
851.22	22957
851.355	22900
851.49	22919
851.625	22820
851.76	22847
851.895	22835
852.03	22656
852.165	22854
852.299	23014
852.434	22919
852.569	22991
852.703	22961
852.838	22858
852.973	23067
853.107	22930
853.242	22771
853.376	22672
853.511	22542
853.645	22611
853.78	22820
853.914	22694
854.048	22596
854.183	22721
854.317	22736
854.451	22953
854.585	22626
854.72	22816
854.854	22824
854.988	22675
855.122	22725
855.256	22679
855.39	22721
855.524	22736
855.658	22812
855.792	22828
855.926	22687
856.06	22778
856.194	22778
856.327	22805
856.461	22596
856.595	22660
856.729	22713
856.862	22736
856.996	22637
857.13	22679
857.263	22809
857.397	22866
857.53	22710
857.664	22797
857.797	22710
857.931	22843
858.064	22713
858.197	22797
858.331	22725
858.464	22694
858.597	22546
858.731	22733
858.864	22706
858.997	22782
859.13	22786
859.263	22694
859.396	22748
859.529	22599
859.662	22645
859.795	22630
859.928	22721
860.061	22820
860.194	22896
860.327	22782
860.46	22717
860.592	22896
860.725	22812
860.858	22828
860.99	22710
861.123	22630
861.256	22729
861.388	22637
861.521	23600
861.653	22668
861.786	22413
861.918	22516
862.05	22493
862.183	22710
862.315	22653
862.447	22569
862.58	22706
862.712	22424
862.844	22344
862.976	22417
863.108	22527
863.24	22797
863.372	22207
863.504	22337
863.636	22424
863.768	22371
863.9	22371
864.032	22299
864.164	22360
864.296	22440
864.428	22493
864.559	22523
864.691	22474
864.823	22329
864.954	22409
865.086	22352
865.217	22421
865.349	22207
865.48	22295
865.612	22291
865.743	22386
865.875	22276
866.006	22261
866.137	22382
866.269	22424
866.4	22261
866.531	22291
866.662	22204
866.793	22188
866.924	22360
867.055	22196
867.186	22253
867.317	22067
867.448	22032
867.579	22188
867.71	22097
867.841	22082
867.972	22139
868.103	22272
868.233	22306
868.364	22223
868.495	22287
868.625	22436
868.756	22550
868.886	22417
869.017	22405
869.147	22519
869.278	22611
869.408	22504
869.539	22478
869.669	22542
869.799	22481
869.929	22535
870.06	22672
870.19	22736
870.32	22759
870.45	22653
870.58	22835
870.71	22828
870.84	22961
870.97	22793
871.1	22892
871.23	22927
871.36	22946
871.489	22919
871.619	22923
871.749	23052
871.879	23124
872.008	23166
872.138	23083
872.267	22976
872.397	22896
872.526	22828
872.656	22843
872.785	22957
872.915	23193
873.044	23143
873.173	23109
873.303	23159
873.432	23151
873.561	23242
873.69	23086
873.819	22976
873.948	23083
874.077	23113
874.206	23071
874.335	23041
874.464	23181
874.593	23315
874.722	23204
874.851	23242
874.979	23410
875.108	23398
875.237	23265
875.365	23102
875.494	23223
875.623	23330
875.751	23277
875.88	23345
876.008	23261
876.136	23493
876.265	23608
876.393	23760
876.521	23714
876.65	23764
876.778	23687
876.906	23672
877.034	23566
877.162	23703
877.29	23528
877.418	23604
877.546	23558
877.674	23695
877.802	23551
877.93	23638
878.058	23509
878.185	23433
878.313	23585
878.441	23600
878.568	23356
878.696	23668
878.824	23722
878.951	23729
879.079	23802
879.206	23901
879.333	23813
879.461	23756
879.588	23707
879.715	23821
879.842	23893
879.97	23581
880.097	23459
880.224	23349
880.351	23509
880.478	23463
880.605	23410
880.732	23417
880.859	23684
880.986	23398
881.112	23547
881.239	23296
881.366	23170
881.493	22953
881.619	23025
881.746	23014
881.872	22980
881.999	22995
882.125	22972
882.252	23037
882.378	23041
882.505	23056
882.631	22767
882.757	22752
882.883	22774
883.01	22653
883.136	22679
883.262	22565
883.388	22596
883.514	22618
883.64	22611
883.766	22618
883.892	22386
884.018	22440
884.143	22618
884.269	22599
884.395	22352
884.52	22196
884.646	22280
884.772	22162
884.897	22295
885.023	22295
885.148	22447
885.274	22337
885.399	22466
885.524	22173
885.65	22318
885.775	22352
885.9	22226
886.025	22409
886.15	22265
886.275	22246
886.4	22177
886.525	22322
886.65	22234
886.775	22154
886.9	22375
887.025	22462
887.149	22238
887.274	22006
887.399	22021
887.523	22112
887.648	22040
887.773	21907
887.897	22097
888.021	21964
888.146	22010
888.27	22032
888.395	22112
888.519	22044
888.643	22128
888.767	21968
888.891	21895
889.015	21861
889.139	22017
889.263	21888
889.387	21953
889.511	21937
889.635	21960
889.759	21759
889.883	21838
890.006	21850
890.13	21854
890.254	21755
890.377	21827
890.501	21667
890.624	21542
890.748	21629
890.871	21542
890.995	21195
891.118	21370
891.241	21416
891.364	21412
891.488	21488
891.611	21416
891.734	21393
891.857	21397
891.98	21325
892.103	21264
892.226	21370
892.349	21283
892.471	21093
892.594	21165
892.717	21367
892.839	21195
892.962	21325
893.085	21435
893.207	21310
893.33	21108
893.452	21207
893.575	21389
893.697	21211
893.819	21351
893.941	21561
894.064	21431
894.186	21252
894.308	21157
894.43	21199
894.552	21466
894.674	21363
894.796	21249
894.918	21195
895.04	21241
895.161	21302
895.283	21279
895.405	21199
895.526	21192
895.648	21252
895.769	21260
895.891	21230
896.012	21275
896.134	21214
896.255	21214
896.376	21173
896.498	21329
896.619	21291
896.74	21184
896.861	21344
896.982	21641
897.103	21656
897.224	21488
897.345	21405
897.466	21511
897.587	21408
897.708	21641
897.828	21507
897.949	21431
898.07	21249
898.19	21256
898.311	21462
898.431	21325
898.552	21458
898.672	21553
898.792	21553
898.913	21397
899.033	21336
899.153	21195
899.273	21100
899.393	21195
899.513	21332
899.633	21192
899.753	21169
899.873	21043
899.993	21116
900.113	21157
900.232	21119
900.352	21108
900.472	20891
900.591	20941
900.711	20948
900.83	20838
900.95	21119
901.069	21028
901.189	20853
901.308	20636
901.427	20568
901.546	20465
901.665	20587
901.784	20518
901.904	20343
902.023	20206
902.141	20043
902.26	20031
902.379	20012
902.498	20073
902.617	20005
902.735	20046
902.854	20005
902.973	19879
903.091	19510
903.21	19708
903.328	19647
903.446	19616
903.565	19495
903.683	19415
903.801	19377
903.919	19487
904.038	19400
904.156	19168
904.274	19278
904.392	19221
904.51	19099
904.627	19179
904.745	19202
904.863	19221
904.981	18844
905.098	18920
905.216	18859
905.334	18913
905.451	18875
905.569	18829
905.686	18916
905.803	18840
905.921	18589
906.038	18757
906.155	18711
906.272	18536
906.389	18608
906.506	18422
906.623	18422
906.74	18384
906.857	18304
906.974	18380
907.091	18403
907.208	18574
907.324	18441
907.441	18304
907.557	18026
907.674	18015
907.79	17999
907.907	18053
908.023	18148
908.139	18178
908.256	18102
908.372	17992
908.488	17904
908.604	17923
908.72	17805
908.836	17824
908.952	17703
909.068	17855
909.184	17878
909.3	17863
909.415	17805
909.531	17809
909.647	17577
909.762	17551
909.878	17471
909.993	17589
910.108	17417
910.224	17448
910.339	17482
910.454	17341
910.57	17239
910.685	17296
910.8	17543
910.915	17543
911.03	17349
911.145	17067
911.259	17060
911.374	17086
911.489	17060
911.604	17022
911.718	16930
911.833	16839
911.947	16744
912.062	16748
912.176	16919
912.291	16908
912.405	16797
912.519	17041
912.633	17079
912.748	16953
912.862	16809
912.976	16706
913.09	16622
913.204	16561
913.318	16611
913.431	16691
913.545	16660
913.659	16630
913.772	16573
913.886	16409
914	16443
914.113	16535
914.226	16497
914.34	16432
914.453	16348
914.566	16382
914.68	16344
914.793	16318
914.906	16109
915.019	16002
915.132	16013
915.245	16051
915.358	16082
915.47	16078
915.583	16013
915.696	15975
915.809	16021
915.921	16040
916.034	15873
916.146	15854
916.259	15865
916.371	16067
916.483	15892
916.595	15808
916.708	15812
916.82	15686
916.932	15774
917.044	15705
917.156	15698
917.268	15667
917.38	15705
917.491	15648
917.603	15587
917.715	15652
917.826	15762
917.938	15637
918.049	15443
918.161	15530
918.272	15667
918.384	15739
918.495	15500
918.606	15348
918.717	15348
918.828	15367
918.939	15519
919.05	15241
919.161	15351
919.272	15192
919.383	15211
919.494	15382
919.604	15477
919.715	15416
919.826	15218
919.936	15344
920.047	15344
920.157	15340
920.267	15469
920.378	15325
920.488	15272
920.598	15485
920.708	15534
920.818	15367
920.928	15439
921.038	15603
921.148	15610
921.258	15260
921.368	15211
921.477	15116
921.587	15077
921.697	14861
921.806	15013
921.916	14975
922.025	14724
922.134	14674
922.244	14682
922.353	14670
922.462	14560
922.571	14434
922.68	14275
922.789	14256
922.898	14400
923.007	14328
923.116	14381
923.224	14267
923.333	14298
923.442	14187
923.55	14210
923.659	14145
923.767	14100
923.876	14058
923.984	14138
924.092	13986
924.201	14062
924.309	14054
924.417	14062
924.525	13883
924.633	13932
924.741	14914
924.849	13677
924.956	13833
925.064	13757
925.172	13590
925.279	13685
925.387	13742
925.494	13696
925.602	13803
925.709	13723
925.816	13559
925.924	13624
926.031	13693
926.138	13662
926.245	13677
926.352	13586
926.459	13601
926.566	13605
926.673	13537
926.779	13384
926.886	13384
926.993	13145
927.099	13194
927.206	13141
927.312	13202
927.419	13213
927.525	13198
927.631	13187
927.737	13099
927.843	13088
927.95	12882
928.056	13076
928.162	13042
928.267	13046
928.373	13666
928.479	13137
928.585	12863
928.69	12947
928.796	12966
928.901	12924
929.007	12779
929.112	12859
929.218	12859
929.323	12738
929.428	12669
929.533	12897
929.638	12604
929.743	12711
929.848	12715
929.953	12662
930.058	12574
930.163	12346
930.267	12422
930.372	12509
930.477	12323
930.581	12654
930.685	12502
930.79	12194
930.894	12338
930.998	12209
931.103	12361
931.207	12106
931.311	11977
931.415	11893
931.519	11695
931.623	11615
