Data from test_V78500241_827.txt Node
Date: Fri Mar 25 15:47:31 CST 2022
User: usil
Spectrometer: V785-0024
Trigger mode: 0
Integration Time (sec): 4.000000E-1
Scans to average: 1
Nonlinearity correction enabled: false
Boxcar width: 0
Storing dark spectrum: false
XAxis mode: Wavelengths
Number of Pixels in Spectrum: 1024
>>>>>Begin Spectral Data<<<<<
801.071	27797
801.214	27812
801.356	27405
801.499	27492
801.641	27325
801.783	27325
801.926	27511
802.068	27325
802.211	27351
802.353	27123
802.496	26937
802.638	27017
802.78	27028
802.923	26960
803.065	26834
803.208	26967
803.35	27047
803.492	27085
803.635	27268
803.777	27017
803.919	27272
804.061	27526
804.204	27256
804.346	27157
804.488	27135
804.63	27089
804.773	27100
804.915	27161
805.057	27321
805.199	27062
805.341	27249
805.483	27389
805.626	27222
805.768	27154
805.91	27211
806.052	27298
806.194	27161
806.336	27603
806.478	27287
806.62	27359
806.762	27427
806.904	27523
807.046	27804
807.188	27694
807.33	27747
807.472	27850
807.614	27675
807.756	27835
807.898	27625
808.04	27519
808.182	27641
808.324	27591
808.465	27564
808.607	27793
808.749	27975
808.891	28044
809.033	28139
809.174	28086
809.316	27991
809.458	27884
809.6	27865
809.741	28120
809.883	28173
810.025	28333
810.166	28238
810.308	28284
810.45	28303
810.591	28109
810.733	27979
810.875	27945
811.016	27876
811.158	27785
811.299	28105
811.441	28131
811.582	28169
811.724	28070
811.865	27991
812.007	28074
812.148	28017
812.29	28051
812.431	28181
812.573	28436
812.714	28516
812.855	28508
812.997	28398
813.138	28767
813.279	28603
813.421	28523
813.562	28580
813.703	28401
813.845	28272
813.986	27903
814.127	27728
814.268	27797
814.41	27724
814.551	27553
814.692	27705
814.833	27564
814.974	27534
815.115	27686
815.256	27720
815.397	27454
815.539	27580
815.68	27462
815.821	27515
815.962	27488
816.103	27420
816.244	27306
816.385	27275
816.526	27245
816.666	27112
816.807	27024
816.948	26899
817.089	27096
817.23	26914
817.371	26998
817.512	26952
817.653	27074
817.793	26849
817.934	26861
818.075	26998
818.216	26940
818.356	26918
818.497	26880
818.638	26644
818.778	26716
818.919	26640
819.06	26777
819.2	26773
819.341	26956
819.481	27001
819.622	27169
819.762	27332
819.903	27108
820.043	27142
820.184	27081
820.324	27085
820.465	27070
820.605	27036
820.746	27085
820.886	26815
821.026	27013
821.167	26960
821.307	27089
821.447	26853
821.588	26975
821.728	26750
821.868	26655
822.008	26404
822.149	26309
822.289	26427
822.429	26164
822.569	26107
822.709	26119
822.849	25966
822.99	26031
823.13	25871
823.27	25921
823.41	25708
823.55	25693
823.69	25795
823.83	25723
823.97	25734
824.11	25521
824.25	25586
824.389	25670
824.529	25655
824.669	25753
824.809	25757
824.949	25765
825.089	25635
825.228	25719
825.368	25476
825.508	25403
825.648	25468
825.787	25521
825.927	25453
826.067	25434
826.206	25419
826.346	25476
826.485	25346
826.625	25392
826.765	25620
826.904	25495
827.044	25084
827.183	25289
827.323	25251
827.462	25225
827.601	25152
827.741	25183
827.88	25232
828.02	24992
828.159	25255
828.298	25148
828.437	25164
828.577	25179
828.716	25217
828.855	25095
828.994	24730
829.134	24901
829.273	24970
829.412	24897
829.551	24837
829.69	24916
829.829	25000
829.968	24985
830.107	24932
830.246	24829
830.385	24768
830.524	24753
830.663	24665
830.802	24597
830.941	24460
831.08	24429
831.219	24559
831.357	24528
831.496	24711
831.635	24433
831.774	24327
831.913	24388
832.051	24292
832.19	24228
832.329	24224
832.467	24030
832.606	24190
832.744	24178
832.883	24064
833.022	24117
833.16	24041
833.299	24174
833.437	24098
833.576	24338
833.714	24220
833.852	24273
833.991	24216
834.129	24350
834.267	24384
834.406	24163
834.544	24304
834.682	24197
834.821	24186
834.959	24254
835.097	24076
835.235	24178
835.373	24068
835.511	24049
835.65	24072
835.788	24068
835.926	23851
836.064	23904
836.202	23859
836.34	23999
836.478	24106
836.615	23954
836.753	24011
836.891	23977
837.029	24201
837.167	23996
837.305	23946
837.443	23923
837.58	23855
837.718	23916
837.856	23878
837.993	23878
838.131	23824
838.269	23737
838.406	23748
838.544	23707
838.681	23455
838.819	23539
838.956	23296
839.094	23433
839.231	23417
839.369	23467
839.506	23634
839.643	23668
839.781	23360
839.918	23311
840.055	23383
840.193	23326
840.33	23250
840.467	23307
840.604	23322
840.742	23638
840.879	23185
841.016	23254
841.153	23193
841.29	23334
841.427	23345
841.564	23288
841.701	23117
841.838	23132
841.975	23151
842.112	23261
842.249	22953
842.385	23121
842.522	23383
842.659	23113
842.796	22919
842.933	22972
843.069	23010
843.206	22976
843.343	23140
843.479	22995
843.616	22995
843.752	22740
843.889	22752
844.025	22896
844.162	22835
844.298	22854
844.435	22721
844.571	22778
844.708	22896
844.844	22854
844.98	22934
845.117	22839
845.253	22691
845.389	22580
845.525	22691
845.661	22626
845.798	22527
845.934	22554
846.07	22481
846.206	22413
846.342	22675
846.478	22542
846.614	22352
846.75	22112
846.886	22188
847.022	22272
847.158	22310
847.294	22207
847.429	22166
847.565	22276
847.701	22413
847.837	21949
847.972	21937
848.108	22093
848.244	21979
848.379	21960
848.515	21762
848.65	21675
848.786	21873
848.921	21876
849.057	21949
849.192	21968
849.328	21876
849.463	21831
849.598	21762
849.734	21766
849.869	21545
850.004	21682
850.14	21709
850.275	21568
850.41	21591
850.545	21606
850.68	21466
850.815	21591
850.95	21530
851.085	21751
851.22	21663
851.355	21622
851.49	21625
851.625	21637
851.76	21606
851.895	21591
852.03	21496
852.165	21526
852.299	21660
852.434	21797
852.569	21561
852.703	21549
852.838	21679
852.973	21663
853.107	21709
853.242	21534
853.376	21420
853.511	21313
853.645	21317
853.78	21420
853.914	21416
854.048	21348
854.183	21526
854.317	21374
854.451	21542
854.585	21313
854.72	21545
854.854	21492
854.988	21237
855.122	21397
855.256	21226
855.39	21370
855.524	21507
855.658	21500
855.792	21488
855.926	21382
856.06	21481
856.194	21481
856.327	21424
856.461	21408
856.595	21268
856.729	21386
856.862	21386
856.996	21530
857.13	21519
857.263	21515
857.397	21504
857.53	21386
857.664	21454
857.797	21488
857.931	21507
858.064	21526
858.197	21549
858.331	21344
858.464	21389
858.597	21355
858.731	21420
858.864	21344
858.997	21393
859.13	21408
859.263	21466
859.396	21530
859.529	21317
859.662	21306
859.795	21428
859.928	21321
860.061	21583
860.194	21568
860.327	21481
860.46	21397
860.592	21622
860.725	21644
860.858	21447
860.99	21382
861.123	21283
861.256	21226
861.388	21321
861.521	21953
861.653	21431
861.786	21249
861.918	21313
862.05	21218
862.183	21249
862.315	21340
862.447	21469
862.58	21302
862.712	21028
862.844	21108
862.976	21058
863.108	21142
863.24	21599
863.372	20971
863.504	21020
863.636	21233
863.768	21157
863.9	21150
864.032	21020
864.164	21096
864.296	21192
864.428	21207
864.559	21154
864.691	21214
864.823	21161
864.954	21161
865.086	21036
865.217	21001
865.349	21055
865.48	20963
865.612	21051
865.743	21169
865.875	20979
866.006	21074
866.137	21093
866.269	20952
866.4	20979
866.531	20834
866.662	20914
866.793	20990
866.924	20929
867.055	20963
867.186	20952
867.317	21001
867.448	20731
867.579	20887
867.71	20845
867.841	20857
867.972	20963
868.103	20933
868.233	20952
868.364	20925
868.495	21043
868.625	21169
868.756	21264
868.886	21108
869.017	21211
869.147	21378
869.278	21165
869.408	21233
869.539	21298
869.669	21344
869.799	21116
869.929	21351
870.06	21332
870.19	21568
870.32	21545
870.45	21530
870.58	21679
870.71	21797
870.84	21618
870.97	21599
871.1	21625
871.23	21694
871.36	21739
871.489	21736
871.619	21705
871.749	21812
871.879	21937
872.008	21937
872.138	21781
872.267	21800
872.397	21660
872.526	21599
872.656	21591
872.785	21717
872.915	21774
873.044	21857
873.173	21808
873.303	21739
873.432	21831
873.561	21854
873.69	21922
873.819	21888
873.948	21949
874.077	21831
874.206	21785
874.335	21865
874.464	21937
874.593	22067
874.722	21983
874.851	21983
874.979	22105
875.108	22131
875.237	22010
875.365	21926
875.494	21975
875.623	22101
875.751	22029
875.88	22010
876.008	22086
876.136	22325
876.265	22333
876.393	22523
876.521	22470
876.65	22382
876.778	22516
876.906	22455
877.034	22314
877.162	22337
877.29	22360
877.418	22352
877.546	22299
877.674	22424
877.802	22341
877.93	22333
878.058	22398
878.185	22295
878.313	22291
878.441	22363
878.568	22287
878.696	22379
878.824	22291
878.951	22485
879.079	22512
879.206	22618
879.333	22538
879.461	22409
879.588	22459
879.715	22538
879.842	22573
879.97	22421
880.097	22207
880.224	22204
880.351	22238
880.478	22325
880.605	22166
880.732	22219
880.859	22466
880.986	22318
881.112	22215
881.239	22074
881.366	21979
881.493	21781
881.619	21766
881.746	21804
881.872	21770
881.999	21755
882.125	21648
882.252	21838
882.378	21800
882.505	21812
882.631	21644
882.757	21500
882.883	21462
883.01	21485
883.136	21591
883.262	21298
883.388	21256
883.514	21523
883.64	21488
883.766	21412
883.892	21233
884.018	21279
884.143	21393
884.269	21416
884.395	21291
884.52	21081
884.646	21062
884.772	21066
884.897	21127
885.023	21184
885.148	21135
885.274	21184
885.399	21218
885.524	21184
885.65	21070
885.775	21199
885.9	21112
886.025	21112
886.15	21195
886.275	21058
886.4	21005
886.525	21085
886.65	21062
886.775	20971
886.9	21180
887.025	21245
887.149	21135
887.274	20960
887.399	20921
887.523	20796
887.648	20735
887.773	20750
887.897	21017
888.021	20861
888.146	20921
888.27	20967
888.395	20967
888.519	20979
888.643	20845
888.767	20967
888.891	20826
889.015	20727
889.139	20762
889.263	20667
889.387	20807
889.511	20883
889.635	20743
889.759	20689
889.883	20609
890.006	20670
890.13	20640
890.254	20537
890.377	20571
890.501	20389
890.624	20381
890.748	20480
890.871	20389
890.995	20259
891.118	20142
891.241	20218
891.364	20278
891.488	20374
891.611	20278
891.734	20305
891.857	20244
891.98	20290
892.103	20332
892.226	20252
892.349	20244
892.471	20111
892.594	20244
892.717	20138
892.839	20240
892.962	20195
893.085	20180
893.207	20145
893.33	20100
893.452	20142
893.575	20100
893.697	20164
893.819	20267
893.941	20389
894.064	20214
894.186	20065
894.308	20168
894.43	20305
894.552	20191
894.674	20278
894.796	20096
894.918	20187
895.04	19982
895.161	20191
895.283	20157
895.405	20084
895.526	20168
895.648	20077
895.769	20145
895.891	20180
896.012	20195
896.134	20225
896.255	20191
896.376	20172
896.498	20202
896.619	20172
896.74	20119
896.861	20305
896.982	20412
897.103	20507
897.224	20446
897.345	20286
897.466	20400
897.587	20412
897.708	20465
897.828	20495
897.949	20301
898.07	20214
898.19	20343
898.311	20381
898.431	20381
898.552	20271
898.672	20442
898.792	20408
898.913	20351
899.033	20221
899.153	20206
899.273	20130
899.393	20107
899.513	20111
899.633	20168
899.753	20111
899.873	20024
899.993	20088
900.113	20096
900.232	20107
900.352	20027
900.472	19909
900.591	19879
900.711	19989
900.83	19868
900.95	20065
901.069	20024
901.189	19864
901.308	19635
901.427	19537
901.546	19499
901.665	19605
901.784	19594
901.904	19324
902.023	19270
902.141	19027
902.26	19038
902.379	19012
902.498	19084
902.617	18924
902.735	18962
902.854	19012
902.973	18890
903.091	18654
903.21	18597
903.328	18741
903.446	18597
903.565	18418
903.683	18353
903.801	18460
903.919	18452
904.038	18403
904.156	18262
904.274	18323
904.392	18251
904.51	18315
904.627	18182
904.745	18319
904.863	18258
904.981	18060
905.098	17851
905.216	17950
905.334	17920
905.451	17920
905.569	17897
905.686	17950
905.803	17836
905.921	17760
906.038	17745
906.155	17729
906.272	17520
906.389	17646
906.506	17360
906.623	17547
906.74	17425
906.857	17353
906.974	17402
907.091	17452
907.208	17505
907.324	17376
907.441	17326
907.557	17159
907.674	17166
907.79	17029
907.907	17132
908.023	17178
908.139	17151
908.256	17155
908.372	17109
908.488	17018
908.604	16873
908.72	16820
908.836	16877
908.952	16862
909.068	16881
909.184	16919
909.3	16885
909.415	16877
909.531	16835
909.647	16672
909.762	16592
909.878	16527
909.993	16649
910.108	16573
910.224	16626
910.339	16535
910.454	16424
910.57	16405
910.685	16261
910.8	16713
910.915	16459
911.03	16516
911.145	16261
911.259	16185
911.374	16139
911.489	16139
911.604	16010
911.718	15987
911.833	15972
911.947	15869
912.062	15755
912.176	15865
912.291	15953
912.405	15960
912.519	16040
912.633	15998
912.748	15907
912.862	15941
912.976	15736
913.09	15656
913.204	15720
913.318	15827
913.431	15793
913.545	15789
913.659	15720
913.772	15717
913.886	15519
914	15504
914.113	15629
914.226	15717
914.34	15686
914.453	15420
914.566	15561
914.68	15447
914.793	15428
914.906	15218
915.019	15222
915.132	15062
915.245	15150
915.358	15097
915.47	15138
915.583	15074
915.696	15317
915.809	15302
915.921	15332
916.034	15077
916.146	14990
916.259	15009
916.371	15104
916.483	15093
916.595	15001
916.708	15150
916.82	14956
916.932	14982
917.044	14971
917.156	14880
917.268	14773
917.38	14788
917.491	14773
917.603	14785
917.715	14845
917.826	14929
917.938	14613
918.049	14773
918.161	14697
918.272	14876
918.384	14823
918.495	14754
918.606	14495
918.717	14499
918.828	14629
918.939	14583
919.05	14465
919.161	14545
919.272	14298
919.383	14423
919.494	14602
919.604	14708
919.715	14602
919.826	14434
919.936	14511
920.047	14560
920.157	14587
920.267	14655
920.378	14663
920.488	14484
920.598	14667
920.708	14781
920.818	14674
920.928	14587
921.038	14819
921.148	14720
921.258	14450
921.368	14362
921.477	14309
921.587	14267
921.697	14183
921.806	14256
921.916	14119
922.025	13963
922.134	14016
922.244	13890
922.353	13944
922.462	13795
922.571	13712
922.68	13658
922.789	13590
922.898	13563
923.007	13586
923.116	13537
923.224	13605
923.333	13525
923.442	13506
923.55	13343
923.659	13365
923.767	13388
923.876	13209
923.984	13400
924.092	13251
924.201	13263
924.309	13316
924.417	13259
924.525	13171
924.633	13259
924.741	14183
924.849	13000
924.956	13126
925.064	12943
925.172	12913
925.279	12913
925.387	12981
925.494	12985
925.602	13015
925.709	12939
925.816	12966
925.924	12909
926.031	12977
926.138	12958
926.245	13015
926.352	12817
926.459	12954
926.566	12886
926.673	12760
926.779	12741
926.886	12776
926.993	12574
927.099	12570
927.206	12490
927.312	12456
927.419	12616
927.525	12494
927.631	12528
927.737	12399
927.843	12376
927.95	12300
928.056	12384
928.162	12380
928.267	12418
928.373	13015
928.479	12475
928.585	12163
928.69	12277
928.796	12311
928.901	12216
929.007	12095
929.112	12243
929.218	12068
929.323	12159
929.428	12011
929.533	12216
929.638	12057
929.743	12079
929.848	12102
929.953	11988
930.058	11954
930.163	11752
930.267	11832
930.372	11958
930.477	11722
930.581	11969
930.685	11794
930.79	11668
930.894	11672
930.998	11680
931.103	11760
931.207	11353
931.311	11322
931.415	11250
931.519	11067
931.623	10976
