Data from test_V78500241_927.txt Node
Date: Fri Mar 25 15:48:13 CST 2022
User: usil
Spectrometer: V785-0024
Trigger mode: 0
Integration Time (sec): 4.000000E-1
Scans to average: 1
Nonlinearity correction enabled: false
Boxcar width: 0
Storing dark spectrum: false
XAxis mode: Wavelengths
Number of Pixels in Spectrum: 1024
>>>>>Begin Spectral Data<<<<<
801.071	28447
801.214	28291
801.356	28086
801.499	27903
801.641	27736
801.783	27819
801.926	27918
802.068	27937
802.211	27755
802.353	27732
802.496	27724
802.638	27507
802.78	27435
802.923	27405
803.065	27591
803.208	27431
803.35	27618
803.492	27663
803.635	27663
803.777	27625
803.919	27709
804.061	27949
804.204	27618
804.346	27629
804.488	27690
804.63	27679
804.773	27633
804.915	27812
805.057	27835
805.199	27759
805.341	27694
805.483	27857
805.626	27846
805.768	27629
805.91	27907
806.052	27789
806.194	27755
806.336	28013
806.478	27922
806.62	27869
806.762	28010
806.904	28173
807.046	28409
807.188	28268
807.33	28375
807.472	28394
807.614	28154
807.756	28306
807.898	28234
808.04	28055
808.182	28131
808.324	28093
808.465	28131
808.607	28329
808.749	28516
808.891	28615
809.033	28812
809.174	28645
809.316	28577
809.458	28485
809.6	28356
809.741	28736
809.883	28710
810.025	28866
810.166	28778
810.308	28839
810.45	28896
810.591	28744
810.733	28691
810.875	28538
811.016	28550
811.158	28470
811.299	28816
811.441	28740
811.582	28721
811.724	28641
811.865	28516
812.007	28588
812.148	28596
812.29	28702
812.431	28801
812.573	29003
812.714	28957
812.855	28991
812.997	29128
813.138	29299
813.279	29189
813.421	29159
813.562	29193
813.703	29010
813.845	28831
813.986	28546
814.127	28287
814.268	28314
814.41	28352
814.551	28177
814.692	28238
814.833	28234
814.974	28181
815.115	28276
815.256	28147
815.397	27956
815.539	28044
815.68	28185
815.821	28048
815.962	28048
816.103	28055
816.244	28139
816.385	27941
816.526	27884
816.666	27667
816.807	27542
816.948	27610
817.089	27667
817.23	27587
817.371	27561
817.512	27610
817.653	27477
817.793	27420
817.934	27671
818.075	27690
818.216	27500
818.356	27492
818.497	27504
818.638	27420
818.778	27469
818.919	27359
819.06	27351
819.2	27603
819.341	27583
819.481	27526
819.622	27667
819.762	28013
819.903	27789
820.043	27914
820.184	27701
820.324	27698
820.465	27743
820.605	27690
820.746	27641
820.886	27641
821.026	27629
821.167	27709
821.307	27747
821.447	27667
821.588	27477
821.728	27226
821.868	27283
822.008	27062
822.149	27074
822.289	27096
822.429	26830
822.569	26849
822.709	26758
822.849	26537
822.99	26613
823.13	26613
823.27	26476
823.41	26484
823.55	26244
823.69	26473
823.83	26423
823.97	26343
824.11	26221
824.25	26142
824.389	26218
824.529	26385
824.669	26244
824.809	26320
824.949	26473
825.089	26336
825.228	26298
825.368	26050
825.508	26180
825.648	26153
825.787	26134
825.927	26351
826.067	26096
826.206	26218
826.346	26145
826.485	26058
826.625	26088
826.765	26195
826.904	26237
827.044	25921
827.183	25769
827.323	25658
827.462	25803
827.601	25894
827.741	25868
827.88	25776
828.02	25731
828.159	25799
828.298	25681
828.437	25890
828.577	25833
828.716	25849
828.855	25837
828.994	25537
829.134	25643
829.273	25495
829.412	25616
829.551	25544
829.69	25514
829.829	25430
829.968	25506
830.107	25578
830.246	25590
830.385	25487
830.524	25411
830.663	25343
830.802	25198
830.941	25221
831.08	25072
831.219	25304
831.357	25133
831.496	25293
831.635	25202
831.774	25080
831.913	25031
832.051	24970
832.19	24878
832.329	25008
832.467	24802
832.606	24840
832.744	24726
832.883	24768
833.022	24654
833.16	24760
833.299	24916
833.437	24829
833.576	24787
833.714	24741
833.852	24935
833.991	24947
834.129	24932
834.267	24970
834.406	24897
834.544	25000
834.682	24890
834.821	24878
834.959	25050
835.097	24700
835.235	24939
835.373	24867
835.511	24776
835.65	24806
835.788	24608
835.926	24555
836.064	24623
836.202	24555
836.34	24700
836.478	24757
836.615	24677
836.753	24821
836.891	24886
837.029	24707
837.167	24559
837.305	24494
837.443	24616
837.58	24627
837.718	24532
837.856	24635
837.993	24551
838.131	24544
838.269	24448
838.406	24395
838.544	24296
838.681	24152
838.819	24186
838.956	24129
839.094	23901
839.231	23999
839.369	24133
839.506	24369
839.643	24243
839.781	24030
839.918	24041
840.055	24022
840.193	23904
840.33	23946
840.467	23939
840.604	24034
840.742	24125
840.879	23855
841.016	23916
841.153	23596
841.29	24068
841.427	23866
841.564	23946
841.701	23965
841.838	23710
841.975	23889
842.112	23889
842.249	23779
842.385	23771
842.522	23843
842.659	23779
842.796	23649
842.933	23657
843.069	23512
843.206	23554
843.343	23726
843.479	23600
843.616	23668
843.752	23360
843.889	23414
844.025	23589
844.162	23360
844.298	23524
844.435	23417
844.571	23410
844.708	23376
844.844	23490
844.98	23493
845.117	23391
845.253	23417
845.389	23337
845.525	23311
845.661	23269
845.798	23140
845.934	23227
846.07	23166
846.206	23166
846.342	23284
846.478	23197
846.614	22927
846.75	22850
846.886	22793
847.022	22980
847.158	22991
847.294	22900
847.429	22965
847.565	22748
847.701	23090
847.837	22664
847.972	22519
848.108	22782
848.244	22748
848.379	22554
848.515	22394
848.65	22459
848.786	22478
848.921	22352
849.057	22615
849.192	22481
849.328	22497
849.463	22546
849.598	22367
849.734	22367
849.869	22337
850.004	22185
850.14	22261
850.275	22356
850.41	22276
850.545	22150
850.68	22120
850.815	22249
850.95	22154
851.085	22424
851.22	22390
851.355	22261
851.49	22200
851.625	22188
851.76	22329
851.895	22181
852.03	22177
852.165	22185
852.299	22360
852.434	22181
852.569	22329
852.703	22261
852.838	22348
852.973	22276
853.107	22371
853.242	22135
853.376	22036
853.511	21895
853.645	22036
853.78	22124
853.914	22078
854.048	22093
854.183	21991
854.317	22078
854.451	22253
854.585	22059
854.72	22055
854.854	22067
854.988	21926
855.122	21998
855.256	21827
855.39	22010
855.524	22177
855.658	22223
855.792	22067
855.926	22143
856.06	22139
856.194	22173
856.327	22128
856.461	21892
856.595	21949
856.729	22131
856.862	22131
856.996	22196
857.13	22074
857.263	22234
857.397	22200
857.53	22059
857.664	22082
857.797	22025
857.931	22192
858.064	21987
858.197	22150
858.331	21926
858.464	22044
858.597	21907
858.731	21987
858.864	21972
858.997	22105
859.13	22067
859.263	22025
859.396	22238
859.529	22002
859.662	22021
859.795	21953
859.928	22112
860.061	22211
860.194	22333
860.327	22169
860.46	22131
860.592	22135
860.725	22135
860.858	22207
860.99	21979
861.123	21930
861.256	21915
861.388	22002
861.521	22675
861.653	21987
861.786	21835
861.918	21808
862.05	21857
862.183	21842
862.315	21949
862.447	22040
862.58	21915
862.712	21762
862.844	21698
862.976	21804
863.108	21762
863.24	22204
863.372	21656
863.504	21778
863.636	21785
863.768	21884
863.9	21892
864.032	21614
864.164	21747
864.296	21743
864.428	21800
864.559	21800
864.691	21804
864.823	21656
864.954	21625
865.086	21770
865.217	21614
865.349	21515
865.48	21736
865.612	21698
865.743	21747
865.875	21728
866.006	21629
866.137	21667
866.269	21637
866.4	21538
866.531	21587
866.662	21561
866.793	21492
866.924	21523
867.055	21599
867.186	21629
867.317	21561
867.448	21507
867.579	21553
867.71	21481
867.841	21477
867.972	21511
868.103	21557
868.233	21530
868.364	21610
868.495	21652
868.625	21827
868.756	21922
868.886	21743
869.017	21869
869.147	21911
869.278	21937
869.408	21930
869.539	21838
869.669	21808
869.799	21876
869.929	21869
870.06	21838
870.19	22097
870.32	22070
870.45	22070
870.58	22249
870.71	22207
870.84	22207
870.97	22207
871.1	22265
871.23	22405
871.36	22428
871.489	22348
871.619	22409
871.749	22390
871.879	22485
872.008	22561
872.138	22443
872.267	22382
872.397	22272
872.526	22230
872.656	22284
872.785	22150
872.915	22447
873.044	22443
873.173	22535
873.303	22500
873.432	22485
873.561	22398
873.69	22493
873.819	22386
873.948	22546
874.077	22523
874.206	22310
874.335	22451
874.464	22478
874.593	22729
874.722	22641
874.851	22672
874.979	22679
875.108	22687
875.237	22531
875.365	22569
875.494	22493
875.623	22611
875.751	22622
875.88	22622
876.008	22782
876.136	22862
876.265	22987
876.393	23136
876.521	23124
876.65	23212
876.778	23090
876.906	23044
877.034	22961
877.162	23044
877.29	22904
877.418	22930
877.546	22923
877.674	22835
877.802	22877
877.93	23037
878.058	22972
878.185	22782
878.313	22889
878.441	22885
878.568	22828
878.696	22984
878.824	23044
878.951	23105
879.079	23109
879.206	23216
879.333	23121
879.461	23033
879.588	23075
879.715	23044
879.842	23284
879.97	23067
880.097	22839
880.224	22748
880.351	22752
880.478	22740
880.605	22733
880.732	22763
880.859	22965
880.986	22797
881.112	22892
881.239	22713
881.366	22653
881.493	22356
881.619	22280
881.746	22466
881.872	22390
881.999	22409
882.125	22337
882.252	22375
882.378	22280
882.505	22508
882.631	22200
882.757	22048
882.883	22257
883.01	21994
883.136	21991
883.262	21759
883.388	21884
883.514	22055
883.64	22067
883.766	21861
883.892	21804
884.018	21835
884.143	21960
884.269	22017
884.395	21717
884.52	21675
884.646	21663
884.772	21614
884.897	21519
885.023	21610
885.148	21865
885.274	21838
885.399	21728
885.524	21766
885.65	21625
885.775	21686
885.9	21595
886.025	21789
886.15	21652
886.275	21545
886.4	21561
886.525	21660
886.65	21606
886.775	21572
886.9	21713
887.025	21838
887.149	21663
887.274	21576
887.399	21488
887.523	21511
887.648	21496
887.773	21386
887.897	21511
888.021	21405
888.146	21340
888.27	21515
888.395	21564
888.519	21401
888.643	21526
888.767	21477
888.891	21355
889.015	21241
889.139	21249
889.263	21268
889.387	21329
889.511	21424
889.635	21340
889.759	21135
889.883	21058
890.006	21173
890.13	21386
890.254	21104
890.377	21066
890.501	20925
890.624	20929
890.748	21184
890.871	20857
890.995	20849
891.118	20743
891.241	20769
891.364	20739
891.488	20941
891.611	20849
891.734	20853
891.857	20902
891.98	20804
892.103	20758
892.226	20815
892.349	20682
892.471	20575
892.594	20724
892.717	20712
892.839	20773
892.962	20754
893.085	20769
893.207	20670
893.33	20602
893.452	20644
893.575	20739
893.697	20617
893.819	20876
893.941	20765
894.064	20842
894.186	20530
894.308	20568
894.43	20659
894.552	20895
894.674	20823
894.796	20549
894.918	20640
895.04	20686
895.161	20708
895.283	20682
895.405	20632
895.526	20693
895.648	20651
895.769	20625
895.891	20758
896.012	20785
896.134	20727
896.255	20617
896.376	20629
896.498	20655
896.619	20746
896.74	20735
896.861	20830
896.982	21032
897.103	21066
897.224	20914
897.345	20948
897.466	20834
897.587	20899
897.708	21096
897.828	21009
897.949	20811
898.07	20819
898.19	20651
898.311	21051
898.431	20838
898.552	20868
898.672	20887
898.792	20948
898.913	20857
899.033	20682
899.153	20693
899.273	20533
899.393	20629
899.513	20640
899.633	20533
899.753	20617
899.873	20503
899.993	20602
900.113	20609
900.232	20670
900.352	20552
900.472	20377
900.591	20419
900.711	20480
900.83	20256
900.95	20434
901.069	20488
901.189	20229
901.308	19959
901.427	19967
901.546	19944
901.665	20065
901.784	19936
901.904	19784
902.023	19894
902.141	19708
902.26	19613
902.379	19605
902.498	19441
902.617	19441
902.735	19434
902.854	19499
902.973	19419
903.091	19110
903.21	19202
903.328	19202
903.446	19069
903.565	18985
903.683	18821
903.801	18840
903.919	18840
904.038	18878
904.156	18821
904.274	18821
904.392	18665
904.51	18646
904.627	18722
904.745	18738
904.863	18650
904.981	18528
905.098	18319
905.216	18483
905.334	18441
905.451	18357
905.569	18334
905.686	18376
905.803	18399
905.921	18174
906.038	18285
906.155	18266
906.272	18095
906.389	18072
906.506	17912
906.623	17828
906.74	18015
906.857	17767
906.974	17687
907.091	17965
907.208	18011
907.324	17988
907.441	17847
907.557	17661
907.674	17551
907.79	17570
907.907	17589
908.023	17543
908.139	17649
908.256	17649
908.372	17433
908.488	17532
908.604	17395
908.72	17337
908.836	17383
908.952	17299
909.068	17239
909.184	17440
909.3	17406
909.415	17417
909.531	17292
909.647	17060
909.762	17109
909.878	17113
909.993	16999
910.108	16892
910.224	17003
910.339	17018
910.454	16809
910.57	16835
910.685	16801
910.8	17025
910.915	17014
911.03	16927
911.145	16687
911.259	16691
911.374	16649
911.489	16641
911.604	16455
911.718	16352
911.833	16459
911.947	16329
912.062	16211
912.176	16363
912.291	16386
912.405	16253
912.519	16630
912.633	16523
912.748	16402
912.862	16333
912.976	16215
913.09	16017
913.204	16154
913.318	16310
913.431	16226
913.545	16284
913.659	16272
913.772	16124
913.886	16010
914	15884
914.113	16044
914.226	16029
914.34	16063
914.453	15835
914.566	15953
914.68	15819
914.793	15823
914.906	15580
915.019	15606
915.132	15450
915.245	15580
915.358	15469
915.47	15606
915.583	15599
915.696	15595
915.809	15701
915.921	15705
916.034	15473
916.146	15408
916.259	15466
916.371	15519
916.483	15507
916.595	15279
916.708	15393
916.82	15329
916.932	15264
917.044	15249
917.156	15287
917.268	15230
917.38	15245
917.491	15199
917.603	15203
917.715	15310
917.826	15283
917.938	15154
918.049	15058
918.161	15135
918.272	15207
918.384	15272
918.495	15169
918.606	14933
918.717	14899
918.828	14933
918.939	15009
919.05	14872
919.161	14944
919.272	14800
919.383	14792
919.494	14948
919.604	15089
919.715	14967
919.826	14708
919.936	14891
920.047	14921
920.157	14902
920.267	15165
920.378	14933
920.488	14891
920.598	15138
920.708	15214
920.818	15093
920.928	15036
921.038	15184
921.148	15108
921.258	14861
921.368	14762
921.477	14682
921.587	14739
921.697	14366
921.806	14636
921.916	14419
922.025	14275
922.134	14328
922.244	14206
922.353	14244
922.462	14176
922.571	14138
922.68	14005
922.789	13959
922.898	13986
923.007	13860
923.116	13925
923.224	13826
923.333	13921
923.442	13837
923.55	13708
923.659	13727
923.767	13841
923.876	13700
923.984	13727
924.092	13563
924.201	13670
924.309	13677
924.417	13590
924.525	13499
924.633	13449
924.741	14461
924.849	13316
924.956	13468
925.064	13369
925.172	13228
925.279	13270
925.387	13362
925.494	13270
925.602	13476
925.709	13369
925.816	13209
925.924	13320
926.031	13339
926.138	13175
926.245	13225
926.352	13114
926.459	13228
926.566	13350
926.673	13107
926.779	13004
926.886	13065
926.993	12909
927.099	12798
927.206	12817
927.312	12768
927.419	12882
927.525	12798
927.631	12935
927.737	12703
927.843	12757
927.95	12563
928.056	12658
928.162	12700
928.267	12760
928.373	13304
928.479	12802
928.585	12528
928.69	12578
928.796	12658
928.901	12498
929.007	12437
929.112	12559
929.218	12502
929.323	12426
929.428	12414
929.533	12464
929.638	12289
929.743	12414
929.848	12391
929.953	12273
930.058	12175
930.163	11973
930.267	12098
930.372	12220
930.477	12045
930.581	12281
930.685	12095
930.79	12022
930.894	11942
930.998	11961
931.103	12022
931.207	11627
931.311	11657
931.415	11566
931.519	11368
931.623	11360
