Data from test_V78500241_402.txt Node
Date: Fri Mar 25 15:44:35 CST 2022
User: usil
Spectrometer: V785-0024
Trigger mode: 0
Integration Time (sec): 4.000000E-1
Scans to average: 1
Nonlinearity correction enabled: false
Boxcar width: 0
Storing dark spectrum: false
XAxis mode: Wavelengths
Number of Pixels in Spectrum: 1024
>>>>>Begin Spectral Data<<<<<
801.071	28531
801.214	28493
801.356	28440
801.499	28192
801.641	28310
801.783	28204
801.926	28249
802.068	28055
802.211	28021
802.353	27964
802.496	27854
802.638	27873
802.78	27846
802.923	27857
803.065	27641
803.208	27705
803.35	27838
803.492	27812
803.635	27926
803.777	27759
803.919	27880
804.061	28325
804.204	27945
804.346	27930
804.488	27941
804.63	27789
804.773	27899
804.915	27888
805.057	28120
805.199	27850
805.341	28017
805.483	28105
805.626	27994
805.768	28051
805.91	27892
806.052	27968
806.194	27926
806.336	28185
806.478	28070
806.62	27949
806.762	28131
806.904	28272
807.046	28660
807.188	28588
807.33	28466
807.472	28596
807.614	28394
807.756	28424
807.898	28329
808.04	28318
808.182	28162
808.324	28360
808.465	28348
808.607	28493
808.749	28645
808.891	28744
809.033	28831
809.174	28736
809.316	28736
809.458	28820
809.6	28622
809.741	28755
809.883	28850
810.025	28930
810.166	28854
810.308	28972
810.45	29041
810.591	28782
810.733	28649
810.875	28729
811.016	28519
811.158	28542
811.299	28710
811.441	28892
811.582	28736
811.724	28474
811.865	28653
812.007	28702
812.148	28535
812.29	28637
812.431	28790
812.573	29098
812.714	29181
812.855	29185
812.997	29334
813.138	29353
813.279	29288
813.421	29315
813.562	29064
813.703	28957
813.845	28949
813.986	28622
814.127	28436
814.268	28211
814.41	28322
814.551	28390
814.692	28557
814.833	28181
814.974	28246
815.115	28215
815.256	28109
815.397	28078
815.539	28185
815.68	28162
815.821	28059
815.962	28192
816.103	28044
816.244	27956
816.385	27816
816.526	27762
816.666	27564
816.807	27405
816.948	27542
817.089	27622
817.23	27504
817.371	27492
817.512	27583
817.653	27557
817.793	27564
817.934	27526
818.075	27557
818.216	27496
818.356	27504
818.497	27313
818.638	27131
818.778	27233
818.919	27245
819.06	27329
819.2	27401
819.341	27481
819.481	27523
819.622	27557
819.762	27808
819.903	27857
820.043	27610
820.184	27648
820.324	27500
820.465	27568
820.605	27648
820.746	27477
820.886	27526
821.026	27595
821.167	27641
821.307	27641
821.447	27473
821.588	27389
821.728	27287
821.868	27039
822.008	26887
822.149	26986
822.289	26849
822.429	26651
822.569	26705
822.709	26575
822.849	26457
822.99	26488
823.13	26290
823.27	26526
823.41	26263
823.55	26100
823.69	26161
823.83	26351
823.97	26077
824.11	26050
824.25	26031
824.389	26001
824.529	26126
824.669	26100
824.809	26145
824.949	26092
825.089	26164
825.228	26103
825.368	25921
825.508	25795
825.648	25875
825.787	25898
825.927	25894
826.067	25833
826.206	25902
826.346	25997
826.485	25731
826.625	25799
826.765	26054
826.904	25898
827.044	25677
827.183	25666
827.323	25556
827.462	25655
827.601	25521
827.741	25556
827.88	25616
828.02	25426
828.159	25544
828.298	25495
828.437	25597
828.577	25362
828.716	25662
828.855	25495
828.994	25206
829.134	25335
829.273	25324
829.412	25076
829.551	25270
829.69	25240
829.829	25240
829.968	25453
830.107	25278
830.246	25304
830.385	25156
830.524	24989
830.663	25057
830.802	24901
830.941	24726
831.08	24776
831.219	24837
831.357	24757
831.496	25053
831.635	24875
831.774	24738
831.913	24623
832.051	24570
832.19	24566
832.329	24677
832.467	24494
832.606	24452
832.744	24384
832.883	24502
833.022	24532
833.16	24536
833.299	24464
833.437	24502
833.576	24555
833.714	24452
833.852	24490
833.991	24563
834.129	24570
834.267	24627
834.406	24509
834.544	24612
834.682	24509
834.821	24544
834.959	24700
835.097	24422
835.235	24616
835.373	24517
835.511	24498
835.65	24323
835.788	24296
835.926	24167
836.064	24167
836.202	24205
836.34	24228
836.478	24315
836.615	24296
836.753	24296
836.891	24266
837.029	24395
837.167	24277
837.305	24140
837.443	24163
837.58	24087
837.718	24144
837.856	24239
837.993	24114
838.131	24194
838.269	24018
838.406	24011
838.544	23840
838.681	23733
838.819	23710
838.956	23562
839.094	23516
839.231	23596
839.369	23809
839.506	23923
839.643	23878
839.781	23505
839.918	23482
840.055	23638
840.193	23535
840.33	23535
840.467	23497
840.604	23516
840.742	23786
840.879	23269
841.016	23425
841.153	23265
841.29	23482
841.427	23474
841.564	23490
841.701	23459
841.838	23429
841.975	23372
842.112	23334
842.249	23402
842.385	23197
842.522	23425
842.659	23227
842.796	23254
842.933	23109
843.069	23216
843.206	23102
843.343	23223
843.479	23151
843.616	23189
843.752	23060
843.889	22915
844.025	23109
844.162	22919
844.298	23022
844.435	23010
844.571	22881
844.708	22919
844.844	23124
844.98	23029
845.117	23064
845.253	22755
845.389	22812
845.525	22793
845.661	22664
845.798	22660
845.934	22744
846.07	22710
846.206	22793
846.342	22596
846.478	22694
846.614	22386
846.75	22344
846.886	22337
847.022	22436
847.158	22360
847.294	22432
847.429	22375
847.565	22440
847.701	22577
847.837	22120
847.972	22185
848.108	22325
848.244	22204
848.379	22029
848.515	21945
848.65	21991
848.786	21892
848.921	22017
849.057	22082
849.192	22093
849.328	21960
849.463	21949
849.598	21899
849.734	21781
849.869	21812
850.004	21526
850.14	21835
850.275	21762
850.41	21667
850.545	21606
850.68	21587
850.815	21713
850.95	21641
851.085	21972
851.22	21915
851.355	21709
851.49	21641
851.625	21629
851.76	21614
851.895	21545
852.03	21728
852.165	21583
852.299	21648
852.434	21766
852.569	21709
852.703	21675
852.838	21785
852.973	21911
853.107	21759
853.242	21564
853.376	21549
853.511	21370
853.645	21393
853.78	21648
853.914	21519
854.048	21424
854.183	21530
854.317	21629
854.451	21686
854.585	21511
854.72	21538
854.854	21587
854.988	21405
855.122	21466
855.256	21230
855.39	21443
855.524	21477
855.658	21606
855.792	21469
855.926	21564
856.06	21534
856.194	21526
856.327	21488
856.461	21443
856.595	21450
856.729	21416
856.862	21549
856.996	21526
857.13	21625
857.263	21561
857.397	21542
857.53	21477
857.664	21599
857.797	21466
857.931	21572
858.064	21431
858.197	21473
858.331	21458
858.464	21466
858.597	21325
858.731	21580
858.864	21469
858.997	21473
859.13	21466
859.263	21450
859.396	21428
859.529	21420
859.662	21466
859.795	21313
859.928	21462
860.061	21545
860.194	21591
860.327	21549
860.46	21496
860.592	21568
860.725	21553
860.858	21572
860.99	21466
861.123	21329
861.256	21500
861.388	21458
861.521	22261
861.653	21291
861.786	21306
861.918	21291
862.05	21348
862.183	21496
862.315	21275
862.447	21549
862.58	21367
862.712	21135
862.844	21180
862.976	21233
863.108	21214
863.24	21576
863.372	21013
863.504	21112
863.636	21093
863.768	21104
863.9	21157
864.032	21058
864.164	21116
864.296	21028
864.428	21211
864.559	21359
864.691	21279
864.823	21230
864.954	21123
865.086	21093
865.217	21116
865.349	21047
865.48	21077
865.612	21020
865.743	21359
865.875	20975
866.006	21211
866.137	21051
866.269	21062
866.4	20971
866.531	20914
866.662	21024
866.793	20921
866.924	21070
867.055	20914
867.186	20933
867.317	20986
867.448	20941
867.579	20910
867.71	20845
867.841	20785
867.972	20887
868.103	21058
868.233	20933
868.364	20895
868.495	21066
868.625	21188
868.756	21310
868.886	21203
869.017	21272
869.147	21306
869.278	21279
869.408	21180
869.539	21116
869.669	21374
869.799	21302
869.929	21298
870.06	21268
870.19	21526
870.32	21401
870.45	21466
870.58	21606
870.71	21583
870.84	21698
870.97	21629
871.1	21652
871.23	21797
871.36	21812
871.489	21705
871.619	21831
871.749	21838
871.879	21808
872.008	21918
872.138	21724
872.267	21743
872.397	21637
872.526	21614
872.656	21652
872.785	21652
872.915	21766
873.044	21865
873.173	21838
873.303	21895
873.432	21991
873.561	21930
873.69	21797
873.819	21827
873.948	21873
874.077	21819
874.206	21778
874.335	21915
874.464	21972
874.593	22093
874.722	22010
874.851	22116
874.979	22010
875.108	22234
875.237	21975
875.365	21987
875.494	22048
875.623	22063
875.751	22124
875.88	22010
876.008	22204
876.136	22207
876.265	22417
876.393	22485
876.521	22569
876.65	22504
876.778	22493
876.906	22386
877.034	22394
877.162	22424
877.29	22386
877.418	22318
877.546	22352
877.674	22508
877.802	22436
877.93	22394
878.058	22455
878.185	22360
878.313	22246
878.441	22333
878.568	22284
878.696	22318
878.824	22443
878.951	22459
879.079	22736
879.206	22706
879.333	22481
879.461	22409
879.588	22485
879.715	22493
879.842	22653
879.97	22443
880.097	22299
880.224	22310
880.351	22200
880.478	22219
880.605	22173
880.732	22272
880.859	22421
880.986	22276
881.112	22261
881.239	22112
881.366	21968
881.493	21876
881.619	21789
881.746	21804
881.872	21705
881.999	21724
882.125	21622
882.252	21873
882.378	21823
882.505	21854
882.631	21656
882.757	21633
882.883	21561
883.01	21500
883.136	21469
883.262	21363
883.388	21359
883.514	21359
883.64	21545
883.766	21378
883.892	21245
884.018	21344
884.143	21507
884.269	21393
884.395	21287
884.52	21199
884.646	21226
884.772	21089
884.897	21104
885.023	21165
885.148	21184
885.274	21313
885.399	21214
885.524	21142
885.65	21062
885.775	21173
885.9	21287
886.025	21222
886.15	21218
886.275	21142
886.4	20929
886.525	21001
886.65	21039
886.775	21032
886.9	21283
887.025	21336
887.149	21085
887.274	20998
887.399	20952
887.523	20891
887.648	20948
887.773	20724
887.897	21020
888.021	21005
888.146	20785
888.27	21081
888.395	20815
888.519	20925
888.643	21024
888.767	20872
888.891	20727
889.015	20701
889.139	20716
889.263	20705
889.387	20746
889.511	20819
889.635	20716
889.759	20590
889.883	20708
890.006	20609
890.13	20773
890.254	20545
890.377	20598
890.501	20374
890.624	20404
890.748	20511
890.871	20305
890.995	20438
891.118	20237
891.241	20332
891.364	20225
891.488	20355
891.611	20347
891.734	20282
891.857	20282
891.98	20248
892.103	20225
892.226	20339
892.349	20195
892.471	19921
892.594	20100
892.717	20294
892.839	20191
892.962	20084
893.085	20290
893.207	20145
893.33	20065
893.452	20024
893.575	20210
893.697	20111
893.819	20332
893.941	20271
894.064	20298
894.186	20107
894.308	20069
894.43	20225
894.552	20362
894.674	20164
894.796	19967
894.918	20191
895.04	20100
895.161	20324
895.283	20191
895.405	19993
895.526	20130
895.648	20157
895.769	20218
895.891	20199
896.012	20282
896.134	20286
896.255	20199
896.376	20142
896.498	20195
896.619	20214
896.74	20180
896.861	20225
896.982	20469
897.103	20575
897.224	20488
897.345	20552
897.466	20393
897.587	20336
897.708	20617
897.828	20442
897.949	20351
898.07	20225
898.19	20183
898.311	20415
898.431	20347
898.552	20389
898.672	20339
898.792	20484
898.913	20358
899.033	20305
899.153	20126
899.273	20027
899.393	20069
899.513	20176
899.633	20210
899.753	20210
899.873	20008
899.993	20271
900.113	20001
900.232	20008
900.352	20024
900.472	19928
900.591	19898
900.711	19898
900.83	19963
900.95	19909
901.069	19982
901.189	19799
901.308	19594
901.427	19419
901.546	19514
901.665	19480
901.784	19533
901.904	19320
902.023	19225
902.141	19088
902.26	19061
902.379	19164
902.498	19080
902.617	19004
902.735	19000
902.854	18943
902.973	18905
903.091	18627
903.21	18620
903.328	18700
903.446	18521
903.565	18563
903.683	18445
903.801	18300
903.919	18380
904.038	18395
904.156	18277
904.274	18395
904.392	18205
904.51	18258
904.627	18201
904.745	18273
904.863	18209
904.981	17988
905.098	17813
905.216	17790
905.334	17817
905.451	17878
905.569	17935
905.686	17874
905.803	17901
905.921	17722
906.038	17638
906.155	17836
906.272	17600
906.389	17684
906.506	17459
906.623	17414
906.74	17372
906.857	17334
906.974	17410
907.091	17474
907.208	17524
907.324	17372
907.441	17414
907.557	17265
907.674	17143
907.79	17067
907.907	17033
908.023	17181
908.139	17189
908.256	17121
908.372	17067
908.488	16999
908.604	16881
908.72	16778
908.836	16793
908.952	16805
909.068	16843
909.184	16911
909.3	16767
909.415	16839
909.531	16786
909.647	16558
909.762	16653
909.878	16538
909.993	16584
910.108	16455
910.224	16519
910.339	16379
910.454	16261
910.57	16344
910.685	16303
910.8	16561
910.915	16447
911.03	16356
911.145	16162
911.259	16051
911.374	16013
911.489	16051
911.604	15975
911.718	15861
911.833	15953
911.947	15918
912.062	15652
912.176	15907
912.291	15842
912.405	15854
912.519	16051
912.633	16032
912.748	15892
912.862	15926
912.976	15701
913.09	15526
913.204	15614
913.318	15686
913.431	15732
913.545	15671
913.659	15789
913.772	15557
913.886	15610
914	15492
914.113	15500
914.226	15485
914.34	15447
914.453	15329
914.566	15526
914.68	15370
914.793	15184
914.906	15207
915.019	15047
915.132	15089
915.245	15108
915.358	15089
915.47	15047
915.583	14994
915.696	15074
915.809	15218
915.921	15165
916.034	15058
916.146	14971
916.259	14944
916.371	14986
916.483	14937
916.595	14777
916.708	14902
916.82	14956
916.932	14872
917.044	14788
917.156	14727
917.268	14743
917.38	14823
917.491	14731
917.603	14667
917.715	14815
917.826	14853
917.938	14610
918.049	14545
918.161	14583
918.272	14845
918.384	14838
918.495	14632
918.606	14541
918.717	14431
918.828	14488
918.939	14533
919.05	14427
919.161	14438
919.272	14180
919.383	14370
919.494	14404
919.604	14689
919.715	14461
919.826	14393
919.936	14381
920.047	14522
920.157	14362
920.267	14708
920.378	14465
920.488	14389
920.598	14533
920.708	14724
920.818	14636
920.928	14518
921.038	14769
921.148	14670
921.258	14313
921.368	14271
921.477	14149
921.587	14157
921.697	13993
921.806	14244
921.916	13959
922.025	13875
922.134	13917
922.244	13753
922.353	13837
922.462	13734
922.571	13655
922.68	13468
922.789	13472
922.898	13411
923.007	13392
923.116	13400
923.224	13419
923.333	13407
923.442	13297
923.55	13263
923.659	13301
923.767	13434
923.876	13213
923.984	13194
924.092	13133
924.201	13164
924.309	13129
924.417	13190
924.525	13179
924.633	13118
924.741	13883
924.849	12973
924.956	13038
925.064	12894
925.172	12844
925.279	12817
925.387	12932
925.494	12981
925.602	12989
925.709	12966
925.816	12795
925.924	12871
926.031	12867
926.138	12825
926.245	12840
926.352	12726
926.459	12852
926.566	12863
926.673	12700
926.779	12665
926.886	12585
926.993	12536
927.099	12422
927.206	12376
927.312	12376
927.419	12452
927.525	12338
927.631	12448
927.737	12346
927.843	12273
927.95	12163
928.056	12308
928.162	12235
928.267	12330
928.373	12875
928.479	12304
928.585	12175
928.69	12224
928.796	12277
928.901	12163
929.007	11965
929.112	12125
929.218	12019
929.323	12019
929.428	11939
929.533	12175
929.638	12007
929.743	11950
929.848	11923
929.953	11931
930.058	11824
930.163	11649
930.267	11630
930.372	11764
930.477	11608
930.581	11878
930.685	11714
930.79	11592
930.894	11638
930.998	11528
931.103	11642
931.207	11326
931.311	11212
931.415	11151
931.519	10995
931.623	10934
