Data from test_V78500241_2102.txt Node
Date: Fri Mar 25 15:56:21 CST 2022
User: usil
Spectrometer: V785-0024
Trigger mode: 0
Integration Time (sec): 4.000000E-1
Scans to average: 1
Nonlinearity correction enabled: false
Boxcar width: 0
Storing dark spectrum: false
XAxis mode: Wavelengths
Number of Pixels in Spectrum: 1024
>>>>>Begin Spectral Data<<<<<
801.071	28881
801.214	28892
801.356	28599
801.499	28596
801.641	28474
801.783	28375
801.926	28504
802.068	28447
802.211	28405
802.353	28360
802.496	28200
802.638	28196
802.78	28158
802.923	28097
803.065	28010
803.208	28131
803.35	28185
803.492	28329
803.635	28455
803.777	28029
803.919	28550
804.061	28790
804.204	28504
804.346	28466
804.488	28337
804.63	28409
804.773	28329
804.915	28512
805.057	28607
805.199	28375
805.341	28462
805.483	28649
805.626	28565
805.768	28500
805.91	28653
806.052	28588
806.194	28500
806.336	28615
806.478	28493
806.62	28557
806.762	28713
806.904	28938
807.046	29174
807.188	29067
807.33	28999
807.472	29159
807.614	28987
807.756	28972
807.898	28892
808.04	28942
808.182	28793
808.324	28915
808.465	28862
808.607	29041
808.749	29341
808.891	29467
809.033	29436
809.174	29379
809.316	29273
809.458	29292
809.6	29265
809.741	29292
809.883	29497
810.025	29649
810.166	29493
810.308	29714
810.45	29531
810.591	29444
810.733	29223
810.875	29307
811.016	29128
811.158	29132
811.299	29212
811.441	29303
811.582	29391
811.724	29288
811.865	29250
812.007	29296
812.148	29261
812.29	29395
812.431	29585
812.573	29684
812.714	29752
812.855	29737
812.997	29897
813.138	29939
813.279	30038
813.421	30026
813.562	29790
813.703	29672
813.845	29535
813.986	29303
814.127	29109
814.268	29079
814.41	29044
814.551	29029
814.692	29064
814.833	28946
814.974	28991
815.115	29121
815.256	28843
815.397	28797
815.539	28934
815.68	28611
815.821	28793
815.962	28892
816.103	28828
816.244	28717
816.385	28656
816.526	28637
816.666	28424
816.807	28280
816.948	28299
817.089	28443
817.23	28234
817.371	28284
817.512	28280
817.653	28379
817.793	28238
817.934	28207
818.075	28234
818.216	28466
818.356	28226
818.497	28242
818.638	27895
818.778	28101
818.919	28010
819.06	28325
819.2	28192
819.341	28284
819.481	28303
819.622	28287
819.762	28512
819.903	28664
820.043	28569
820.184	28599
820.324	28519
820.465	28497
820.605	28432
820.746	28394
820.886	28204
821.026	28386
821.167	28436
821.307	28413
821.447	28382
821.588	28295
821.728	28265
821.868	27914
822.008	27842
822.149	27717
822.289	27766
822.429	27622
822.569	27447
822.709	27443
822.849	27367
822.99	27329
823.13	27272
823.27	27222
823.41	27020
823.55	27089
823.69	27150
823.83	27081
823.97	27112
824.11	27039
824.25	26857
824.389	26944
824.529	27062
824.669	27005
824.809	27127
824.949	27226
825.089	27207
825.228	26960
825.368	26845
825.508	26811
825.648	26876
825.787	26750
825.927	26979
826.067	26838
826.206	26727
826.346	26944
826.485	26853
826.625	26785
826.765	26895
826.904	27009
827.044	26594
827.183	26697
827.323	26583
827.462	26689
827.601	26461
827.741	26678
827.88	26587
828.02	26374
828.159	26552
828.298	26484
828.437	26568
828.577	26396
828.716	26670
828.855	26549
828.994	26088
829.134	26218
829.273	26412
829.412	26195
829.551	26130
829.69	26218
829.829	26199
829.968	26351
830.107	26347
830.246	26271
830.385	26168
830.524	26256
830.663	26005
830.802	25871
830.941	25822
831.08	25928
831.219	25898
831.357	25970
831.496	26054
831.635	25944
831.774	25750
831.913	25746
832.051	25674
832.19	25704
832.329	25685
832.467	25499
832.606	25601
832.744	25525
832.883	25514
833.022	25472
833.16	25525
833.299	25540
833.437	25575
833.576	25738
833.714	25548
833.852	25548
833.991	25674
834.129	25712
834.267	25594
834.406	25632
834.544	25563
834.682	25449
834.821	25548
834.959	25830
835.097	25674
835.235	25597
835.373	25544
835.511	25620
835.65	25453
835.788	25521
835.926	25228
836.064	25145
836.202	25221
836.34	25270
836.478	25438
836.615	25316
836.753	25411
836.891	25491
837.029	25411
837.167	25346
837.305	25244
837.443	25285
837.58	25255
837.718	25148
837.856	25304
837.993	25259
838.131	25297
838.269	25076
838.406	25053
838.544	24985
838.681	24943
838.819	24814
838.956	24673
839.094	24612
839.231	24707
839.369	24894
839.506	25187
839.643	24901
839.781	24840
839.918	24654
840.055	24563
840.193	24722
840.33	24570
840.467	24764
840.604	24646
840.742	24840
840.879	24475
841.016	24517
841.153	24620
841.29	24471
841.427	24574
841.564	24669
841.701	24566
841.838	24578
841.975	24483
842.112	24433
842.249	24285
842.385	24300
842.522	24597
842.659	24418
842.796	24258
842.933	24277
843.069	24372
843.206	24258
843.343	24521
843.479	24403
843.616	24372
843.752	24136
843.889	24228
844.025	24190
844.162	24155
844.298	24304
844.435	24064
844.571	24190
844.708	24117
844.844	24311
844.98	24350
845.117	24159
845.253	24072
845.389	23832
845.525	24018
845.661	23946
845.798	23828
845.934	23870
846.07	23783
846.206	23912
846.342	24018
846.478	23783
846.614	23733
846.75	23501
846.886	23570
847.022	23558
847.158	23516
847.294	23531
847.429	23630
847.565	23623
847.701	23798
847.837	23444
847.972	23383
848.108	23383
848.244	23414
848.379	23269
848.515	23094
848.65	23239
848.786	23166
848.921	23048
849.057	23227
849.192	23265
849.328	23212
849.463	23132
849.598	23170
849.734	23014
849.869	23162
850.004	22812
850.14	22881
850.275	22972
850.41	22858
850.545	22847
850.68	22771
850.815	23014
850.95	22995
851.085	23197
851.22	23075
851.355	22927
851.49	22949
851.625	22896
851.76	22919
851.895	22793
852.03	22820
852.165	23060
852.299	22972
852.434	23003
852.569	22968
852.703	22896
852.838	23060
852.973	23022
853.107	22938
853.242	22828
853.376	22759
853.511	22603
853.645	22736
853.78	22805
853.914	22698
854.048	22649
854.183	22641
854.317	22759
854.451	22965
854.585	22698
854.72	22706
854.854	22881
854.988	22763
855.122	22763
855.256	22653
855.39	22733
855.524	22881
855.658	22687
855.792	22790
855.926	22805
856.06	22797
856.194	22740
856.327	22721
856.461	22523
856.595	22679
856.729	22668
856.862	22953
856.996	22847
857.13	22938
857.263	22896
857.397	22896
857.53	22736
857.664	22744
857.797	22782
857.931	22820
858.064	22752
858.197	22831
858.331	22771
858.464	22687
858.597	22607
858.731	22877
858.864	22679
858.997	22744
859.13	22847
859.263	22660
859.396	22869
859.529	22630
859.662	22721
859.795	22698
859.928	22820
860.061	22866
860.194	22915
860.327	22706
860.46	22675
860.592	22957
860.725	22881
860.858	22801
860.99	22828
861.123	22767
861.256	22843
861.388	22736
861.521	23490
861.653	22615
861.786	22653
861.918	22603
862.05	22622
862.183	22759
862.315	22599
862.447	22683
862.58	22828
862.712	22455
862.844	22344
862.976	22550
863.108	22504
863.24	22900
863.372	22299
863.504	22443
863.636	22428
863.768	22451
863.9	22344
864.032	22379
864.164	22451
864.296	22436
864.428	22641
864.559	22481
864.691	22413
864.823	22432
864.954	22432
865.086	22443
865.217	22470
865.349	22318
865.48	22299
865.612	22348
865.743	22546
865.875	22299
866.006	22352
866.137	22360
866.269	22367
866.4	22211
866.531	22192
866.662	22204
866.793	22291
866.924	22265
867.055	22265
867.186	22299
867.317	22276
867.448	22086
867.579	22162
867.71	22143
867.841	22051
867.972	22204
868.103	22348
868.233	22272
868.364	22371
868.495	22341
868.625	22455
868.756	22664
868.886	22474
869.017	22409
869.147	22561
869.278	22603
869.408	22424
869.539	22527
869.669	22630
869.799	22550
869.929	22542
870.06	22664
870.19	22820
870.32	22774
870.45	22824
870.58	22850
870.71	23083
870.84	23003
870.97	22896
871.1	22927
871.23	23033
871.36	23079
871.489	22934
871.619	23098
871.749	23113
871.879	23086
872.008	23105
872.138	23098
872.267	23067
872.397	23006
872.526	22900
872.656	22965
872.785	22972
872.915	23227
873.044	23052
873.173	23010
873.303	23159
873.432	23185
873.561	23398
873.69	23174
873.819	23124
873.948	23178
874.077	23083
874.206	23075
874.335	23056
874.464	23277
874.593	23372
874.722	23280
874.851	23368
874.979	23261
875.108	23356
875.237	23239
875.365	23174
875.494	23299
875.623	23360
875.751	23341
875.88	23322
876.008	23372
876.136	23490
876.265	23695
876.393	23889
876.521	23722
876.65	23722
876.778	23672
876.906	23615
877.034	23661
877.162	23665
877.29	23520
877.418	23615
877.546	23771
877.674	23695
877.802	23592
877.93	23642
878.058	23649
878.185	23474
878.313	23634
878.441	23684
878.568	23467
878.696	23634
878.824	23592
878.951	23573
879.079	23809
879.206	23790
879.333	23703
879.461	23562
879.588	23897
879.715	23840
879.842	23874
879.97	23676
880.097	23581
880.224	23490
880.351	23505
880.478	23433
880.605	23467
880.732	23410
880.859	23665
880.986	23448
881.112	23478
881.239	23402
881.366	23193
881.493	23132
881.619	23143
881.746	23121
881.872	23014
881.999	23048
882.125	22991
882.252	22976
882.378	22995
882.505	23037
882.631	22873
882.757	22793
882.883	22767
883.01	22702
883.136	22710
883.262	22512
883.388	22527
883.514	22698
883.64	22767
883.766	22588
883.892	22375
884.018	22481
884.143	22717
884.269	22687
884.395	22398
884.52	22284
884.646	22356
884.772	22337
884.897	22257
885.023	22375
885.148	22276
885.274	22428
885.399	22455
885.524	22360
885.65	22360
885.775	22303
885.9	22265
886.025	22459
886.15	22333
886.275	22303
886.4	22215
886.525	22329
886.65	22188
886.775	22398
886.9	22398
887.025	22493
887.149	22253
887.274	22063
887.399	22086
887.523	22105
887.648	22086
887.773	21975
887.897	22112
888.021	21979
888.146	21975
888.27	22211
888.395	22021
888.519	22135
888.643	22048
888.767	22124
888.891	21926
889.015	21903
889.139	22006
889.263	21759
889.387	21930
889.511	22078
889.635	21956
889.759	21873
889.883	21854
890.006	21797
890.13	21979
890.254	21690
890.377	21766
890.501	21656
890.624	21606
890.748	21637
890.871	21519
890.995	21523
891.118	21287
891.241	21313
891.364	21458
891.488	21663
891.611	21447
891.734	21424
891.857	21553
891.98	21545
892.103	21401
892.226	21439
892.349	21367
892.471	21264
892.594	21310
892.717	21420
892.839	21268
892.962	21363
893.085	21298
893.207	21237
893.33	21131
893.452	21249
893.575	21435
893.697	21218
893.819	21428
893.941	21526
894.064	21447
894.186	21237
894.308	21275
894.43	21370
894.552	21458
894.674	21408
894.796	21264
894.918	21226
895.04	21169
895.161	21249
895.283	21321
895.405	21272
895.526	21336
895.648	21264
895.769	21218
895.891	21355
896.012	21241
896.134	21249
896.255	21306
896.376	21340
896.498	21291
896.619	21340
896.74	21405
896.861	21306
896.982	21549
897.103	21774
897.224	21618
897.345	21549
897.466	21416
897.587	21435
897.708	21614
897.828	21496
897.949	21386
898.07	21283
898.19	21302
898.311	21500
898.431	21348
898.552	21317
898.672	21595
898.792	21591
898.913	21435
899.033	21302
899.153	21291
899.273	21138
899.393	21245
899.513	21302
899.633	21306
899.753	21188
899.873	21138
899.993	21306
900.113	21188
900.232	21298
900.352	21070
900.472	21028
900.591	21001
900.711	20979
900.83	20891
900.95	21001
901.069	20979
901.189	20883
901.308	20571
901.427	20499
901.546	20469
901.665	20522
901.784	20514
901.904	20507
902.023	20309
902.141	20157
902.26	20111
902.379	20130
902.498	20035
902.617	19997
902.735	20134
902.854	19959
902.973	19928
903.091	19689
903.21	19712
903.328	19734
903.446	19578
903.565	19506
903.683	19540
903.801	19369
903.919	19502
904.038	19400
904.156	19259
904.274	19350
904.392	19141
904.51	19255
904.627	19236
904.745	19225
904.863	19266
904.981	19050
905.098	18920
905.216	18886
905.334	19050
905.451	18878
905.569	18837
905.686	19042
905.803	18916
905.921	18707
906.038	18920
906.155	18715
906.272	18559
906.389	18627
906.506	18357
906.623	18475
906.74	18414
906.857	18304
906.974	18315
907.091	18494
907.208	18471
907.324	18437
907.441	18361
907.557	18140
907.674	18144
907.79	18129
907.907	18106
908.023	18167
908.139	18026
908.256	18079
908.372	18049
908.488	17916
908.604	17855
908.72	17840
908.836	17969
908.952	17760
909.068	17893
909.184	17954
909.3	17794
909.415	17870
909.531	17805
909.647	17646
909.762	17596
909.878	17551
909.993	17577
910.108	17433
910.224	17448
910.339	17505
910.454	17387
910.57	17284
910.685	17330
910.8	17532
910.915	17497
911.03	17368
911.145	17174
911.259	17193
911.374	17212
911.489	17052
911.604	16984
911.718	16809
911.833	16850
911.947	16759
912.062	16683
912.176	16793
912.291	16915
912.405	16915
912.519	16900
912.633	16984
912.748	16889
912.862	16816
912.976	16736
913.09	16599
913.204	16603
913.318	16710
913.431	16656
913.545	16805
913.659	16752
913.772	16641
913.886	16519
914	16455
914.113	16584
914.226	16440
914.34	16535
914.453	16192
914.566	16512
914.68	16318
914.793	16268
914.906	16101
915.019	16032
915.132	16078
915.245	16021
915.358	16090
915.47	16036
915.583	15983
915.696	16101
915.809	16112
915.921	16021
916.034	16002
916.146	15994
916.259	15956
916.371	16010
916.483	16006
916.595	15808
916.708	15892
916.82	15876
916.932	15880
917.044	15827
917.156	15660
917.268	15656
917.38	15675
917.491	15663
917.603	15584
917.715	15747
917.826	15728
917.938	15564
918.049	15378
918.161	15652
918.272	15698
918.384	15679
918.495	15545
918.606	15302
918.717	15393
918.828	15435
918.939	15462
919.05	15313
919.161	15359
919.272	15184
919.383	15150
919.494	15428
919.604	15564
919.715	15458
919.826	15260
919.936	15302
920.047	15435
920.157	15321
920.267	15454
920.378	15313
920.488	15287
920.598	15485
920.708	15667
920.818	15378
920.928	15348
921.038	15530
921.148	15580
921.258	15211
921.368	15192
921.477	15089
921.587	14982
921.697	14826
921.806	14998
921.916	14944
922.025	14621
922.134	14716
922.244	14602
922.353	14705
922.462	14480
922.571	14522
922.68	14343
922.789	14278
922.898	14298
923.007	14339
923.116	14305
923.224	14358
923.333	14317
923.442	14153
923.55	14031
923.659	14107
923.767	14180
923.876	14046
923.984	14073
924.092	14073
924.201	14050
924.309	14027
924.417	14035
924.525	13986
924.633	14024
924.741	14880
924.849	13731
924.956	13833
925.064	13750
925.172	13616
925.279	13734
925.387	13776
925.494	13662
925.602	13814
925.709	13719
925.816	13571
925.924	13616
926.031	13750
926.138	13674
926.245	13753
926.352	13495
926.459	13567
926.566	13696
926.673	13514
926.779	13426
926.886	13422
926.993	13304
927.099	13270
927.206	13270
927.312	13126
927.419	13259
927.525	13301
927.631	13236
927.737	13137
927.843	13118
927.95	12970
928.056	12993
928.162	13095
928.267	13145
928.373	13616
928.479	13084
928.585	12920
928.69	12916
928.796	13027
928.901	12981
929.007	12684
929.112	12894
929.218	12783
929.323	12764
929.428	12787
929.533	12966
929.638	12772
929.743	12726
929.848	12722
929.953	12707
930.058	12593
930.163	12441
930.267	12544
930.372	12528
930.477	12388
930.581	12650
930.685	12486
930.79	12361
930.894	12270
930.998	12304
931.103	12395
931.207	12045
931.311	11977
931.415	11927
931.519	11657
931.623	11657
