Data from test_V78500241_2612.txt Node
Date: Fri Mar 25 15:59:53 CST 2022
User: usil
Spectrometer: V785-0024
Trigger mode: 0
Integration Time (sec): 4.000000E-1
Scans to average: 1
Nonlinearity correction enabled: false
Boxcar width: 0
Storing dark spectrum: false
XAxis mode: Wavelengths
Number of Pixels in Spectrum: 1024
>>>>>Begin Spectral Data<<<<<
801.071	28835
801.214	28744
801.356	28607
801.499	28405
801.641	28299
801.783	28261
801.926	28322
802.068	28280
802.211	28421
802.353	28139
802.496	28093
802.638	27983
802.78	27998
802.923	27983
803.065	27838
803.208	27914
803.35	28112
803.492	28322
803.635	28200
803.777	28177
803.919	28223
804.061	28459
804.204	28337
804.346	28310
804.488	28192
804.63	28234
804.773	28215
804.915	28287
805.057	28596
805.199	28299
805.341	28341
805.483	28405
805.626	28424
805.768	28215
805.91	28462
806.052	28459
806.194	28143
806.336	28565
806.478	28367
806.62	28500
806.762	28519
806.904	28721
807.046	28972
807.188	28771
807.33	28858
807.472	28888
807.614	28790
807.756	28961
807.898	28771
808.04	28710
808.182	28774
808.324	28672
808.465	28831
808.607	28850
808.749	29064
808.891	29159
809.033	29235
809.174	29178
809.316	29136
809.458	29117
809.6	29121
809.741	29212
809.883	29185
810.025	29356
810.166	29284
810.308	29452
810.45	29334
810.591	29391
810.733	29143
810.875	29083
811.016	29239
811.158	28987
811.299	29261
811.441	29197
811.582	29360
811.724	29098
811.865	29033
812.007	29143
812.148	29113
812.29	29140
812.431	29497
812.573	29414
812.714	29512
812.855	29733
812.997	29566
813.138	29889
813.279	29802
813.421	29539
813.562	29676
813.703	29330
813.845	29315
813.986	29174
814.127	28953
814.268	28790
814.41	28930
814.551	28862
814.692	28908
814.833	28790
814.974	28862
815.115	28774
815.256	28675
815.397	28698
815.539	28519
815.68	28561
815.821	28569
815.962	28725
816.103	28656
816.244	28451
816.385	28440
816.526	28242
816.666	28363
816.807	28112
816.948	28173
817.089	28306
817.23	28181
817.371	28105
817.512	28090
817.653	28101
817.793	28059
817.934	28154
818.075	28158
818.216	28192
818.356	28101
818.497	27994
818.638	27899
818.778	27903
818.919	27880
819.06	28059
819.2	27960
819.341	28249
819.481	28078
819.622	28337
819.762	28356
819.903	28341
820.043	28284
820.184	28135
820.324	28280
820.465	28291
820.605	28200
820.746	28287
820.886	27945
821.026	28150
821.167	28261
821.307	28314
821.447	28120
821.588	27953
821.728	27922
821.868	27747
822.008	27606
822.149	27679
822.289	27603
822.429	27329
822.569	27313
822.709	27374
822.849	27116
822.99	27138
823.13	27211
823.27	27138
823.41	27013
823.55	26819
823.69	26918
823.83	26960
823.97	26876
824.11	26731
824.25	26727
824.389	26781
824.529	26807
824.669	26773
824.809	26956
824.949	26826
825.089	26929
825.228	26823
825.368	26705
825.508	26682
825.648	26701
825.787	26689
825.927	26864
826.067	26682
826.206	26629
826.346	26724
826.485	26750
826.625	26587
826.765	26743
826.904	26785
827.044	26450
827.183	26393
827.323	26275
827.462	26339
827.601	26343
827.741	26252
827.88	26400
828.02	26332
828.159	26351
828.298	26476
828.437	26278
828.577	26309
828.716	26427
828.855	26244
828.994	26164
829.134	25951
829.273	26122
829.412	25978
829.551	26126
829.69	25925
829.829	26016
829.968	26145
830.107	26084
830.246	26157
830.385	26008
830.524	25925
830.663	25864
830.802	25890
830.941	25635
831.08	25757
831.219	25879
831.357	25700
831.496	25879
831.635	25708
831.774	25628
831.913	25575
832.051	25483
832.19	25400
832.329	25521
832.467	25430
832.606	25247
832.744	25282
832.883	25358
833.022	25400
833.16	25343
833.299	25232
833.437	25354
833.576	25354
833.714	25392
833.852	25441
833.991	25525
834.129	25552
834.267	25491
834.406	25320
834.544	25483
834.682	25499
834.821	25316
834.959	25514
835.097	25346
835.235	25479
835.373	25369
835.511	25263
835.65	25213
835.788	25225
835.926	25118
836.064	25000
836.202	25171
836.34	25232
836.478	25209
836.615	25285
836.753	25221
836.891	25289
837.029	25251
837.167	25110
837.305	25053
837.443	25072
837.58	24996
837.718	25160
837.856	25065
837.993	25069
838.131	25057
838.269	24973
838.406	24871
838.544	24837
838.681	24673
838.819	24798
838.956	24547
839.094	24574
839.231	24475
839.369	24608
839.506	24920
839.643	24700
839.781	24456
839.918	24570
840.055	24528
840.193	24528
840.33	24540
840.467	24445
840.604	24578
840.742	24825
840.879	24369
841.016	24319
841.153	24460
841.29	24395
841.427	24281
841.564	24490
841.701	24334
841.838	24460
841.975	24346
842.112	24174
842.249	24289
842.385	24205
842.522	24384
842.659	24235
842.796	24201
842.933	24182
843.069	24102
843.206	24095
843.343	24228
843.479	24281
843.616	24152
843.752	24011
843.889	23965
844.025	24072
844.162	23920
844.298	24034
844.435	23965
844.571	23859
844.708	24026
844.844	24095
844.98	24152
845.117	24125
845.253	23912
845.389	23847
845.525	23885
845.661	23828
845.798	23668
845.934	23805
846.07	23840
846.206	23699
846.342	23756
846.478	23729
846.614	23512
846.75	23376
846.886	23398
847.022	23345
847.158	23417
847.294	23539
847.429	23459
847.565	23261
847.701	23657
847.837	23162
847.972	23105
848.108	23181
848.244	23242
848.379	23006
848.515	22938
848.65	23098
848.786	22900
848.921	23037
849.057	23166
849.192	23037
849.328	23029
849.463	22911
849.598	22911
849.734	22881
849.869	22828
850.004	22710
850.14	22721
850.275	22702
850.41	22649
850.545	22771
850.68	22778
850.815	22752
850.95	22740
851.085	22938
851.22	22881
851.355	22889
851.49	22801
851.625	22717
851.76	22771
851.895	22622
852.03	22710
852.165	22744
852.299	22771
852.434	22778
852.569	22793
852.703	22862
852.838	22812
852.973	22904
853.107	22873
853.242	22653
853.376	22645
853.511	22417
853.645	22596
853.78	22706
853.914	22531
854.048	22451
854.183	22462
854.317	22603
854.451	22748
854.585	22649
854.72	22459
854.854	22580
854.988	22618
855.122	22615
855.256	22489
855.39	22527
855.524	22672
855.658	22542
855.792	22542
855.926	22664
856.06	22626
856.194	22573
856.327	22561
856.461	22607
856.595	22519
856.729	22523
856.862	22687
856.996	22580
857.13	22656
857.263	22599
857.397	22706
857.53	22596
857.664	22531
857.797	22569
857.931	22797
858.064	22691
858.197	22599
858.331	22546
858.464	22478
858.597	22440
858.731	22557
858.864	22557
858.997	22561
859.13	22580
859.263	22573
859.396	22702
859.529	22611
859.662	22599
859.795	22512
859.928	22656
860.061	22752
860.194	22793
860.327	22618
860.46	22675
860.592	22630
860.725	22630
860.858	22733
860.99	22557
861.123	22474
861.256	22500
861.388	22664
861.521	23265
861.653	22417
861.786	22363
861.918	22413
862.05	22352
862.183	22417
862.315	22637
862.447	22546
862.58	22405
862.712	22234
862.844	22306
862.976	22287
863.108	22337
863.24	22733
863.372	22291
863.504	22390
863.636	22299
863.768	22276
863.9	22249
864.032	22211
864.164	22253
864.296	22284
864.428	22440
864.559	22303
864.691	22299
864.823	22379
864.954	22223
865.086	22204
865.217	22162
865.349	22116
865.48	22196
865.612	22249
865.743	22272
865.875	22238
866.006	22128
866.137	22090
866.269	22124
866.4	22166
866.531	22063
866.662	22105
866.793	22051
866.924	22086
867.055	22185
867.186	22196
867.317	22101
867.448	21994
867.579	22124
867.71	22090
867.841	22010
867.972	22070
868.103	22040
868.233	22051
868.364	21991
868.495	22284
868.625	22325
868.756	22470
868.886	22344
869.017	22257
869.147	22318
869.278	22462
869.408	22394
869.539	22455
869.669	22470
869.799	22504
869.929	22459
870.06	22299
870.19	22691
870.32	22653
870.45	22557
870.58	22706
870.71	22809
870.84	22816
870.97	22691
871.1	22729
871.23	22980
871.36	22930
871.489	22824
871.619	22980
871.749	22900
871.879	22828
872.008	23060
872.138	22873
872.267	22961
872.397	22767
872.526	22630
872.656	22877
872.785	22736
872.915	22995
873.044	23018
873.173	23041
873.303	23075
873.432	23022
873.561	23071
873.69	23079
873.819	22968
873.948	23086
874.077	23025
874.206	22850
874.335	22881
874.464	22976
874.593	23227
874.722	23140
874.851	23284
874.979	23143
875.108	23162
875.237	23151
875.365	22980
875.494	23189
875.623	23239
875.751	23193
875.88	23242
876.008	23277
876.136	23311
876.265	23600
876.393	23581
876.521	23570
876.65	23676
876.778	23596
876.906	23497
877.034	23562
877.162	23608
877.29	23528
877.418	23482
877.546	23414
877.674	23531
877.802	23376
877.93	23497
878.058	23467
878.185	23315
878.313	23543
878.441	23353
878.568	23383
878.696	23322
878.824	23444
878.951	23619
879.079	23611
879.206	23745
879.333	23653
879.461	23638
879.588	23589
879.715	23520
879.842	23824
879.97	23604
880.097	23311
880.224	23410
880.351	23280
880.478	23250
880.605	23292
880.732	23410
880.859	23630
880.986	23261
881.112	23315
881.239	23143
881.366	23166
881.493	22949
881.619	22900
881.746	22877
881.872	22938
881.999	22965
882.125	22710
882.252	22965
882.378	22843
882.505	22923
882.631	22752
882.757	22641
882.883	22725
883.01	22478
883.136	22417
883.262	22523
883.388	22405
883.514	22573
883.64	22443
883.766	22428
883.892	22306
884.018	22329
884.143	22512
884.269	22508
884.395	22386
884.52	22249
884.646	22234
884.772	22162
884.897	22059
885.023	22150
885.148	22204
885.274	22322
885.399	22344
885.524	22223
885.65	22322
885.775	22101
885.9	22173
886.025	22329
886.15	22177
886.275	22120
886.4	22090
886.525	22166
886.65	22150
886.775	22093
886.9	22242
887.025	22379
887.149	22112
887.274	22131
887.399	21979
887.523	21964
887.648	21876
887.773	21812
887.897	21956
888.021	22013
888.146	21736
888.27	22051
888.395	22013
888.519	21880
888.643	21930
888.767	21937
888.891	21903
889.015	21770
889.139	21797
889.263	21755
889.387	21895
889.511	21899
889.635	21846
889.759	21736
889.883	21739
890.006	21778
890.13	21743
890.254	21652
890.377	21739
890.501	21424
890.624	21363
890.748	21485
890.871	21382
890.995	21378
891.118	21188
891.241	21260
891.364	21340
891.488	21416
891.611	21359
891.734	21302
891.857	21344
891.98	21233
892.103	21351
892.226	21272
892.349	21214
892.471	21066
892.594	21195
892.717	21252
892.839	21173
892.962	21226
893.085	21241
893.207	21131
893.33	20998
893.452	21104
893.575	21184
893.697	21214
893.819	21344
893.941	21462
894.064	21256
894.186	21055
894.308	21081
894.43	21173
894.552	21351
894.674	21184
894.796	20998
894.918	21165
895.04	21100
895.161	21214
895.283	21173
895.405	21077
895.526	21157
895.648	21058
895.769	21176
895.891	21138
896.012	21085
896.134	21138
896.255	21199
896.376	21058
896.498	21180
896.619	21176
896.74	21214
896.861	21135
896.982	21405
897.103	21519
897.224	21454
897.345	21317
897.466	21313
897.587	21363
897.708	21393
897.828	21469
897.949	21241
898.07	21123
898.19	21264
898.311	21351
898.431	21279
898.552	21260
898.672	21401
898.792	21382
898.913	21382
899.033	21260
899.153	21203
899.273	21032
899.393	21123
899.513	21192
899.633	21043
899.753	21055
899.873	20914
899.993	21176
900.113	20948
900.232	21039
900.352	20921
900.472	20868
900.591	20804
900.711	20895
900.83	20746
900.95	21001
901.069	20963
901.189	20792
901.308	20434
901.427	20351
901.546	20389
901.665	20336
901.784	20431
901.904	20240
902.023	20206
902.141	20062
902.26	19860
902.379	19963
902.498	19871
902.617	19864
902.735	19906
902.854	19887
902.973	19807
903.091	19537
903.21	19605
903.328	19632
903.446	19331
903.565	19316
903.683	19304
903.801	19316
903.919	19301
904.038	19301
904.156	19099
904.274	19209
904.392	19031
904.51	19179
904.627	19004
904.745	19194
904.863	19145
904.981	19004
905.098	18703
905.216	18814
905.334	18730
905.451	18753
905.569	18863
905.686	18776
905.803	18795
905.921	18574
906.038	18703
906.155	18574
906.272	18422
906.389	18536
906.506	18197
906.623	18296
906.74	18308
906.857	18270
906.974	18247
907.091	18133
907.208	18452
907.324	18296
907.441	18174
907.557	17996
907.674	17996
907.79	17882
907.907	17999
908.023	18049
908.139	18049
908.256	17992
908.372	17980
908.488	17969
908.604	17752
908.72	17684
908.836	17646
908.952	17676
909.068	17767
909.184	17809
909.3	17661
909.415	17775
909.531	17657
909.647	17490
909.762	17539
909.878	17383
909.993	17421
910.108	17326
910.224	17360
910.339	17303
910.454	17162
910.57	17246
910.685	17117
910.8	17459
910.915	17356
911.03	17193
911.145	17052
911.259	17003
911.374	16949
911.489	16972
911.604	16858
911.718	16805
911.833	16584
911.947	16725
912.062	16542
912.176	16653
912.291	16771
912.405	16698
912.519	16892
912.633	16900
912.748	16839
912.862	16778
912.976	16554
913.09	16455
913.204	16500
913.318	16462
913.431	16592
913.545	16569
913.659	16721
913.772	16546
913.886	16379
914	16322
914.113	16325
914.226	16325
914.34	16295
914.453	16223
914.566	16402
914.68	16226
914.793	16215
914.906	16082
915.019	15918
915.132	15941
915.245	15892
915.358	15956
915.47	15930
915.583	15926
915.696	15945
915.809	16093
915.921	16078
916.034	15895
916.146	15804
916.259	15755
916.371	15915
916.483	15941
916.595	15781
916.708	15778
916.82	15732
916.932	15606
917.044	15705
917.156	15713
917.268	15576
917.38	15633
917.491	15587
917.603	15523
917.715	15633
917.826	15599
917.938	15401
918.049	15367
918.161	15564
918.272	15603
918.384	15481
918.495	15526
918.606	15294
918.717	15321
918.828	15325
918.939	15382
919.05	15173
919.161	15173
919.272	15066
919.383	15146
919.494	15317
919.604	15519
919.715	15306
919.826	15230
919.936	15237
920.047	15291
920.157	15173
920.267	15443
920.378	15287
920.488	15192
920.598	15340
920.708	15481
920.818	15393
920.928	15325
921.038	15481
921.148	15466
921.258	15211
921.368	15020
921.477	14933
921.587	15001
921.697	14872
921.806	14876
921.916	14834
922.025	14686
922.134	14587
922.244	14560
922.353	14712
922.462	14514
922.571	14396
922.68	14225
922.789	14210
922.898	14218
923.007	14142
923.116	14130
923.224	14191
923.333	14111
923.442	14096
923.55	14039
923.659	14130
923.767	14031
923.876	13993
923.984	14062
924.092	13982
924.201	13944
924.309	13921
924.417	13944
924.525	13890
924.633	13925
924.741	14804
924.849	13723
924.956	13818
925.064	13636
925.172	13559
925.279	13563
925.387	13681
925.494	13575
925.602	13750
925.709	13601
925.816	13506
925.924	13556
926.031	13636
926.138	13468
926.245	13544
926.352	13396
926.459	13518
926.566	13605
926.673	13502
926.779	13403
926.886	13301
926.993	13209
927.099	13072
927.206	13088
927.312	13133
927.419	13179
927.525	13145
927.631	13118
927.737	13088
927.843	12996
927.95	12863
928.056	13000
928.162	12935
928.267	12989
928.373	13472
928.479	12882
928.585	12760
928.69	12932
928.796	12924
928.901	12806
929.007	12696
929.112	12829
929.218	12798
929.323	12646
929.428	12684
929.533	12833
929.638	12532
929.743	12555
929.848	12646
929.953	12551
930.058	12452
930.163	12445
930.267	12399
930.372	12471
930.477	12342
930.581	12475
930.685	12281
930.79	12136
930.894	12281
930.998	12144
931.103	12315
931.207	11992
931.311	11767
931.415	11813
931.519	11585
931.623	11600
