Data from test_V78500241_1804.txt Node
Date: Fri Mar 25 15:54:17 CST 2022
User: usil
Spectrometer: V785-0024
Trigger mode: 0
Integration Time (sec): 4.000000E-1
Scans to average: 1
Nonlinearity correction enabled: false
Boxcar width: 0
Storing dark spectrum: false
XAxis mode: Wavelengths
Number of Pixels in Spectrum: 1024
>>>>>Begin Spectral Data<<<<<
801.071	28550
801.214	28634
801.356	28356
801.499	28207
801.641	28200
801.783	28207
801.926	28150
802.068	28204
802.211	28097
802.353	28112
802.496	28032
802.638	27945
802.78	27876
802.923	27835
803.065	27838
803.208	27857
803.35	27922
803.492	28029
803.635	28150
803.777	27941
803.919	28154
804.061	28261
804.204	28105
804.346	27960
804.488	28109
804.63	28131
804.773	28067
804.915	28131
805.057	28280
805.199	28185
805.341	28158
805.483	28242
805.626	28284
805.768	28257
805.91	28253
806.052	28371
806.194	28207
806.336	28440
806.478	28291
806.62	28322
806.762	28485
806.904	28516
807.046	28729
807.188	28702
807.33	28721
807.472	28820
807.614	28740
807.756	28561
807.898	28611
808.04	28592
808.182	28485
808.324	28672
808.465	28645
808.607	28892
808.749	28987
808.891	29227
809.033	29048
809.174	29056
809.316	29060
809.458	28866
809.6	29022
809.741	29090
809.883	29117
810.025	29239
810.166	29280
810.308	29220
810.45	29094
810.591	29075
810.733	28942
810.875	28763
811.016	28793
811.158	28881
811.299	29079
811.441	29296
811.582	29220
811.724	28976
811.865	28892
812.007	28942
812.148	28957
812.29	29003
812.431	29075
812.573	29444
812.714	29425
812.855	29440
812.997	29646
813.138	29783
813.279	29741
813.421	29455
813.562	29391
813.703	29387
813.845	29227
813.986	28919
814.127	28706
814.268	28710
814.41	28816
814.551	28698
814.692	28710
814.833	28630
814.974	28519
815.115	28694
815.256	28459
815.397	28561
815.539	28474
815.68	28554
815.821	28447
815.962	28390
816.103	28485
816.244	28386
816.385	28284
816.526	28173
816.666	27975
816.807	28029
816.948	28070
817.089	28139
817.23	28036
817.371	28025
817.512	27987
817.653	27854
817.793	27918
817.934	27907
818.075	28059
818.216	27857
818.356	27987
818.497	27854
818.638	27732
818.778	27873
818.919	27736
819.06	27895
819.2	28025
819.341	27953
819.481	28059
819.622	28166
819.762	28337
819.903	28154
820.043	28192
820.184	28082
820.324	28120
820.465	28200
820.605	28211
820.746	28093
820.886	28032
821.026	28150
821.167	27994
821.307	28310
821.447	27945
821.588	27945
821.728	27861
821.868	27622
822.008	27553
822.149	27549
822.289	27564
822.429	27279
822.569	27104
822.709	27252
822.849	27070
822.99	27131
823.13	27017
823.27	26921
823.41	26773
823.55	26720
823.69	26925
823.83	26979
823.97	26727
824.11	26678
824.25	26697
824.389	26682
824.529	26678
824.669	26724
824.809	26762
824.949	26834
825.089	26686
825.228	26629
825.368	26522
825.508	26488
825.648	26480
825.787	26587
825.927	26602
826.067	26590
826.206	26492
826.346	26568
826.485	26552
826.625	26499
826.765	26583
826.904	26617
827.044	26263
827.183	26237
827.323	26221
827.462	26256
827.601	26240
827.741	26267
827.88	26259
828.02	26142
828.159	26256
828.298	26294
828.437	26286
828.577	26134
828.716	26240
828.855	26145
828.994	26027
829.134	25913
829.273	26054
829.412	25818
829.551	25871
829.69	25837
829.829	25978
829.968	25989
830.107	26020
830.246	25925
830.385	25875
830.524	25830
830.663	25582
830.802	25624
830.941	25681
831.08	25464
831.219	25479
831.357	25624
831.496	25811
831.635	25476
831.774	25438
831.913	25247
832.051	25270
832.19	25160
832.329	25396
832.467	25304
832.606	25080
832.744	25209
832.883	25126
833.022	25209
833.16	25312
833.299	25270
833.437	25236
833.576	25388
833.714	25331
833.852	25278
833.991	25266
834.129	25320
834.267	25403
834.406	25247
834.544	25187
834.682	25206
834.821	25206
834.959	25377
835.097	25175
835.235	25202
835.373	25304
835.511	25282
835.65	25057
835.788	25282
835.926	24989
836.064	24924
836.202	24897
836.34	25080
836.478	25046
836.615	25000
836.753	25057
836.891	25053
837.029	25053
837.167	24939
837.305	25004
837.443	25107
837.58	25019
837.718	24996
837.856	24943
837.993	24810
838.131	24909
838.269	24829
838.406	24741
838.544	24757
838.681	24544
838.819	24601
838.956	24410
839.094	24365
839.231	24528
839.369	24650
839.506	24817
839.643	24620
839.781	24338
839.918	24258
840.055	24338
840.193	24338
840.33	24235
840.467	24292
840.604	24342
840.742	24517
840.879	24083
841.016	24197
841.153	24049
841.29	24380
841.427	24243
841.564	24311
841.701	24270
841.838	24270
841.975	24136
842.112	24235
842.249	24133
842.385	24034
842.522	24159
842.659	24117
842.796	24064
842.933	24030
843.069	23984
843.206	23961
843.343	24057
843.479	24068
843.616	24057
843.752	23851
843.889	23824
844.025	23954
844.162	23661
844.298	23958
844.435	23866
844.571	23786
844.708	23927
844.844	23973
844.98	23999
845.117	23870
845.253	23764
845.389	23718
845.525	23729
845.661	23649
845.798	23592
845.934	23611
846.07	23463
846.206	23497
846.342	23627
846.478	23554
846.614	23277
846.75	23223
846.886	23318
847.022	23296
847.158	23311
847.294	23296
847.429	23395
847.565	23193
847.701	23547
847.837	22961
847.972	23056
848.108	23159
848.244	22946
848.379	22869
848.515	22812
848.65	22862
848.786	22831
848.921	22862
849.057	22984
849.192	22828
849.328	22927
849.463	22820
849.598	22774
849.734	22805
849.869	22698
850.004	22672
850.14	22554
850.275	22660
850.41	22413
850.545	22596
850.68	22519
850.815	22664
850.95	22637
851.085	22828
851.22	22611
851.355	22577
851.49	22641
851.625	22603
851.76	22618
851.895	22485
852.03	22516
852.165	22603
852.299	22607
852.434	22736
852.569	22698
852.703	22660
852.838	22626
852.973	22710
853.107	22820
853.242	22698
853.376	22531
853.511	22219
853.645	22390
853.78	22531
853.914	22402
854.048	22382
854.183	22440
854.317	22428
854.451	22649
854.585	22394
854.72	22436
854.854	22371
854.988	22417
855.122	22466
855.256	22276
855.39	22322
855.524	22455
855.658	22554
855.792	22462
855.926	22455
856.06	22478
856.194	22497
856.327	22333
856.461	22333
856.595	22337
856.729	22379
856.862	22512
856.996	22421
857.13	22493
857.263	22603
857.397	22500
857.53	22504
857.664	22405
857.797	22531
857.931	22580
858.064	22443
858.197	22569
858.331	22337
858.464	22284
858.597	22295
858.731	22493
858.864	22348
858.997	22398
859.13	22436
859.263	22470
859.396	22504
859.529	22428
859.662	22443
859.795	22215
859.928	22447
860.061	22611
860.194	22706
860.327	22421
860.46	22508
860.592	22603
860.725	22729
860.858	22508
860.99	22344
861.123	22390
861.256	22428
861.388	22421
861.521	23239
861.653	22306
861.786	22074
861.918	22249
862.05	22352
862.183	22402
862.315	22356
862.447	22265
862.58	22348
862.712	22074
862.844	22044
862.976	22204
863.108	22207
863.24	22672
863.372	22067
863.504	22097
863.636	22135
863.768	22090
863.9	22204
864.032	22109
864.164	22135
864.296	22101
864.428	22173
864.559	22226
864.691	22238
864.823	22131
864.954	22181
865.086	22139
865.217	22067
865.349	21880
865.48	21979
865.612	22029
865.743	22032
865.875	21994
866.006	21934
866.137	22002
866.269	22021
866.4	21937
866.531	21941
866.662	21793
866.793	21873
866.924	21934
867.055	22013
867.186	21937
867.317	21865
867.448	21804
867.579	21854
867.71	21732
867.841	21854
867.972	21968
868.103	21827
868.233	21994
868.364	21861
868.495	22044
868.625	22207
868.756	22234
868.886	22059
869.017	22234
869.147	22188
869.278	22211
869.408	22246
869.539	22234
869.669	22322
869.799	22291
869.929	22337
870.06	22154
870.19	22428
870.32	22390
870.45	22557
870.58	22615
870.71	22618
870.84	22687
870.97	22603
871.1	22512
871.23	22702
871.36	22755
871.489	22634
871.619	22691
871.749	22816
871.879	22850
872.008	22858
872.138	22801
872.267	22733
872.397	22656
872.526	22531
872.656	22618
872.785	22630
872.915	22812
873.044	22923
873.173	22915
873.303	22908
873.432	22835
873.561	22934
873.69	22877
873.819	22740
873.948	22710
874.077	22824
874.206	22611
874.335	22854
874.464	22892
874.593	22881
874.722	23090
874.851	22972
874.979	23098
875.108	22923
875.237	22885
875.365	22862
875.494	23018
875.623	23029
875.751	23006
875.88	23044
876.008	23098
876.136	23235
876.265	23402
876.393	23558
876.521	23482
876.65	23482
876.778	23406
876.906	23356
877.034	23455
877.162	23368
877.29	23284
877.418	23303
877.546	23402
877.674	23296
877.802	23296
877.93	23402
878.058	23250
878.185	23269
878.313	23212
878.441	23254
878.568	23246
878.696	23406
878.824	23315
878.951	23425
879.079	23570
879.206	23589
879.333	23547
879.461	23208
879.588	23478
879.715	23501
879.842	23646
879.97	23433
880.097	23113
880.224	23170
880.351	23136
880.478	23185
880.605	23151
880.732	23178
880.859	23296
880.986	23178
881.112	23220
881.239	23006
881.366	22854
881.493	22767
881.619	22786
881.746	22771
881.872	22774
881.999	22580
882.125	22474
882.252	22713
882.378	22649
882.505	22812
882.631	22599
882.757	22432
882.883	22504
883.01	22421
883.136	22303
883.262	22162
883.388	22192
883.514	22394
883.64	22493
883.766	22329
883.892	22162
884.018	22185
884.143	22265
884.269	22428
884.395	22090
884.52	22013
884.646	22044
884.772	21895
884.897	22029
885.023	22044
885.148	22158
885.274	22280
885.399	22063
885.524	22200
885.65	22025
885.775	22093
885.9	22025
886.025	22143
886.15	22181
886.275	22082
886.4	21895
886.525	22070
886.65	22029
886.775	21876
886.9	22158
887.025	22192
887.149	21994
887.274	21797
887.399	21816
887.523	21736
887.648	21846
887.773	21713
887.897	21903
888.021	21888
888.146	21736
888.27	21937
888.395	21972
888.519	21850
888.643	21785
888.767	21854
888.891	21720
889.015	21481
889.139	21610
889.263	21610
889.387	21671
889.511	21892
889.635	21762
889.759	21610
889.883	21549
890.006	21450
890.13	21656
890.254	21488
890.377	21469
890.501	21298
890.624	21260
890.748	21408
890.871	21214
890.995	21188
891.118	21127
891.241	21230
891.364	21173
891.488	21260
891.611	21062
891.734	21036
891.857	21211
891.98	21119
892.103	21176
892.226	21169
892.349	21043
892.471	20994
892.594	21017
892.717	21066
892.839	21039
892.962	20963
893.085	21089
893.207	21032
893.33	20971
893.452	20960
893.575	21077
893.697	21116
893.819	21173
893.941	21051
894.064	21199
894.186	20948
894.308	20952
894.43	21020
894.552	21165
894.674	21066
894.796	20933
894.918	20921
895.04	20876
895.161	21047
895.283	21074
895.405	20918
895.526	21001
895.648	20914
895.769	21013
895.891	21051
896.012	21116
896.134	21085
896.255	21024
896.376	21062
896.498	20925
896.619	21009
896.74	20876
896.861	21062
896.982	21386
897.103	21481
897.224	21264
897.345	21154
897.466	21165
897.587	21161
897.708	21389
897.828	21211
897.949	21150
898.07	21055
898.19	21195
898.311	21351
898.431	21032
898.552	21112
898.672	21176
898.792	21386
898.913	21203
899.033	21192
899.153	20975
899.273	20914
899.393	21070
899.513	20975
899.633	20895
899.753	21001
899.873	20929
899.993	20948
900.113	20887
900.232	20948
900.352	20933
900.472	20701
900.591	20579
900.711	20796
900.83	20724
900.95	20815
901.069	20811
901.189	20663
901.308	20381
901.427	20233
901.546	20267
901.665	20244
901.784	20370
901.904	20103
902.023	20050
902.141	19849
902.26	19780
902.379	19864
902.498	19795
902.617	19666
902.735	19753
902.854	19723
902.973	19693
903.091	19518
903.21	19403
903.328	19369
903.446	19358
903.565	19331
903.683	19331
903.801	19099
903.919	19202
904.038	19179
904.156	19156
904.274	19061
904.392	19061
904.51	18916
904.627	19084
904.745	19000
904.863	18981
904.981	18833
905.098	18757
905.216	18661
905.334	18700
905.451	18814
905.569	18608
905.686	18700
905.803	18677
905.921	18372
906.038	18475
906.155	18475
906.272	18315
906.389	18414
906.506	18178
906.623	18190
906.74	18213
906.857	18091
906.974	18079
907.091	18220
907.208	18330
907.324	18152
907.441	18140
907.557	17927
907.674	17939
907.79	17836
907.907	17824
908.023	17950
908.139	17931
908.256	17813
908.372	17866
908.488	17851
908.604	17604
908.72	17623
908.836	17619
908.952	17589
909.068	17646
909.184	17737
909.3	17505
909.415	17714
909.531	17505
909.647	17398
909.762	17212
909.878	17360
909.993	17322
910.108	17303
910.224	17269
910.339	17334
910.454	17132
910.57	16995
910.685	17003
910.8	17349
910.915	17349
911.03	17052
911.145	16911
911.259	16961
911.374	17006
911.489	16816
911.604	16801
911.718	16626
911.833	16748
911.947	16580
912.062	16440
912.176	16702
912.291	16573
912.405	16512
912.519	16824
912.633	16778
912.748	16664
912.862	16626
912.976	16470
913.09	16375
913.204	16432
913.318	16409
913.431	16588
913.545	16474
913.659	16489
913.772	16337
913.886	16284
914	16314
914.113	16261
914.226	16382
914.34	16291
914.453	16166
914.566	16166
914.68	16177
914.793	16040
914.906	15857
915.019	15884
915.132	15804
915.245	15747
915.358	15842
915.47	15854
915.583	15808
915.696	15808
915.809	15880
915.921	15911
916.034	15724
916.146	15648
916.259	15724
916.371	15736
916.483	15747
916.595	15698
916.708	15701
916.82	15698
916.932	15625
917.044	15648
917.156	15469
917.268	15466
917.38	15443
917.491	15378
917.603	15439
917.715	15439
917.826	15477
917.938	15332
918.049	15287
918.161	15336
918.272	15462
918.384	15515
918.495	15302
918.606	15188
918.717	15195
918.828	15161
918.939	15192
919.05	15097
919.161	15173
919.272	14944
919.383	15108
919.494	15112
919.604	15344
919.715	15241
919.826	15077
919.936	15097
920.047	15230
920.157	15112
920.267	15378
920.378	15089
920.488	15066
920.598	15268
920.708	15389
920.818	15291
920.928	15291
921.038	15443
921.148	15321
921.258	15142
921.368	15005
921.477	14868
921.587	14743
921.697	14796
921.806	14773
921.916	14602
922.025	14617
922.134	14461
922.244	14556
922.353	14507
922.462	14374
922.571	14267
922.68	14176
922.789	14054
922.898	14134
923.007	14081
923.116	14168
923.224	14092
923.333	14039
923.442	14001
923.55	13902
923.659	13963
923.767	13970
923.876	13883
923.984	14001
924.092	13772
924.201	13940
924.309	13871
924.417	13852
924.525	13750
924.633	13742
924.741	14575
924.849	13586
924.956	13731
925.064	13639
925.172	13487
925.279	13533
925.387	13548
925.494	13586
925.602	13742
925.709	13563
925.816	13381
925.924	13460
926.031	13499
926.138	13499
926.245	13422
926.352	13324
926.459	13457
926.566	13559
926.673	13358
926.779	13346
926.886	13236
926.993	13129
927.099	13080
927.206	12916
927.312	13015
927.419	13034
927.525	13072
927.631	13149
927.737	12909
927.843	12894
927.95	12749
928.056	12856
928.162	12821
928.267	12890
928.373	13594
928.479	12901
928.585	12722
928.69	12859
928.796	12871
928.901	12719
929.007	12559
929.112	12703
929.218	12658
929.323	12669
929.428	12517
929.533	12772
929.638	12620
929.743	12608
929.848	12601
929.953	12578
930.058	12410
930.163	12311
930.267	12342
930.372	12388
930.477	12292
930.581	12441
930.685	12258
930.79	12148
930.894	12205
930.998	12072
931.103	12163
931.207	11874
931.311	11817
931.415	11726
931.519	11417
931.623	11558
