Data from test_V78500241_605.txt Node
Date: Fri Mar 25 15:45:59 CST 2022
User: usil
Spectrometer: V785-0024
Trigger mode: 0
Integration Time (sec): 4.000000E-1
Scans to average: 1
Nonlinearity correction enabled: false
Boxcar width: 0
Storing dark spectrum: false
XAxis mode: Wavelengths
Number of Pixels in Spectrum: 1024
>>>>>Begin Spectral Data<<<<<
801.071	27599
801.214	27340
801.356	27131
801.499	27260
801.641	26975
801.783	27070
801.926	27165
802.068	27047
802.211	26960
802.353	26792
802.496	26678
802.638	26712
802.78	26712
802.923	26617
803.065	26670
803.208	26629
803.35	26708
803.492	26826
803.635	26830
803.777	26826
803.919	26963
804.061	27036
804.204	26887
804.346	26830
804.488	26678
804.63	26765
804.773	26682
804.915	26758
805.057	27013
805.199	26842
805.341	26929
805.483	27024
805.626	26887
805.768	26864
805.91	26906
806.052	27051
806.194	27001
806.336	27123
806.478	26971
806.62	26960
806.762	27070
806.904	27245
807.046	27488
807.188	27310
807.33	27275
807.472	27519
807.614	27283
807.756	27272
807.898	27176
808.04	27173
808.182	27230
808.324	27401
808.465	27291
808.607	27526
808.749	27641
808.891	27720
809.033	27907
809.174	27625
809.316	27625
809.458	27606
809.6	27462
809.741	27778
809.883	27717
810.025	27762
810.166	27937
810.308	27911
810.45	27865
810.591	27774
810.733	27625
810.875	27526
811.016	27367
811.158	27610
811.299	27656
811.441	27797
811.582	27614
811.724	27485
811.865	27443
812.007	27641
812.148	27576
812.29	27614
812.431	27717
812.573	27819
812.714	27964
812.855	28074
812.997	28143
813.138	28367
813.279	28287
813.421	28002
813.562	28082
813.703	27941
813.845	27816
813.986	27504
814.127	27378
814.268	27287
814.41	27298
814.551	27275
814.692	27252
814.833	27146
814.974	27249
815.115	27408
815.256	27039
815.397	27135
815.539	27135
815.68	27112
815.821	26940
815.962	27051
816.103	27066
816.244	27017
816.385	26910
816.526	26773
816.666	26781
816.807	26621
816.948	26549
817.089	26674
817.23	26495
817.371	26450
817.512	26560
817.653	26408
817.793	26393
817.934	26533
818.075	26579
818.216	26556
818.356	26514
818.497	26537
818.638	26122
818.778	26282
818.919	26263
819.06	26396
819.2	26446
819.341	26453
819.481	26389
819.622	26636
819.762	26792
819.903	26720
820.043	26629
820.184	26518
820.324	26682
820.465	26594
820.605	26655
820.746	26609
820.886	26606
821.026	26575
821.167	26590
821.307	26587
821.447	26442
821.588	26473
821.728	26271
821.868	26229
822.008	25997
822.149	25986
822.289	25993
822.429	25932
822.569	25677
822.709	25803
822.849	25411
822.99	25445
823.13	25479
823.27	25411
823.41	25240
823.55	25103
823.69	25445
823.83	25263
823.97	25327
824.11	25217
824.25	25137
824.389	25152
824.529	25339
824.669	25213
824.809	25320
824.949	25297
825.089	25285
825.228	25255
825.368	25065
825.508	25042
825.648	25148
825.787	25095
825.927	25057
826.067	25038
826.206	25053
826.346	25091
826.485	25046
826.625	24973
826.765	24996
826.904	24992
827.044	24844
827.183	24753
827.323	24730
827.462	24829
827.601	24620
827.741	24620
827.88	24798
828.02	24642
828.159	24646
828.298	24760
828.437	24760
828.577	24665
828.716	24738
828.855	24753
828.994	24962
829.134	24391
829.273	24456
829.412	24441
829.551	24357
829.69	24536
829.829	24540
829.968	24460
830.107	24604
830.246	24517
830.385	24388
830.524	24289
830.663	24117
830.802	24194
830.941	24030
831.08	24167
831.219	24079
831.357	24098
831.496	24270
831.635	24171
831.774	24030
831.913	24038
832.051	23859
832.19	23904
832.329	23866
832.467	23809
832.606	23687
832.744	23680
832.883	23687
833.022	23729
833.16	23752
833.299	23764
833.437	23665
833.576	23817
833.714	23813
833.852	23836
833.991	23843
834.129	23939
834.267	23786
834.406	23771
834.544	23840
834.682	23703
834.821	23771
834.959	23927
835.097	23707
835.235	23794
835.373	23699
835.511	23676
835.65	23604
835.788	23649
835.926	23269
836.064	23414
836.202	23379
836.34	23680
836.478	23794
836.615	23566
836.753	23627
836.891	23623
837.029	23589
837.167	23668
837.305	23452
837.443	23410
837.58	23372
837.718	23528
837.856	23604
837.993	23368
838.131	23467
838.269	23315
838.406	23322
838.544	23265
838.681	23010
838.819	23075
838.956	22942
839.094	22949
839.231	22949
839.369	23086
839.506	23307
839.643	23166
839.781	22896
839.918	22915
840.055	22946
840.193	22885
840.33	22820
840.467	22797
840.604	22984
840.742	23098
840.879	22835
841.016	22736
841.153	22710
841.29	22904
841.427	22816
841.564	22847
841.701	22866
841.838	22603
841.975	22687
842.112	22755
842.249	22626
842.385	22641
842.522	22835
842.659	22702
842.796	22675
842.933	22675
843.069	22679
843.206	22618
843.343	22615
843.479	22702
843.616	22497
843.752	22382
843.889	22363
844.025	22478
844.162	22329
844.298	22535
844.435	22440
844.571	22329
844.708	22333
844.844	22573
844.98	22405
845.117	22413
845.253	22329
845.389	22261
845.525	22257
845.661	22143
845.798	22086
845.934	22086
846.07	22120
846.206	22154
846.342	22310
846.478	22120
846.614	21899
846.75	21876
846.886	21838
847.022	21895
847.158	21953
847.294	21975
847.429	21854
847.565	21804
847.701	21994
847.837	21591
847.972	21488
848.108	21686
848.244	21606
848.379	21450
848.515	21374
848.65	21416
848.786	21553
848.921	21500
849.057	21504
849.192	21515
849.328	21553
849.463	21439
849.598	21306
849.734	21325
849.869	21275
850.004	21249
850.14	21203
850.275	21287
850.41	21047
850.545	21127
850.68	21218
850.815	21108
850.95	21169
851.085	21336
851.22	21348
851.355	21370
851.49	21161
851.625	21100
851.76	21138
851.895	21176
852.03	21081
852.165	21157
852.299	21241
852.434	21165
852.569	21226
852.703	21116
852.838	21264
852.973	21279
853.107	21176
853.242	21070
853.376	21070
853.511	21020
853.645	21066
853.78	21165
853.914	21077
854.048	20960
854.183	21039
854.317	21138
854.451	21165
854.585	21207
854.72	20918
854.854	21051
854.988	20998
855.122	20994
855.256	20876
855.39	20921
855.524	21093
855.658	21135
855.792	21017
855.926	21032
856.06	21001
856.194	21074
856.327	20994
856.461	20918
856.595	20880
856.729	21047
856.862	21119
856.996	21028
857.13	21108
857.263	21252
857.397	21138
857.53	20975
857.664	21009
857.797	21104
857.931	21161
858.064	21112
858.197	21169
858.331	21055
858.464	20944
858.597	20899
858.731	20960
858.864	20982
858.997	20918
859.13	21017
859.263	21123
859.396	21058
859.529	20921
859.662	20937
859.795	20944
859.928	21077
860.061	21249
860.194	21192
860.327	21039
860.46	21028
860.592	21112
860.725	21241
860.858	21169
860.99	21062
861.123	20933
861.256	20952
861.388	21039
861.521	21507
861.653	20861
861.786	20826
861.918	20914
862.05	20948
862.183	20895
862.315	20853
862.447	20975
862.58	20956
862.712	20750
862.844	20712
862.976	20804
863.108	20804
863.24	21230
863.372	20743
863.504	20754
863.636	20743
863.768	20773
863.9	20682
864.032	20686
864.164	20754
864.296	20659
864.428	20819
864.559	20762
864.691	20857
864.823	20731
864.954	20606
865.086	20739
865.217	20716
865.349	20575
865.48	20735
865.612	20571
865.743	20762
865.875	20602
866.006	20503
866.137	20617
866.269	20613
866.4	20556
866.531	20556
866.662	20507
866.793	20507
866.924	20511
867.055	20575
867.186	20503
867.317	20503
867.448	20431
867.579	20522
867.71	20526
867.841	20450
867.972	20545
868.103	20526
868.233	20415
868.364	20568
868.495	20564
868.625	20781
868.756	20876
868.886	20697
869.017	20777
869.147	20921
869.278	20796
869.408	20819
869.539	20902
869.669	20834
869.799	20857
869.929	20929
870.06	20902
870.19	21070
870.32	21100
870.45	21142
870.58	21237
870.71	21447
870.84	21329
870.97	21188
871.1	21173
871.23	21435
871.36	21355
871.489	21336
871.619	21378
871.749	21401
871.879	21454
872.008	21454
872.138	21272
872.267	21378
872.397	21233
872.526	21249
872.656	21256
872.785	21237
872.915	21374
873.044	21538
873.173	21378
873.303	21351
873.432	21443
873.561	21485
873.69	21435
873.819	21435
873.948	21412
874.077	21336
874.206	21363
874.335	21420
874.464	21477
874.593	21804
874.722	21648
874.851	21713
874.979	21606
875.108	21778
875.237	21576
875.365	21603
875.494	21770
875.623	21622
875.751	21667
875.88	21705
876.008	21804
876.136	21987
876.265	21975
876.393	22185
876.521	22070
876.65	22116
876.778	22192
876.906	22051
877.034	22002
877.162	21991
877.29	21979
877.418	22002
877.546	21937
877.674	22063
877.802	21934
877.93	21979
878.058	21915
878.185	21842
878.313	21915
878.441	22029
878.568	21701
878.696	21892
878.824	22078
878.951	21945
879.079	22196
879.206	22181
879.333	22173
879.461	21945
879.588	22109
879.715	22211
879.842	22200
879.97	22040
880.097	21583
880.224	21831
880.351	21854
880.478	21717
880.605	21736
880.732	21804
880.859	22120
880.986	21827
881.112	21835
881.239	21686
881.366	21641
881.493	21515
881.619	21412
881.746	21428
881.872	21431
881.999	21332
882.125	21367
882.252	21439
882.378	21264
882.505	21485
882.631	21207
882.757	21096
882.883	21370
883.01	21157
883.136	21081
883.262	20937
883.388	20944
883.514	21058
883.64	21176
883.766	20967
883.892	20929
884.018	20830
884.143	20975
884.269	21169
884.395	20876
884.52	20849
884.646	20682
884.772	20754
884.897	20678
885.023	20682
885.148	20823
885.274	20895
885.399	20853
885.524	20708
885.65	20819
885.775	20792
885.9	20712
886.025	20811
886.15	20845
886.275	20678
886.4	20629
886.525	20705
886.65	20708
886.775	20560
886.9	20887
887.025	20914
887.149	20678
887.274	20549
887.399	20507
887.523	20450
887.648	20450
887.773	20355
887.897	20686
888.021	20564
888.146	20469
888.27	20663
888.395	20640
888.519	20598
888.643	20533
888.767	20632
888.891	20431
889.015	20317
889.139	20381
889.263	20282
889.387	20374
889.511	20522
889.635	20408
889.759	20294
889.883	20206
890.006	20214
890.13	20431
890.254	20221
890.377	20294
890.501	20111
890.624	20027
890.748	20062
890.871	20005
890.995	19921
891.118	19856
891.241	19856
891.364	19864
891.488	20031
891.611	19993
891.734	19887
891.857	20054
891.98	19887
892.103	19925
892.226	19879
892.349	19757
892.471	19696
892.594	19734
892.717	19814
892.839	19993
892.962	19731
893.085	19803
893.207	19731
893.33	19753
893.452	19685
893.575	19947
893.697	19746
893.819	19955
893.941	20008
894.064	19932
894.186	19693
894.308	19799
894.43	19909
894.552	19818
894.674	19811
894.796	19734
894.918	19753
895.04	19696
895.161	19959
895.283	19784
895.405	19704
895.526	19868
895.648	19750
895.769	19837
895.891	19776
896.012	19883
896.134	19799
896.255	19814
896.376	19704
896.498	19700
896.619	19898
896.74	19791
896.861	19932
896.982	20126
897.103	20256
897.224	20065
897.345	20191
897.466	19997
897.587	20065
897.708	20134
897.828	20088
897.949	20035
898.07	19925
898.19	20020
898.311	20183
898.431	20012
898.552	20069
898.672	20103
898.792	20103
898.913	20088
899.033	19928
899.153	19906
899.273	19708
899.393	19769
899.513	19890
899.633	19769
899.753	19822
899.873	19734
899.993	19894
900.113	19738
900.232	19753
900.352	19799
900.472	19685
900.591	19510
900.711	19586
900.83	19540
900.95	19647
901.069	19712
901.189	19609
901.308	19255
901.427	19179
901.546	19141
901.665	19228
901.784	19110
901.904	19076
902.023	18947
902.141	18787
902.26	18703
902.379	18745
902.498	18673
902.617	18635
902.735	18787
902.854	18551
902.973	18658
903.091	18445
903.21	18334
903.328	18384
903.446	18285
903.565	18076
903.683	18152
903.801	18030
903.919	18201
904.038	18045
904.156	17908
904.274	18095
904.392	17878
904.51	17885
904.627	17859
904.745	17942
904.863	17935
904.981	17756
905.098	17543
905.216	17558
905.334	17699
905.451	17562
905.569	17672
905.686	17665
905.803	17676
905.921	17391
906.038	17440
906.155	17417
906.272	17402
906.389	17345
906.506	17197
906.623	17250
906.74	17170
906.857	17033
906.974	17045
907.091	17242
907.208	17315
907.324	17197
907.441	17025
907.557	16892
907.674	16881
907.79	16767
907.907	16942
908.023	16816
908.139	16869
908.256	16729
908.372	16748
908.488	16653
908.604	16622
908.72	16531
908.836	16607
908.952	16573
909.068	16649
909.184	16687
909.3	16569
909.415	16573
909.531	16554
909.647	16344
909.762	16223
909.878	16291
909.993	16363
910.108	16348
910.224	16215
910.339	16192
910.454	16105
910.57	16109
910.685	16074
910.8	16352
910.915	16238
911.03	16067
911.145	15968
911.259	15884
911.374	15854
911.489	15816
911.604	15724
911.718	15701
911.833	15572
911.947	15591
912.062	15507
912.176	15625
912.291	15694
912.405	15614
912.519	15854
912.633	15842
912.748	15705
912.862	15637
912.976	15477
913.09	15321
913.204	15340
913.318	15564
913.431	15534
913.545	15614
913.659	15553
913.772	15393
913.886	15321
914	15226
914.113	15386
914.226	15401
914.34	15214
914.453	15192
914.566	15237
914.68	15184
914.793	15066
914.906	14914
915.019	14864
915.132	14750
915.245	14853
915.358	15017
915.47	14857
915.583	14883
915.696	14872
915.809	14979
915.921	14880
916.034	14880
916.146	14739
916.259	14769
916.371	14853
916.483	14842
916.595	14754
916.708	14735
916.82	14636
916.932	14651
917.044	14651
917.156	14663
917.268	14465
917.38	14556
917.491	14492
917.603	14518
917.715	14636
917.826	14644
917.938	14400
918.049	14374
918.161	14469
918.272	14632
918.384	14495
918.495	14457
918.606	14343
918.717	14366
918.828	14294
918.939	14305
919.05	14240
919.161	14317
919.272	14062
919.383	14115
919.494	14374
919.604	14343
919.715	14214
919.826	14138
919.936	14210
920.047	14362
920.157	14347
920.267	14511
920.378	14336
920.488	14328
920.598	14434
920.708	14560
920.818	14476
920.928	14457
921.038	14644
921.148	14450
921.258	14259
921.368	14134
921.477	13974
921.587	14039
921.697	13909
921.806	13978
921.916	13898
922.025	13677
922.134	13658
922.244	13552
922.353	13704
922.462	13605
922.571	13525
922.68	13331
922.789	13304
922.898	13282
923.007	13236
923.116	13244
923.224	13274
923.333	13202
923.442	13228
923.55	13103
923.659	13179
923.767	13187
923.876	13072
923.984	13156
924.092	13103
924.201	13141
924.309	13065
924.417	13061
924.525	12970
924.633	12993
924.741	13936
924.849	12662
924.956	12913
925.064	12810
925.172	12684
925.279	12711
925.387	12795
925.494	12764
925.602	12844
925.709	12787
925.816	12585
925.924	12738
926.031	12814
926.138	12601
926.245	12768
926.352	12623
926.459	12753
926.566	12821
926.673	12593
926.779	12471
926.886	12471
926.993	12388
927.099	12327
927.206	12273
927.312	12289
927.419	12369
927.525	12350
927.631	12410
927.737	12194
927.843	12182
927.95	12015
928.056	12019
928.162	12163
928.267	12095
928.373	12779
928.479	12121
928.585	11958
928.69	12011
928.796	12076
928.901	12053
929.007	11904
929.112	11999
929.218	11988
929.323	11939
929.428	11946
929.533	11973
929.638	11882
929.743	11729
929.848	11923
929.953	11863
930.058	11703
930.163	11573
930.267	11577
930.372	11779
930.477	11497
930.581	11786
930.685	11573
930.79	11501
930.894	11436
930.998	11425
931.103	11566
931.207	11288
931.311	11102
931.415	11090
931.519	10824
931.623	10850
