Data from test_V78500241_730.txt Node
Date: Fri Mar 25 15:46:51 CST 2022
User: usil
Spectrometer: V785-0024
Trigger mode: 0
Integration Time (sec): 4.000000E-1
Scans to average: 1
Nonlinearity correction enabled: false
Boxcar width: 0
Storing dark spectrum: false
XAxis mode: Wavelengths
Number of Pixels in Spectrum: 1024
>>>>>Begin Spectral Data<<<<<
801.071	28291
801.214	28352
801.356	28063
801.499	27937
801.641	27899
801.783	27861
801.926	27918
802.068	27724
802.211	27873
802.353	27747
802.496	27675
802.638	27488
802.78	27462
802.923	27393
803.065	27401
803.208	27405
803.35	27447
803.492	27675
803.635	27690
803.777	27644
803.919	27755
804.061	28120
804.204	27732
804.346	27789
804.488	27781
804.63	27800
804.773	27549
804.915	27606
805.057	27789
805.199	27816
805.341	27808
805.483	27888
805.626	27892
805.768	27895
805.91	27934
806.052	27774
806.194	27808
806.336	28063
806.478	27888
806.62	27979
806.762	28116
806.904	28097
807.046	28398
807.188	28284
807.33	28360
807.472	28440
807.614	28310
807.756	28249
807.898	28169
808.04	27964
808.182	28067
808.324	28070
808.465	28093
808.607	28363
808.749	28474
808.891	28443
809.033	28656
809.174	28668
809.316	28478
809.458	28550
809.6	28622
809.741	28668
809.883	28615
810.025	28812
810.166	28938
810.308	28877
810.45	28679
810.591	28736
810.733	28744
810.875	28599
811.016	28470
811.158	28440
811.299	28702
811.441	28767
811.582	28786
811.724	28626
811.865	28538
812.007	28557
812.148	28618
812.29	28713
812.431	28824
812.573	28885
812.714	29048
812.855	28930
812.997	29197
813.138	29254
813.279	29185
813.421	29151
813.562	29109
813.703	28942
813.845	28900
813.986	28455
814.127	28295
814.268	28280
814.41	28276
814.551	28344
814.692	28177
814.833	28242
814.974	28188
815.115	28261
815.256	28105
815.397	28120
815.539	28162
815.68	28204
815.821	28032
815.962	28124
816.103	28048
816.244	27956
816.385	27778
816.526	27972
816.666	27698
816.807	27644
816.948	27671
817.089	27728
817.23	27610
817.371	27523
817.512	27591
817.653	27485
817.793	27477
817.934	27515
818.075	27694
818.216	27523
818.356	27526
818.497	27606
818.638	27340
818.778	27287
818.919	27401
819.06	27321
819.2	27564
819.341	27511
819.481	27572
819.622	27812
819.762	27934
819.903	27739
820.043	27720
820.184	27625
820.324	27656
820.465	27789
820.605	27705
820.746	27679
820.886	27519
821.026	27709
821.167	27701
821.307	27743
821.447	27637
821.588	27526
821.728	27401
821.868	27241
822.008	27058
822.149	27119
822.289	27058
822.429	26678
822.569	26769
822.709	26750
822.849	26613
822.99	26594
823.13	26606
823.27	26469
823.41	26355
823.55	26206
823.69	26556
823.83	26571
823.97	26343
824.11	26183
824.25	26233
824.389	26164
824.529	26343
824.669	26214
824.809	26415
824.949	26339
825.089	26351
825.228	26324
825.368	26065
825.508	25986
825.648	26103
825.787	26031
825.927	26096
826.067	25993
826.206	26157
826.346	26092
826.485	26320
826.625	26084
826.765	26320
826.904	26035
827.044	25982
827.183	25944
827.323	25715
827.462	25860
827.601	25814
827.741	25803
827.88	25871
828.02	25704
828.159	25807
828.298	25856
828.437	25940
828.577	25913
828.716	25868
828.855	25700
828.994	25518
829.134	25556
829.273	25537
829.412	25320
829.551	25460
829.69	25533
829.829	25567
829.968	25559
830.107	25590
830.246	25441
830.385	25445
830.524	25316
830.663	25327
830.802	25327
830.941	25168
831.08	25137
831.219	25183
831.357	25263
831.496	25282
831.635	25202
831.774	25099
831.913	24913
832.051	24837
832.19	25034
832.329	24916
832.467	24745
832.606	24844
832.744	24810
832.883	24806
833.022	24749
833.16	24848
833.299	24825
833.437	24871
833.576	24958
833.714	24810
833.852	24776
833.991	24791
834.129	24962
834.267	24829
834.406	24760
834.544	24859
834.682	24844
834.821	24684
834.959	25057
835.097	24798
835.235	24829
835.373	24738
835.511	24802
835.65	24745
835.788	24798
835.926	24570
836.064	24460
836.202	24452
836.34	24703
836.478	24817
836.615	24719
836.753	24707
836.891	24677
837.029	24722
837.167	24544
837.305	24414
837.443	24650
837.58	24502
837.718	24544
837.856	24604
837.993	24388
838.131	24604
838.269	24395
838.406	24536
838.544	24296
838.681	24201
838.819	24114
838.956	23863
839.094	23931
839.231	24095
839.369	24110
839.506	24311
839.643	24182
839.781	23878
839.918	23904
840.055	23996
840.193	23920
840.33	24011
840.467	23855
840.604	23912
840.742	24117
840.879	23726
841.016	23942
841.153	23805
841.29	23950
841.427	23870
841.564	23908
841.701	23863
841.838	23794
841.975	23828
842.112	23695
842.249	23756
842.385	23653
842.522	23931
842.659	23714
842.796	23520
842.933	23710
843.069	23619
843.206	23535
843.343	23729
843.479	23592
843.616	23623
843.752	23482
843.889	23547
844.025	23551
844.162	23379
844.298	23592
844.435	23391
844.571	23364
844.708	23562
844.844	23402
844.98	23455
845.117	23455
845.253	23318
845.389	23315
845.525	23349
845.661	23269
845.798	23185
845.934	23204
846.07	23124
846.206	23200
846.342	23250
846.478	23162
846.614	22889
846.75	22873
846.886	22774
847.022	22885
847.158	22866
847.294	22946
847.429	22908
847.565	22816
847.701	23098
847.837	22615
847.972	22668
848.108	22607
848.244	22774
848.379	22584
848.515	22421
848.65	22508
848.786	22421
848.921	22436
849.057	22630
849.192	22557
849.328	22413
849.463	22409
849.598	22276
849.734	22360
849.869	22322
850.004	22268
850.14	22272
850.275	22211
850.41	22173
850.545	22280
850.68	22215
850.815	22166
850.95	22143
851.085	22379
851.22	22242
851.355	22219
851.49	22211
851.625	22169
851.76	22234
851.895	22154
852.03	22204
852.165	22192
852.299	22147
852.434	22447
852.569	22204
852.703	22188
852.838	22322
852.973	22341
853.107	22303
853.242	22116
853.376	22036
853.511	21926
853.645	22017
853.78	22223
853.914	22036
854.048	22169
854.183	22048
854.317	22086
854.451	22257
854.585	21994
854.72	21945
854.854	22131
854.988	22070
855.122	22078
855.256	21842
855.39	21960
855.524	21964
855.658	22196
855.792	22135
855.926	21945
856.06	22074
856.194	22070
856.327	21949
856.461	22029
856.595	21873
856.729	21998
856.862	22055
856.996	22040
857.13	22067
857.263	22116
857.397	22143
857.53	22078
857.664	22002
857.797	22162
857.931	22109
858.064	22021
858.197	22116
858.331	22036
858.464	21937
858.597	21911
858.731	22051
858.864	22032
858.997	21968
859.13	22059
859.263	22131
859.396	22158
859.529	22078
859.662	22002
859.795	21998
859.928	22013
860.061	22143
860.194	22280
860.327	22116
860.46	21975
860.592	22131
860.725	22177
860.858	22147
860.99	22055
861.123	21945
861.256	21964
861.388	22082
861.521	22755
861.653	21911
861.786	21819
861.918	21895
862.05	21892
862.183	22013
862.315	22070
862.447	21987
862.58	22055
862.712	21797
862.844	21759
862.976	21827
863.108	21717
863.24	22253
863.372	21675
863.504	21838
863.636	21701
863.768	21739
863.9	21705
864.032	21728
864.164	21625
864.296	21819
864.428	21800
864.559	21819
864.691	21854
864.823	21663
864.954	21671
865.086	21675
865.217	21591
865.349	21606
865.48	21644
865.612	21682
865.743	21808
865.875	21671
866.006	21667
866.137	21606
866.269	21694
866.4	21690
866.531	21515
866.662	21629
866.793	21420
866.924	21561
867.055	21603
867.186	21485
867.317	21603
867.448	21561
867.579	21496
867.71	21431
867.841	21458
867.972	21511
868.103	21568
868.233	21583
868.364	21629
868.495	21633
868.625	21857
868.756	21953
868.886	21732
869.017	21827
869.147	21937
869.278	21854
869.408	21800
869.539	21831
869.669	21766
869.799	21918
869.929	21880
870.06	21953
870.19	22074
870.32	22067
870.45	22070
870.58	22192
870.71	22230
870.84	22196
870.97	22188
871.1	22230
871.23	22253
871.36	22398
871.489	22363
871.619	22318
871.749	22299
871.879	22375
872.008	22634
872.138	22523
872.267	22325
872.397	22268
872.526	22204
872.656	22333
872.785	22207
872.915	22489
873.044	22542
873.173	22485
873.303	22424
873.432	22531
873.561	22554
873.69	22428
873.819	22348
873.948	22493
874.077	22451
874.206	22375
874.335	22603
874.464	22542
874.593	22615
874.722	22580
874.851	22713
874.979	22725
875.108	22641
875.237	22615
875.365	22565
875.494	22653
875.623	22672
875.751	22523
875.88	22611
876.008	22687
876.136	22706
876.265	23060
876.393	23159
876.521	23227
876.65	22976
876.778	23086
876.906	23022
877.034	23022
877.162	23014
877.29	22957
877.418	23006
877.546	23052
877.674	22976
877.802	22889
877.93	22930
878.058	22896
878.185	22896
878.313	22862
878.441	22972
878.568	22869
878.696	22911
878.824	23071
878.951	23010
879.079	23151
879.206	23326
879.333	23212
879.461	23041
879.588	23079
879.715	23231
879.842	23261
879.97	22923
880.097	22892
880.224	22881
880.351	22889
880.478	22782
880.605	22733
880.732	22843
880.859	23056
880.986	22869
881.112	22694
881.239	22474
881.366	22554
881.493	22436
881.619	22219
881.746	22375
881.872	22363
881.999	22413
882.125	22223
882.252	22417
882.378	22325
882.505	22451
882.631	22257
882.757	22086
882.883	22128
883.01	22044
883.136	22017
883.262	21953
883.388	21747
883.514	22044
883.64	22128
883.766	21876
883.892	21842
884.018	21842
884.143	22040
884.269	22025
884.395	21656
884.52	21682
884.646	21694
884.772	21618
884.897	21534
885.023	21637
885.148	21778
885.274	21743
885.399	21759
885.524	21720
885.65	21785
885.775	21622
885.9	21717
886.025	21785
886.15	21720
886.275	21656
886.4	21701
886.525	21610
886.65	21610
886.775	21443
886.9	21861
887.025	21861
887.149	21736
887.274	21420
887.399	21511
887.523	21412
887.648	21447
887.773	21500
887.897	21519
888.021	21447
888.146	21321
888.27	21431
888.395	21557
888.519	21496
888.643	21530
888.767	21450
888.891	21393
889.015	21264
889.139	21317
889.263	21123
889.387	21313
889.511	21363
889.635	21538
889.759	21203
889.883	21188
890.006	21142
890.13	21416
890.254	21096
890.377	21195
890.501	21009
890.624	21036
890.748	20960
890.871	20941
890.995	20769
891.118	20651
891.241	20876
891.364	20800
891.488	20853
891.611	20876
891.734	20819
891.857	20853
891.98	20811
892.103	20883
892.226	20769
892.349	20693
892.471	20537
892.594	20739
892.717	20697
892.839	20648
892.962	20697
893.085	20788
893.207	20727
893.33	20606
893.452	20571
893.575	20777
893.697	20773
893.819	20883
893.941	20826
894.064	20762
894.186	20651
894.308	20560
894.43	20693
894.552	20887
894.674	20724
894.796	20564
894.918	20636
895.04	20590
895.161	20769
895.283	20602
895.405	20571
895.526	20788
895.648	20636
895.769	20678
895.891	20625
896.012	20739
896.134	20765
896.255	20765
896.376	20617
896.498	20632
896.619	20632
896.74	20743
896.861	20693
896.982	20925
897.103	21051
897.224	20914
897.345	20853
897.466	20868
897.587	20872
897.708	20982
897.828	20864
897.949	20826
898.07	20731
898.19	20765
898.311	20876
898.431	20845
898.552	20845
898.672	20979
898.792	20998
898.913	20971
899.033	20716
899.153	20724
899.273	20545
899.393	20526
899.513	20804
899.633	20480
899.753	20686
899.873	20476
899.993	20575
900.113	20450
900.232	20648
900.352	20571
900.472	20374
900.591	20408
900.711	20370
900.83	20119
900.95	20457
901.069	20552
901.189	20404
901.308	20039
901.427	19879
901.546	20008
901.665	20016
901.784	19925
901.904	19833
902.023	19769
902.141	19552
902.26	19594
902.379	19662
902.498	19552
902.617	19362
902.735	19525
902.854	19392
902.973	19419
903.091	19168
903.21	19057
903.328	19156
903.446	19015
903.565	18932
903.683	18943
903.801	18783
903.919	18882
904.038	18970
904.156	18787
904.274	18681
904.392	18627
904.51	18612
904.627	18707
904.745	18707
904.863	18677
904.981	18437
905.098	18319
905.216	18422
905.334	18346
905.451	18334
905.569	18319
905.686	18372
905.803	18323
905.921	18136
906.038	18262
906.155	18243
906.272	18011
906.389	18057
906.506	17984
906.623	18057
906.74	17870
906.857	17737
906.974	17771
907.091	17931
907.208	18057
907.324	18022
907.441	17783
907.557	17611
907.674	17630
907.79	17608
907.907	17376
908.023	17737
908.139	17520
908.256	17539
908.372	17509
908.488	17509
908.604	17421
908.72	17261
908.836	17292
908.952	17318
909.068	17311
909.184	17341
909.3	17421
909.415	17280
909.531	17284
909.647	17067
909.762	17041
909.878	16942
909.993	16953
910.108	16919
910.224	16991
910.339	16965
910.454	16889
910.57	16923
910.685	16778
910.8	17204
910.915	16995
911.03	16748
911.145	16721
911.259	16573
911.374	16592
911.489	16550
911.604	16470
911.718	16421
911.833	16360
911.947	16211
912.062	16261
912.176	16329
912.291	16356
912.405	16322
912.519	16546
912.633	16603
912.748	16405
912.862	16325
912.976	16181
913.09	16036
913.204	16082
913.318	16101
913.431	16253
913.545	16265
913.659	16230
913.772	16147
913.886	16135
914	15945
914.113	16013
914.226	16124
914.34	16044
914.453	15838
914.566	16032
914.68	15854
914.793	15766
914.906	15694
915.019	15542
915.132	15443
915.245	15614
915.358	15625
915.47	15572
915.583	15549
915.696	15610
915.809	15675
915.921	15694
916.034	15454
916.146	15374
916.259	15363
916.371	15595
916.483	15515
916.595	15405
916.708	15439
916.82	15431
916.932	15439
917.044	15420
917.156	15249
917.268	15112
917.38	15283
917.491	15203
917.603	15294
917.715	15237
917.826	15226
917.938	15123
918.049	14956
918.161	15142
918.272	15287
918.384	15146
918.495	15173
918.606	14998
918.717	14914
918.828	14906
918.939	14937
919.05	14830
919.161	14914
919.272	14746
919.383	14788
919.494	15017
919.604	15138
919.715	14963
919.826	14842
919.936	14902
920.047	14990
920.157	14948
920.267	15089
920.378	14830
920.488	14823
920.598	15165
920.708	15230
920.818	15127
920.928	15032
921.038	15135
921.148	15100
921.258	14823
921.368	14777
921.477	14560
921.587	14587
921.697	14503
921.806	14526
921.916	14446
922.025	14317
922.134	14351
922.244	14199
922.353	14294
922.462	14221
922.571	14119
922.68	13967
922.789	13944
922.898	13894
923.007	13864
923.116	14005
923.224	13902
923.333	13845
923.442	13803
923.55	13849
923.659	13761
923.767	13868
923.876	13670
923.984	13791
924.092	13616
924.201	13761
924.309	13609
924.417	13655
924.525	13647
924.633	13571
924.741	14556
924.849	13343
924.956	13476
925.064	13400
925.172	13187
925.279	13221
925.387	13411
925.494	13289
925.602	13521
925.709	13384
925.816	13221
925.924	13320
926.031	13259
926.138	13198
926.245	13293
926.352	13160
926.459	13331
926.566	13350
926.673	13255
926.779	13084
926.886	13019
926.993	12916
927.099	12878
927.206	12840
927.312	12760
927.419	12890
927.525	12829
927.631	12962
927.737	12745
927.843	12738
927.95	12540
928.056	12722
928.162	12703
928.267	12882
928.373	13320
928.479	12833
928.585	12479
928.69	12722
928.796	12734
928.901	12528
929.007	12483
929.112	12616
929.218	12547
929.323	12467
929.428	12391
929.533	12559
929.638	12429
929.743	12338
929.848	12414
929.953	12407
930.058	12273
930.163	12098
930.267	12140
930.372	12232
930.477	12133
930.581	12304
930.685	12152
930.79	12007
930.894	12057
930.998	11942
931.103	12068
931.207	11802
931.311	11532
931.415	11535
931.519	11376
931.623	11379
