Data from test_V78500241_1839.txt Node
Date: Fri Mar 25 15:54:32 CST 2022
User: usil
Spectrometer: V785-0024
Trigger mode: 0
Integration Time (sec): 4.000000E-1
Scans to average: 1
Nonlinearity correction enabled: false
Boxcar width: 0
Storing dark spectrum: false
XAxis mode: Wavelengths
Number of Pixels in Spectrum: 1024
>>>>>Begin Spectral Data<<<<<
801.071	28557
801.214	28405
801.356	28215
801.499	28219
801.641	28036
801.783	28093
801.926	28185
802.068	28006
802.211	28063
802.353	27895
802.496	27888
802.638	27800
802.78	27656
802.923	27766
803.065	27690
803.208	27629
803.35	27789
803.492	27979
803.635	27816
803.777	27854
803.919	28097
804.061	28090
804.204	27964
804.346	27827
804.488	27991
804.63	27850
804.773	27857
804.915	28059
805.057	28169
805.199	27972
805.341	28078
805.483	28135
805.626	28135
805.768	28032
805.91	28078
806.052	28101
806.194	27937
806.336	28405
806.478	28253
806.62	27953
806.762	28276
806.904	28371
807.046	28630
807.188	28481
807.33	28546
807.472	28580
807.614	28481
807.756	28489
807.898	28432
808.04	28295
808.182	28375
808.324	28421
808.465	28584
808.607	28630
808.749	28824
808.891	28881
809.033	28968
809.174	28934
809.316	28809
809.458	28717
809.6	28816
809.741	28774
809.883	28885
810.025	29003
810.166	29102
810.308	29208
810.45	29010
810.591	29003
810.733	28930
810.875	28759
811.016	28698
811.158	28721
811.299	28850
811.441	29075
811.582	28877
811.724	28957
811.865	28843
812.007	28725
812.148	28725
812.29	28904
812.431	28968
812.573	28938
812.714	29102
812.855	29318
812.997	29398
813.138	29543
813.279	29414
813.421	29341
813.562	29345
813.703	29098
813.845	28919
813.986	28702
814.127	28592
814.268	28478
814.41	28599
814.551	28565
814.692	28622
814.833	28344
814.974	28344
815.115	28424
815.256	28421
815.397	28310
815.539	28413
815.68	28215
815.821	28219
815.962	28284
816.103	28268
816.244	28219
816.385	28093
816.526	28120
816.666	27956
816.807	27732
816.948	27709
817.089	27876
817.23	27789
817.371	27660
817.512	27861
817.653	27835
817.793	27682
817.934	27846
818.075	27713
818.216	27770
818.356	27709
818.497	27663
818.638	27599
818.778	27561
818.919	27450
819.06	27675
819.2	27789
819.341	27812
819.481	27778
819.622	28044
819.762	28192
819.903	28093
820.043	28116
820.184	27922
820.324	27926
820.465	27983
820.605	27960
820.746	27911
820.886	27717
821.026	27922
821.167	27888
821.307	28059
821.447	27766
821.588	27762
821.728	27583
821.868	27439
822.008	27291
822.149	27507
822.289	27344
822.429	26990
822.569	26956
822.709	27036
822.849	26876
822.99	26796
823.13	26708
823.27	26800
823.41	26625
823.55	26427
823.69	26651
823.83	26651
823.97	26598
824.11	26465
824.25	26423
824.389	26412
824.529	26400
824.669	26484
824.809	26514
824.949	26495
825.089	26530
825.228	26632
825.368	26275
825.508	26278
825.648	26275
825.787	26362
825.927	26214
826.067	26263
826.206	26282
826.346	26412
826.485	26374
826.625	26374
826.765	26415
826.904	26347
827.044	25970
827.183	26016
827.323	25997
827.462	26039
827.601	25993
827.741	25936
827.88	26130
828.02	25822
828.159	26001
828.298	25959
828.437	26092
828.577	25833
828.716	26020
828.855	25894
828.994	25632
829.134	25753
829.273	25738
829.412	25746
829.551	25715
829.69	25696
829.829	25693
829.968	25685
830.107	25856
830.246	25670
830.385	25658
830.524	25788
830.663	25571
830.802	25426
830.941	25274
831.08	25072
831.219	25266
831.357	25320
831.496	25552
831.635	25346
831.774	25301
831.913	25080
832.051	25152
832.19	25194
832.329	25065
832.467	25122
832.606	24901
832.744	24894
832.883	25072
833.022	24947
833.16	24886
833.299	25027
833.437	25038
833.576	24992
833.714	25019
833.852	25027
833.991	25076
834.129	25129
834.267	25080
834.406	25099
834.544	25088
834.682	25095
834.821	25004
834.959	25263
835.097	25031
835.235	24909
835.373	25065
835.511	25103
835.65	24760
835.788	24916
835.926	24817
836.064	24654
836.202	24715
836.34	24928
836.478	24913
836.615	24806
836.753	24871
836.891	24844
837.029	24882
837.167	24795
837.305	24783
837.443	24707
837.58	24631
837.718	24791
837.856	24738
837.993	24654
838.131	24677
838.269	24696
838.406	24616
838.544	24532
838.681	24285
838.819	24350
838.956	24152
839.094	24178
839.231	24155
839.369	24460
839.506	24555
839.643	24418
839.781	24079
839.918	24038
840.055	24197
840.193	24201
840.33	24018
840.467	24053
840.604	24110
840.742	24391
840.879	24034
841.016	23923
841.153	24011
841.29	24121
841.427	24003
841.564	24011
841.701	24064
841.838	24053
841.975	23904
842.112	23927
842.249	23836
842.385	23764
842.522	24102
842.659	23794
842.796	23840
842.933	23874
843.069	23802
843.206	23661
843.343	23904
843.479	23885
843.616	23908
843.752	23665
843.889	23657
844.025	23668
844.162	23589
844.298	23592
844.435	23634
844.571	23558
844.708	23767
844.844	23790
844.98	23733
845.117	23760
845.253	23448
845.389	23463
845.525	23474
845.661	23410
845.798	23356
845.934	23364
846.07	23166
846.206	23318
846.342	23471
846.478	23204
846.614	23102
846.75	23071
846.886	22965
847.022	23075
847.158	22953
847.294	23067
847.429	23010
847.565	22991
847.701	23353
847.837	22877
847.972	22706
848.108	22850
848.244	22820
848.379	22679
848.515	22622
848.65	22592
848.786	22596
848.921	22656
849.057	22736
849.192	22786
849.328	22679
849.463	22668
849.598	22580
849.734	22535
849.869	22447
850.004	22523
850.14	22421
850.275	22459
850.41	22253
850.545	22268
850.68	22413
850.815	22223
850.95	22409
851.085	22622
851.22	22508
851.355	22424
851.49	22459
851.625	22356
851.76	22337
851.895	22265
852.03	22291
852.165	22322
852.299	22512
852.434	22394
852.569	22538
852.703	22325
852.838	22405
852.973	22504
853.107	22516
853.242	22318
853.376	22215
853.511	22105
853.645	22162
853.78	22318
853.914	22276
854.048	22204
854.183	22223
854.317	22261
854.451	22280
854.585	22284
854.72	22276
854.854	22318
854.988	22185
855.122	22128
855.256	22124
855.39	22169
855.524	22272
855.658	22173
855.792	22124
855.926	22204
856.06	22303
856.194	22348
856.327	22230
856.461	22207
856.595	22086
856.729	22181
856.862	22360
856.996	22356
857.13	22337
857.263	22325
857.397	22249
857.53	22181
857.664	22238
857.797	22226
857.931	22318
858.064	22249
858.197	22367
858.331	22196
858.464	22116
858.597	22139
858.731	22131
858.864	22226
858.997	22207
859.13	22166
859.263	22150
859.396	22158
859.529	22204
859.662	22306
859.795	22166
859.928	22192
860.061	22352
860.194	22329
860.327	22261
860.46	22246
860.592	22322
860.725	22413
860.858	22276
860.99	22200
861.123	22185
861.256	22158
861.388	22177
861.521	22904
861.653	22021
861.786	22025
861.918	22055
862.05	22044
862.183	22131
862.315	22135
862.447	22158
862.58	22105
862.712	21994
862.844	21831
862.976	21956
863.108	21979
863.24	22303
863.372	21854
863.504	21968
863.636	21949
863.768	21903
863.9	21998
864.032	21819
864.164	21751
864.296	21968
864.428	21892
864.559	21953
864.691	22055
864.823	21831
864.954	21934
865.086	21998
865.217	21846
865.349	21778
865.48	21876
865.612	21838
865.743	22021
865.875	21835
866.006	21724
866.137	21812
866.269	21831
866.4	21728
866.531	21751
866.662	21743
866.793	21614
866.924	21728
867.055	21671
867.186	21747
867.317	21656
867.448	21644
867.579	21625
867.71	21553
867.841	21549
867.972	21583
868.103	21762
868.233	21629
868.364	21675
868.495	21846
868.625	21956
868.756	22002
868.886	21895
869.017	21972
869.147	22067
869.278	22067
869.408	22021
869.539	21930
869.669	22128
869.799	21880
869.929	22074
870.06	22059
870.19	22306
870.32	22128
870.45	22261
870.58	22379
870.71	22443
870.84	22405
870.97	22421
871.1	22230
871.23	22607
871.36	22546
871.489	22512
871.619	22497
871.749	22580
871.879	22554
872.008	22702
872.138	22630
872.267	22607
872.397	22531
872.526	22390
872.656	22390
872.785	22382
872.915	22611
873.044	22694
873.173	22618
873.303	22611
873.432	22618
873.561	22858
873.69	22592
873.819	22656
873.948	22656
874.077	22713
874.206	22599
874.335	22584
874.464	22759
874.593	22919
874.722	22793
874.851	22911
874.979	22976
875.108	22900
875.237	22771
875.365	22767
875.494	22805
875.623	22949
875.751	22786
875.88	22866
876.008	22946
876.136	22961
876.265	23299
876.393	23387
876.521	23311
876.65	23292
876.778	23296
876.906	23124
877.034	23231
877.162	23170
877.29	23083
877.418	23155
877.546	23269
877.674	23170
877.802	23136
877.93	23193
878.058	23151
878.185	22965
878.313	23090
878.441	23174
878.568	22949
878.696	23079
878.824	23037
878.951	23181
879.079	23299
879.206	23410
879.333	23433
879.461	23174
879.588	23261
879.715	23288
879.842	23459
879.97	23299
880.097	23037
880.224	23071
880.351	23185
880.478	22892
880.605	22915
880.732	23006
880.859	23128
880.986	23079
881.112	23010
881.239	22938
881.366	22706
881.493	22683
881.619	22569
881.746	22672
881.872	22691
881.999	22577
882.125	22390
882.252	22538
882.378	22584
882.505	22603
882.631	22451
882.757	22230
882.883	22287
883.01	22306
883.136	22265
883.262	22135
883.388	22131
883.514	22234
883.64	22253
883.766	22154
883.892	21991
884.018	22105
884.143	22265
884.269	22265
884.395	21903
884.52	21937
884.646	21800
884.772	21690
884.897	21743
885.023	21880
885.148	21945
885.274	21975
885.399	21972
885.524	21869
885.65	21953
885.775	21964
885.9	21854
886.025	21892
886.15	21903
886.275	21876
886.4	21766
886.525	21857
886.65	21850
886.775	21861
886.9	21994
887.025	22101
887.149	21899
887.274	21614
887.399	21633
887.523	21580
887.648	21629
887.773	21488
887.897	21663
888.021	21652
888.146	21583
888.27	21614
888.395	21675
888.519	21660
888.643	21793
888.767	21671
888.891	21523
889.015	21492
889.139	21462
889.263	21534
889.387	21507
889.511	21709
889.635	21610
889.759	21469
889.883	21431
890.006	21412
890.13	21492
890.254	21382
890.377	21458
890.501	21104
890.624	21161
890.748	21218
890.871	21085
890.995	20960
891.118	20979
891.241	20933
891.364	20975
891.488	21066
891.611	21154
891.734	20986
891.857	21089
891.98	21024
892.103	21131
892.226	20918
892.349	20982
892.471	20842
892.594	20857
892.717	20857
892.839	20910
892.962	20842
893.085	21028
893.207	20785
893.33	20727
893.452	20819
893.575	20929
893.697	20804
893.819	21104
893.941	21138
894.064	21047
894.186	20902
894.308	20834
894.43	20914
894.552	20967
894.674	20941
894.796	20830
894.918	20876
895.04	20758
895.161	21036
895.283	20910
895.405	20804
895.526	20887
895.648	20845
895.769	20944
895.891	20880
896.012	20982
896.134	20887
896.255	20914
896.376	20834
896.498	20872
896.619	20895
896.74	20823
896.861	20963
896.982	21165
897.103	21351
897.224	21173
897.345	21066
897.466	21070
897.587	21055
897.708	21214
897.828	21047
897.949	21036
898.07	21009
898.19	21032
898.311	21173
898.431	20982
898.552	21070
898.672	21157
898.792	21081
898.913	21096
899.033	21074
899.153	20902
899.273	20819
899.393	20792
899.513	20910
899.633	20796
899.753	20842
899.873	20746
899.993	20720
900.113	20765
900.232	20853
900.352	20868
900.472	20621
900.591	20549
900.711	20636
900.83	20473
900.95	20648
901.069	20701
901.189	20404
901.308	20149
901.427	20168
901.546	20252
901.665	20233
901.784	20157
901.904	19959
902.023	20039
902.141	19677
902.26	19715
902.379	19731
902.498	19643
902.617	19441
902.735	19704
902.854	19578
902.973	19567
903.091	19221
903.21	19270
903.328	19293
903.446	19206
903.565	19152
903.683	19175
903.801	19023
903.919	19027
904.038	19057
904.156	18829
904.274	18973
904.392	18840
904.51	18844
904.627	18833
904.745	18859
904.863	18897
904.981	18722
905.098	18536
905.216	18646
905.334	18555
905.451	18528
905.569	18479
905.686	18566
905.803	18517
905.921	18365
906.038	18277
906.155	18403
906.272	18239
906.389	18186
906.506	18083
906.623	18102
906.74	18041
906.857	18117
906.974	17977
907.091	18007
907.208	18129
907.324	18095
907.441	17988
907.557	17786
907.674	17855
907.79	17646
907.907	17764
908.023	17798
908.139	17741
908.256	17684
908.372	17562
908.488	17665
908.604	17516
908.72	17436
908.836	17444
908.952	17425
909.068	17414
909.184	17577
909.3	17520
909.415	17558
909.531	17429
909.647	17159
909.762	17265
909.878	17166
909.993	17223
910.108	17136
910.224	17204
910.339	17162
910.454	17079
910.57	17037
910.685	16873
910.8	17220
910.915	17140
911.03	16923
911.145	16835
911.259	16778
911.374	16611
911.489	16706
911.604	16611
911.718	16428
911.833	16538
911.947	16428
912.062	16318
912.176	16519
912.291	16550
912.405	16508
912.519	16656
912.633	16615
912.748	16523
912.862	16516
912.976	16318
913.09	16196
913.204	16154
913.318	16291
913.431	16432
913.545	16356
913.659	16322
913.772	16299
913.886	16078
914	16131
914.113	16200
914.226	16196
914.34	16101
914.453	16051
914.566	16143
914.68	16013
914.793	15960
914.906	15770
915.019	15751
915.132	15587
915.245	15682
915.358	15770
915.47	15686
915.583	15663
915.696	15778
915.809	15808
915.921	15857
916.034	15599
916.146	15564
916.259	15542
916.371	15618
916.483	15603
916.595	15473
916.708	15587
916.82	15462
916.932	15519
917.044	15450
917.156	15439
917.268	15302
917.38	15393
917.491	15401
917.603	15294
917.715	15431
917.826	15492
917.938	15230
918.049	15154
918.161	15363
918.272	15424
918.384	15424
918.495	15233
918.606	15252
918.717	15097
918.828	15150
918.939	15074
919.05	15070
919.161	15055
919.272	14876
919.383	15005
919.494	15081
919.604	15241
919.715	15150
919.826	14910
919.936	15055
920.047	15074
920.157	15020
920.267	15127
920.378	15077
920.488	14998
920.598	15237
920.708	15272
920.818	15184
920.928	15176
921.038	15283
921.148	15245
921.258	15036
921.368	14861
921.477	14762
921.587	14727
921.697	14644
921.806	14708
921.916	14617
922.025	14457
922.134	14473
922.244	14336
922.353	14404
922.462	14267
922.571	14191
922.68	14016
922.789	14008
922.898	14008
923.007	13978
923.116	14054
923.224	14020
923.333	14020
923.442	13928
923.55	13864
923.659	13841
923.767	14001
923.876	13822
923.984	13852
924.092	13750
924.201	13852
924.309	13765
924.417	13765
924.525	13750
924.633	13647
924.741	14412
924.849	13468
924.956	13639
925.064	13430
925.172	13411
925.279	13487
925.387	13422
925.494	13415
925.602	13601
925.709	13552
925.816	13228
925.924	13346
926.031	13438
926.138	13403
926.245	13415
926.352	13293
926.459	13381
926.566	13346
926.673	13251
926.779	13194
926.886	13251
926.993	12993
927.099	12947
927.206	12894
927.312	12947
927.419	13004
927.525	12989
927.631	12962
927.737	12829
927.843	12829
927.95	12734
928.056	12696
928.162	12764
928.267	12882
928.373	13434
928.479	12840
928.585	12544
928.69	12795
928.796	12677
928.901	12646
929.007	12483
929.112	12665
929.218	12616
929.323	12536
929.428	12536
929.533	12612
929.638	12384
929.743	12498
929.848	12403
929.953	12384
930.058	12350
930.163	12186
930.267	12175
930.372	12327
930.477	12034
930.581	12346
930.685	12186
930.79	12117
930.894	12053
930.998	11939
931.103	12121
931.207	11779
931.311	11691
931.415	11642
931.519	11414
931.623	11429
