Data from test_V78500241_1947.txt Node
Date: Fri Mar 25 15:55:17 CST 2022
User: usil
Spectrometer: V785-0024
Trigger mode: 0
Integration Time (sec): 4.000000E-1
Scans to average: 1
Nonlinearity correction enabled: false
Boxcar width: 0
Storing dark spectrum: false
XAxis mode: Wavelengths
Number of Pixels in Spectrum: 1024
>>>>>Begin Spectral Data<<<<<
801.071	28763
801.214	28649
801.356	28432
801.499	28493
801.641	28394
801.783	28401
801.926	28580
802.068	28382
802.211	28272
802.353	28253
802.496	28200
802.638	28219
802.78	28086
802.923	27960
803.065	28086
803.208	27968
803.35	28082
803.492	28238
803.635	28329
803.777	28112
803.919	28329
804.061	28596
804.204	28257
804.346	28344
804.488	28276
804.63	28265
804.773	28356
804.915	28401
805.057	28379
805.199	28409
805.341	28401
805.483	28474
805.626	28478
805.768	28310
805.91	28440
806.052	28565
806.194	28314
806.336	28618
806.478	28409
806.62	28462
806.762	28535
806.904	28679
807.046	29056
807.188	29018
807.33	28881
807.472	29014
807.614	28942
807.756	28961
807.898	28713
808.04	28934
808.182	28774
808.324	28733
808.465	28850
808.607	28896
808.749	29235
808.891	29231
809.033	29353
809.174	29159
809.316	29204
809.458	29242
809.6	29136
809.741	29193
809.883	29311
810.025	29360
810.166	29444
810.308	29433
810.45	29360
810.591	29299
810.733	29299
810.875	29258
811.016	29044
811.158	29124
811.299	29220
811.441	29326
811.582	29375
811.724	29166
811.865	29143
812.007	29231
812.148	29147
812.29	29235
812.431	29277
812.573	29524
812.714	29581
812.855	29741
812.997	29794
813.138	29893
813.279	29699
813.421	29668
813.562	29589
813.703	29421
813.845	29421
813.986	29162
814.127	28946
814.268	28866
814.41	28809
814.551	28984
814.692	29048
814.833	28675
814.974	28740
815.115	28900
815.256	28752
815.397	28843
815.539	28691
815.68	28809
815.821	28672
815.962	28717
816.103	28820
816.244	28630
816.385	28424
816.526	28481
816.666	28276
816.807	28204
816.948	28299
817.089	28173
817.23	28120
817.371	28219
817.512	28177
817.653	28048
817.793	28150
817.934	28223
818.075	28325
818.216	28082
818.356	28173
818.497	28181
818.638	27975
818.778	27945
818.919	27960
819.06	27918
819.2	28074
819.341	28169
819.481	28051
819.622	28204
819.762	28390
819.903	28523
820.043	28405
820.184	28436
820.324	28443
820.465	28455
820.605	28261
820.746	28310
820.886	28246
821.026	28230
821.167	28348
821.307	28398
821.447	28272
821.588	28181
821.728	28078
821.868	27778
822.008	27732
822.149	27694
822.289	27485
822.429	27435
822.569	27386
822.709	27363
822.849	27184
822.99	27306
823.13	27180
823.27	27077
823.41	26998
823.55	26979
823.69	27009
823.83	26929
823.97	26918
824.11	26811
824.25	26655
824.389	26758
824.529	26925
824.669	26830
824.809	26937
824.949	26853
825.089	26937
825.228	26765
825.368	26697
825.508	26781
825.648	26651
825.787	26864
825.927	26762
826.067	26651
826.206	26819
826.346	26773
826.485	26686
826.625	26727
826.765	26739
826.904	26811
827.044	26606
827.183	26541
827.323	26461
827.462	26499
827.601	26469
827.741	26336
827.88	26431
828.02	26355
828.159	26370
828.298	26343
828.437	26404
828.577	26332
828.716	26450
828.855	26324
828.994	26081
829.134	26084
829.273	26290
829.412	26122
829.551	26100
829.69	26180
829.829	26065
829.968	26164
830.107	26187
830.246	26065
830.385	26092
830.524	25970
830.663	25928
830.802	25864
830.941	25681
831.08	25734
831.219	25822
831.357	25864
831.496	26001
831.635	25742
831.774	25704
831.913	25559
832.051	25624
832.19	25548
832.329	25426
832.467	25422
832.606	25320
832.744	25354
832.883	25441
833.022	25350
833.16	25403
833.299	25453
833.437	25449
833.576	25556
833.714	25438
833.852	25476
833.991	25419
834.129	25453
834.267	25339
834.406	25502
834.544	25362
834.682	25476
834.821	25369
834.959	25445
835.097	25255
835.235	25434
835.373	25400
835.511	25533
835.65	25324
835.788	25350
835.926	25293
836.064	25095
836.202	25069
836.34	25266
836.478	25320
836.615	25228
836.753	25320
836.891	25297
837.029	25198
837.167	24939
837.305	25312
837.443	25072
837.58	25050
837.718	25187
837.856	25122
837.993	25061
838.131	24996
838.269	24985
838.406	24932
838.544	24932
838.681	24738
838.819	24745
838.956	24483
839.094	24620
839.231	24566
839.369	24684
839.506	24913
839.643	24745
839.781	24540
839.918	24578
840.055	24551
840.193	24441
840.33	24642
840.467	24593
840.604	24536
840.742	24837
840.879	24437
841.016	24353
841.153	24262
841.29	24490
841.427	24376
841.564	24372
841.701	24513
841.838	24395
841.975	24346
842.112	24270
842.249	24315
842.385	24205
842.522	24403
842.659	24334
842.796	24197
842.933	24129
843.069	24197
843.206	24114
843.343	24163
843.479	24258
843.616	24125
843.752	24068
843.889	23984
844.025	24190
844.162	23840
844.298	24110
844.435	24034
844.571	23992
844.708	24038
844.844	24057
844.98	23977
845.117	24098
845.253	23927
845.389	23752
845.525	23824
845.661	23889
845.798	23710
845.934	23703
846.07	23741
846.206	23672
846.342	23840
846.478	23657
846.614	23455
846.75	23406
846.886	23531
847.022	23573
847.158	23497
847.294	23417
847.429	23497
847.565	23524
847.701	23600
847.837	23155
847.972	23204
848.108	23353
848.244	23121
848.379	23128
848.515	23079
848.65	23037
848.786	23124
848.921	22987
849.057	23155
849.192	23197
849.328	23136
849.463	23029
849.598	22984
849.734	22915
849.869	22831
850.004	22866
850.14	22721
850.275	22873
850.41	22637
850.545	22649
850.68	22740
850.815	22740
850.95	22778
851.085	22938
851.22	22831
851.355	22843
851.49	22713
851.625	22679
851.76	22831
851.895	22675
852.03	22656
852.165	22778
852.299	22972
852.434	22763
852.569	22816
852.703	22763
852.838	22869
852.973	23029
853.107	22957
853.242	22767
853.376	22656
853.511	22504
853.645	22592
853.78	22675
853.914	22744
854.048	22550
854.183	22470
854.317	22519
854.451	22729
854.585	22637
854.72	22584
854.854	22645
854.988	22390
855.122	22729
855.256	22409
855.39	22691
855.524	22653
855.658	22660
855.792	22664
855.926	22653
856.06	22649
856.194	22683
856.327	22546
856.461	22489
856.595	22466
856.729	22523
856.862	22767
856.996	22603
857.13	22706
857.263	22721
857.397	22706
857.53	22771
857.664	22588
857.797	22717
857.931	22721
858.064	22531
858.197	22691
858.331	22592
858.464	22432
858.597	22497
858.731	22573
858.864	22531
858.997	22615
859.13	22512
859.263	22683
859.396	22694
859.529	22531
859.662	22698
859.795	22569
859.928	22611
860.061	22752
860.194	22752
860.327	22622
860.46	22611
860.592	22713
860.725	22877
860.858	22900
860.99	22710
861.123	22508
861.256	22447
861.388	22497
861.521	23337
861.653	22481
861.786	22417
861.918	22428
862.05	22478
862.183	22592
862.315	22508
862.447	22485
862.58	22599
862.712	22341
862.844	22405
862.976	22382
863.108	22421
863.24	22710
863.372	22226
863.504	22272
863.636	22474
863.768	22344
863.9	22272
864.032	22295
864.164	22169
864.296	22284
864.428	22386
864.559	22375
864.691	22409
864.823	22185
864.954	22253
865.086	22181
865.217	22268
865.349	22116
865.48	22261
865.612	22223
865.743	22402
865.875	22223
866.006	22169
866.137	22166
866.269	22101
866.4	22139
866.531	22101
866.662	21994
866.793	22135
866.924	22093
867.055	22143
867.186	22128
867.317	22044
867.448	21979
867.579	22044
867.71	21956
867.841	22059
867.972	22158
868.103	22139
868.233	22185
868.364	22162
868.495	22147
868.625	22417
868.756	22394
868.886	22295
869.017	22329
869.147	22447
869.278	22375
869.408	22287
869.539	22318
869.669	22428
869.799	22303
869.929	22470
870.06	22470
870.19	22645
870.32	22694
870.45	22809
870.58	22786
870.71	22816
870.84	22873
870.97	22759
871.1	22740
871.23	22976
871.36	22896
871.489	22847
871.619	22869
871.749	22866
871.879	22850
872.008	23102
872.138	22858
872.267	22885
872.397	22702
872.526	22805
872.656	22987
872.785	22850
872.915	22972
873.044	23056
873.173	23083
873.303	22976
873.432	23018
873.561	22976
873.69	22896
873.819	22892
873.948	23052
874.077	22908
874.206	22949
874.335	22995
874.464	23048
874.593	23246
874.722	23170
874.851	23147
874.979	23189
875.108	23208
875.237	22991
875.365	23010
875.494	23166
875.623	23227
875.751	22972
875.88	23296
876.008	23258
876.136	23307
876.265	23638
876.393	23642
876.521	23627
876.65	23592
876.778	23672
876.906	23459
877.034	23440
877.162	23573
877.29	23387
877.418	23452
877.546	23619
877.674	23524
877.802	23436
877.93	23558
878.058	23551
878.185	23490
878.313	23436
878.441	23512
878.568	23356
878.696	23467
878.824	23638
878.951	23592
879.079	23566
879.206	23756
879.333	23665
879.461	23501
879.588	23581
879.715	23695
879.842	23859
879.97	23524
880.097	23349
880.224	23379
880.351	23273
880.478	23398
880.605	23258
880.732	23444
880.859	23509
880.986	23296
881.112	23292
881.239	23250
881.366	22984
881.493	23041
881.619	22972
881.746	22877
881.872	23003
881.999	22911
882.125	22858
882.252	22858
882.378	22752
882.505	22934
882.631	22725
882.757	22641
882.883	22721
883.01	22626
883.136	22451
883.262	22474
883.388	22398
883.514	22626
883.64	22588
883.766	22367
883.892	22299
884.018	22405
884.143	22535
884.269	22641
884.395	22124
884.52	22154
884.646	22196
884.772	22135
884.897	22055
885.023	22185
885.148	22287
885.274	22428
885.399	22272
885.524	22291
885.65	22105
885.775	22181
885.9	22116
886.025	22253
886.15	22204
886.275	22291
886.4	22055
886.525	22093
886.65	22200
886.775	22124
886.9	22226
887.025	22466
887.149	22150
887.274	21991
887.399	21922
887.523	22010
887.648	21998
887.773	21869
887.897	22067
888.021	22013
888.146	22017
888.27	22029
888.395	22013
888.519	22017
888.643	21934
888.767	22067
888.891	21857
889.015	21701
889.139	21873
889.263	21770
889.387	21823
889.511	21953
889.635	21911
889.759	21622
889.883	21895
890.006	21766
890.13	21751
890.254	21599
890.377	21606
890.501	21450
890.624	21428
890.748	21496
890.871	21412
890.995	21306
891.118	21192
891.241	21329
891.364	21469
891.488	21393
891.611	21260
891.734	21401
891.857	21344
891.98	21275
892.103	21321
892.226	21336
892.349	21241
892.471	21039
892.594	21233
892.717	21237
892.839	21112
892.962	21199
893.085	21298
893.207	21116
893.33	21123
893.452	21184
893.575	21279
893.697	21161
893.819	21310
893.941	21405
894.064	21268
894.186	21043
894.308	20948
894.43	21184
894.552	21226
894.674	21214
894.796	21192
894.918	21089
895.04	21184
895.161	21283
895.283	21169
895.405	21119
895.526	21157
895.648	21233
895.769	21108
895.891	21214
896.012	21226
896.134	21138
896.255	21332
896.376	21192
896.498	21180
896.619	21157
896.74	21112
896.861	21142
896.982	21458
897.103	21511
897.224	21485
897.345	21389
897.466	21268
897.587	21283
897.708	21507
897.828	21329
897.949	21321
898.07	21188
898.19	21184
898.311	21485
898.431	21344
898.552	21378
898.672	21389
898.792	21439
898.913	21355
899.033	21192
899.153	21112
899.273	21036
899.393	21032
899.513	21112
899.633	21085
899.753	21096
899.873	20986
899.993	21150
900.113	20952
900.232	21070
900.352	21089
900.472	20853
900.591	20849
900.711	20861
900.83	20849
900.95	20883
901.069	20868
901.189	20659
901.308	20480
901.427	20450
901.546	20423
901.665	20377
901.784	20442
901.904	20278
902.023	20050
902.141	19944
902.26	19894
902.379	20119
902.498	19913
902.617	19887
902.735	20069
902.854	19814
902.973	19788
903.091	19586
903.21	19559
903.328	19525
903.446	19476
903.565	19335
903.683	19339
903.801	19278
903.919	19400
904.038	19369
904.156	19168
904.274	19266
904.392	19038
904.51	19175
904.627	19099
904.745	19141
904.863	19072
904.981	18863
905.098	18806
905.216	18753
905.334	18947
905.451	18787
905.569	18817
905.686	18844
905.803	18715
905.921	18593
906.038	18738
906.155	18517
906.272	18464
906.389	18414
906.506	18353
906.623	18395
906.74	18300
906.857	18289
906.974	18148
907.091	18429
907.208	18448
907.324	18232
907.441	18174
907.557	18038
907.674	18049
907.79	17961
907.907	18136
908.023	18148
908.139	17973
908.256	17863
908.372	17843
908.488	17897
908.604	17748
908.72	17729
908.836	17676
908.952	17684
909.068	17855
909.184	17798
909.3	17634
909.415	17684
909.531	17608
909.647	17486
909.762	17486
909.878	17429
909.993	17471
910.108	17471
910.224	17376
910.339	17421
910.454	17258
910.57	17102
910.685	17162
910.8	17452
910.915	17337
911.03	17326
911.145	17010
911.259	16953
911.374	17003
911.489	16961
911.604	16820
911.718	16736
911.833	16809
911.947	16630
912.062	16736
912.176	16782
912.291	16755
912.405	16831
912.519	16976
912.633	16915
912.748	16828
912.862	16645
912.976	16634
913.09	16481
913.204	16538
913.318	16474
913.431	16683
913.545	16630
913.659	16653
913.772	16455
913.886	16440
914	16257
914.113	16409
914.226	16394
914.34	16405
914.453	16226
914.566	16455
914.68	16147
914.793	16177
914.906	16006
915.019	16010
915.132	15930
915.245	15888
915.358	15922
915.47	16055
915.583	15911
915.696	15884
915.809	16063
915.921	15987
916.034	15865
916.146	15766
916.259	15736
916.371	15892
916.483	15895
916.595	15766
916.708	15755
916.82	15751
916.932	15698
917.044	15705
917.156	15682
917.268	15526
917.38	15523
917.491	15469
917.603	15511
917.715	15538
917.826	15686
917.938	15416
918.049	15466
918.161	15530
918.272	15629
918.384	15671
918.495	15401
918.606	15386
918.717	15157
918.828	15450
918.939	15389
919.05	15245
919.161	15180
919.272	15005
919.383	15135
919.494	15283
919.604	15523
919.715	15363
919.826	15222
919.936	15123
920.047	15351
920.157	15233
920.267	15481
920.378	15268
920.488	15161
920.598	15321
920.708	15496
920.818	15332
920.928	15332
921.038	15473
921.148	15389
921.258	15195
921.368	15142
921.477	14895
921.587	14925
921.697	14834
921.806	14921
921.916	14891
922.025	14720
922.134	14571
922.244	14461
922.353	14613
922.462	14465
922.571	14393
922.68	14282
922.789	14195
922.898	14191
923.007	14259
923.116	14248
923.224	14214
923.333	14134
923.442	14210
923.55	14073
923.659	14145
923.767	14081
923.876	14069
923.984	14027
924.092	13970
924.201	13997
924.309	13887
924.417	13978
924.525	13936
924.633	13902
924.741	14868
924.849	13685
924.956	13788
925.064	13734
925.172	13567
925.279	13578
925.387	13639
925.494	13597
925.602	13700
925.709	13563
925.816	13559
925.924	13506
926.031	13605
926.138	13464
926.245	13559
926.352	13388
926.459	13495
926.566	13544
926.673	13453
926.779	13263
926.886	13308
926.993	13213
927.099	13175
927.206	13065
927.312	12996
927.419	13190
927.525	13179
927.631	13122
927.737	13091
927.843	12966
927.95	12867
928.056	12962
928.162	12951
928.267	12954
928.373	13616
928.479	13008
928.585	12779
928.69	12920
928.796	12848
928.901	12867
929.007	12738
929.112	12821
929.218	12810
929.323	12722
929.428	12654
929.533	12817
929.638	12578
929.743	12593
929.848	12696
929.953	12582
930.058	12422
930.163	12327
930.267	12243
930.372	12410
930.477	12270
930.581	12528
930.685	12399
930.79	12205
930.894	12216
930.998	12178
931.103	12266
931.207	12003
931.311	11939
931.415	11703
931.519	11646
931.623	11516
