Data from test_V78500241_960.txt Node
Date: Fri Mar 25 15:48:27 CST 2022
User: usil
Spectrometer: V785-0024
Trigger mode: 0
Integration Time (sec): 4.000000E-1
Scans to average: 1
Nonlinearity correction enabled: false
Boxcar width: 0
Storing dark spectrum: false
XAxis mode: Wavelengths
Number of Pixels in Spectrum: 1024
>>>>>Begin Spectral Data<<<<<
801.071	28565
801.214	28546
801.356	28390
801.499	28257
801.641	28162
801.783	28249
801.926	28246
802.068	28215
802.211	28215
802.353	28173
802.496	27800
802.638	27854
802.78	27800
802.923	27869
803.065	27747
803.208	27842
803.35	28017
803.492	27949
803.635	28150
803.777	27907
803.919	28097
804.061	28280
804.204	28295
804.346	28116
804.488	28101
804.63	28173
804.773	28044
804.915	28112
805.057	28230
805.199	28139
805.341	28238
805.483	28223
805.626	28287
805.768	28192
805.91	28211
806.052	28333
806.194	28238
806.336	28497
806.478	28356
806.62	28295
806.762	28447
806.904	28542
807.046	28820
807.188	28888
807.33	28736
807.472	28786
807.614	28561
807.756	28637
807.898	28538
808.04	28527
808.182	28546
808.324	28538
808.465	28656
808.607	28862
808.749	28805
808.891	29033
809.033	29181
809.174	28999
809.316	28843
809.458	28873
809.6	28888
809.741	29128
809.883	29235
810.025	29284
810.166	29254
810.308	29364
810.45	29364
810.591	29159
810.733	29121
810.875	28965
811.016	28862
811.158	28942
811.299	29212
811.441	29223
811.582	29124
811.724	28976
811.865	29094
812.007	28995
812.148	29071
812.29	29033
812.431	29159
812.573	29242
812.714	29322
812.855	29452
812.997	29649
813.138	29760
813.279	29524
813.421	29417
813.562	29505
813.703	29368
813.845	29334
813.986	28961
814.127	28885
814.268	28637
814.41	28812
814.551	28672
814.692	28790
814.833	28698
814.974	28622
815.115	28763
815.256	28596
815.397	28645
815.539	28675
815.68	28352
815.821	28341
815.962	28599
816.103	28470
816.244	28333
816.385	28390
816.526	28322
816.666	28185
816.807	28040
816.948	28070
817.089	28211
817.23	28044
817.371	27960
817.512	28070
817.653	28097
817.793	28017
817.934	27911
818.075	28120
818.216	28044
818.356	27998
818.497	27899
818.638	27629
818.778	27876
818.919	27861
819.06	27781
819.2	27991
819.341	28090
819.481	27983
819.622	28120
819.762	28424
819.903	28390
820.043	28226
820.184	28173
820.324	28112
820.465	28341
820.605	28211
820.746	28074
820.886	28067
821.026	28192
821.167	28105
821.307	28211
821.447	28162
821.588	28063
821.728	27781
821.868	27701
822.008	27603
822.149	27583
822.289	27481
822.429	27283
822.569	27188
822.709	27252
822.849	27039
822.99	27108
823.13	26906
823.27	26883
823.41	26826
823.55	26849
823.69	26811
823.83	26921
823.97	26849
824.11	26705
824.25	26655
824.389	26815
824.529	26918
824.669	26735
824.809	26777
824.949	26739
825.089	26811
825.228	26868
825.368	26507
825.508	26674
825.648	26590
825.787	26678
825.927	26659
826.067	26484
826.206	26617
826.346	26499
826.485	26594
826.625	26625
826.765	26667
826.904	26507
827.044	26457
827.183	26453
827.323	26278
827.462	26355
827.601	26339
827.741	26328
827.88	26191
828.02	26111
828.159	26267
828.298	26259
828.437	26385
828.577	26233
828.716	26419
828.855	26069
828.994	26050
829.134	25944
829.273	26062
829.412	25898
829.551	25944
829.69	26077
829.829	26077
829.968	25966
830.107	26035
830.246	26065
830.385	25913
830.524	25833
830.663	25932
830.802	25750
830.941	25563
831.08	25624
831.219	25578
831.357	25693
831.496	25871
831.635	25601
831.774	25590
831.913	25556
832.051	25350
832.19	25324
832.329	25476
832.467	25320
832.606	25411
832.744	25289
832.883	25301
833.022	25217
833.16	25164
833.299	25304
833.437	25324
833.576	25362
833.714	25460
833.852	25278
833.991	25460
834.129	25468
834.267	25346
834.406	25293
834.544	25396
834.682	25209
834.821	25358
834.959	25468
835.097	25301
835.235	25396
835.373	25327
835.511	25339
835.65	25152
835.788	25168
835.926	25023
836.064	24989
836.202	25133
836.34	25076
836.478	25266
836.615	25053
836.753	25213
836.891	25107
837.029	25091
837.167	25175
837.305	24924
837.443	25091
837.58	24992
837.718	25110
837.856	24981
837.993	24867
838.131	24935
838.269	24772
838.406	24882
838.544	24817
838.681	24707
838.819	24711
838.956	24467
839.094	24365
839.231	24559
839.369	24658
839.506	24802
839.643	24650
839.781	24464
839.918	24292
840.055	24426
840.193	24505
840.33	24437
840.467	24490
840.604	24410
840.742	24612
840.879	24277
841.016	24281
841.153	24273
841.29	24437
841.427	24357
841.564	24525
841.701	24357
841.838	24300
841.975	24213
842.112	24266
842.249	24308
842.385	23942
842.522	24251
842.659	24258
842.796	24091
842.933	24209
843.069	24072
843.206	24213
843.343	24228
843.479	24072
843.616	24167
843.752	23870
843.889	23851
844.025	24136
844.162	23889
844.298	23965
844.435	23863
844.571	23916
844.708	23912
844.844	23885
844.98	24064
845.117	23954
845.253	23901
845.389	23764
845.525	23760
845.661	23771
845.798	23558
845.934	23661
846.07	23577
846.206	23649
846.342	23642
846.478	23737
846.614	23516
846.75	23288
846.886	23204
847.022	23383
847.158	23296
847.294	23474
847.429	23353
847.565	23280
847.701	23493
847.837	22953
847.972	22965
848.108	23094
848.244	23079
848.379	23037
848.515	22949
848.65	22866
848.786	23006
848.921	22953
849.057	22930
849.192	23060
849.328	23037
849.463	22923
849.598	22885
849.734	22824
849.869	22763
850.004	22679
850.14	22744
850.275	22630
850.41	22622
850.545	22481
850.68	22687
850.815	22759
850.95	22691
851.085	22900
851.22	22717
851.355	22793
851.49	22645
851.625	22573
851.76	22664
851.895	22550
852.03	22531
852.165	22599
852.299	22763
852.434	22786
852.569	22660
852.703	22710
852.838	22816
852.973	22801
853.107	22759
853.242	22656
853.376	22535
853.511	22409
853.645	22535
853.78	22497
853.914	22580
854.048	22440
854.183	22516
854.317	22428
854.451	22622
854.585	22500
854.72	22554
854.854	22584
854.988	22440
855.122	22436
855.256	22462
855.39	22375
855.524	22538
855.658	22489
855.792	22440
855.926	22504
856.06	22527
856.194	22531
856.327	22516
856.461	22432
856.595	22478
856.729	22386
856.862	22493
856.996	22466
857.13	22421
857.263	22683
857.397	22565
857.53	22653
857.664	22470
857.797	22599
857.931	22565
858.064	22481
858.197	22508
858.331	22398
858.464	22409
858.597	22276
858.731	22485
858.864	22451
858.997	22470
859.13	22481
859.263	22542
859.396	22508
859.529	22485
859.662	22352
859.795	22478
859.928	22481
860.061	22664
860.194	22687
860.327	22493
860.46	22382
860.592	22607
860.725	22603
860.858	22577
860.99	22447
861.123	22504
861.256	22424
861.388	22478
861.521	23223
861.653	22185
861.786	22295
861.918	22306
862.05	22284
862.183	22417
862.315	22375
862.447	22413
862.58	22371
862.712	22246
862.844	22101
862.976	22261
863.108	22390
863.24	22443
863.372	22150
863.504	22306
863.636	22120
863.768	22124
863.9	22124
864.032	22226
864.164	22128
864.296	22223
864.428	22192
864.559	22177
864.691	22131
864.823	22265
864.954	22150
865.086	22082
865.217	22101
865.349	22090
865.48	22078
865.612	22101
865.743	22211
865.875	21899
866.006	21987
866.137	22048
866.269	22120
866.4	22036
866.531	21956
866.662	21964
866.793	22002
866.924	22063
867.055	21979
867.186	21968
867.317	21918
867.448	21945
867.579	21956
867.71	21956
867.841	21930
867.972	22082
868.103	21953
868.233	21918
868.364	21998
868.495	22059
868.625	22154
868.756	22284
868.886	22101
869.017	22192
869.147	22242
869.278	22272
869.408	22166
869.539	22188
869.669	22413
869.799	22329
869.929	22413
870.06	22303
870.19	22531
870.32	22493
870.45	22519
870.58	22561
870.71	22843
870.84	22763
870.97	22641
871.1	22599
871.23	22774
871.36	22797
871.489	22710
871.619	22767
871.749	22820
871.879	22828
872.008	22892
872.138	22862
872.267	22923
872.397	22679
872.526	22592
872.656	22664
872.785	22748
872.915	22828
873.044	22968
873.173	22862
873.303	22869
873.432	22790
873.561	22919
873.69	22748
873.819	22854
873.948	22915
874.077	22927
874.206	22790
874.335	22923
874.464	22976
874.593	23098
874.722	23044
874.851	23048
874.979	23025
875.108	23189
875.237	23064
875.365	22972
875.494	22919
875.623	23018
875.751	23064
875.88	23071
876.008	23102
876.136	23151
876.265	23356
876.393	23649
876.521	23539
876.65	23531
876.778	23410
876.906	23383
877.034	23341
877.162	23322
877.29	23433
877.418	23315
877.546	23429
877.674	23337
877.802	23277
877.93	23383
878.058	23284
878.185	23292
878.313	23372
878.441	23463
878.568	23098
878.696	23398
878.824	23376
878.951	23505
879.079	23585
879.206	23649
879.333	23440
879.461	23376
879.588	23558
879.715	23608
879.842	23623
879.97	23509
880.097	23124
880.224	23178
880.351	23212
880.478	23174
880.605	23200
880.732	23200
880.859	23509
880.986	23102
881.112	23250
881.239	23140
881.366	22835
881.493	22793
881.619	22782
881.746	22862
881.872	22824
881.999	22763
882.125	22577
882.252	22660
882.378	22729
882.505	22854
882.631	22523
882.757	22462
882.883	22592
883.01	22523
883.136	22443
883.262	22211
883.388	22348
883.514	22421
883.64	22455
883.766	22424
883.892	22211
884.018	22299
884.143	22280
884.269	22481
884.395	22226
884.52	22090
884.646	22013
884.772	22032
884.897	21899
885.023	22128
885.148	22246
885.274	22128
885.399	22295
885.524	22025
885.65	22154
885.775	22044
885.9	22029
886.025	22048
886.15	22093
886.275	22101
886.4	22040
886.525	21983
886.65	21998
886.775	22021
886.9	22166
887.025	22303
887.149	22093
887.274	21880
887.399	21755
887.523	21823
887.648	21857
887.773	21663
887.897	21831
888.021	21922
888.146	21743
888.27	21937
888.395	21819
888.519	21911
888.643	21808
888.767	21713
888.891	21762
889.015	21743
889.139	21595
889.263	21599
889.387	21774
889.511	21701
889.635	21926
889.759	21641
889.883	21576
890.006	21698
890.13	21728
890.254	21545
890.377	21515
890.501	21428
890.624	21401
890.748	21382
890.871	21363
890.995	21104
891.118	21127
891.241	21291
891.364	21211
891.488	21424
891.611	21043
891.734	21180
891.857	21157
891.98	21119
892.103	21294
892.226	21051
892.349	21184
892.471	20982
892.594	21070
892.717	21211
892.839	21093
892.962	21028
893.085	21028
893.207	21100
893.33	21001
893.452	21013
893.575	21070
893.697	20960
893.819	21260
893.941	21188
894.064	21157
894.186	20971
894.308	20990
894.43	21039
894.552	21268
894.674	21218
894.796	20921
894.918	20967
895.04	20990
895.161	21161
895.283	21127
895.405	20872
895.526	21032
895.648	21020
895.769	21123
895.891	21039
896.012	21173
896.134	21142
896.255	21051
896.376	21146
896.498	21062
896.619	21176
896.74	20986
896.861	21051
896.982	21359
897.103	21405
897.224	21283
897.345	21199
897.466	21207
897.587	21188
897.708	21428
897.828	21310
897.949	21310
898.07	21074
898.19	21211
898.311	21348
898.431	21230
898.552	21218
898.672	21306
898.792	21310
898.913	21268
899.033	21123
899.153	21024
899.273	21055
899.393	21024
899.513	20994
899.633	20948
899.753	21036
899.873	20921
899.993	20956
900.113	20899
900.232	20967
900.352	20895
900.472	20781
900.591	20655
900.711	20693
900.83	20735
900.95	20807
901.069	20796
901.189	20705
901.308	20400
901.427	20221
901.546	20172
901.665	20332
901.784	20355
901.904	20229
902.023	20058
902.141	19997
902.26	19852
902.379	19921
902.498	19932
902.617	19898
902.735	19887
902.854	19818
902.973	19715
903.091	19491
903.21	19419
903.328	19434
903.446	19339
903.565	19396
903.683	19396
903.801	19247
903.919	19179
904.038	19053
904.156	18966
904.274	19137
904.392	18973
904.51	18882
904.627	18829
904.745	19080
904.863	19122
904.981	18856
905.098	18753
905.216	18681
905.334	18684
905.451	18677
905.569	18570
905.686	18669
905.803	18669
905.921	18460
906.038	18650
906.155	18570
906.272	18296
906.389	18350
906.506	18228
906.623	18292
906.74	18251
906.857	18083
906.974	18091
907.091	18232
907.208	18315
907.324	18266
907.441	18102
907.557	17992
907.674	17984
907.79	17935
907.907	17889
908.023	17901
908.139	17927
908.256	17946
908.372	17809
908.488	17741
908.604	17748
908.72	17665
908.836	17687
908.952	17623
909.068	17657
909.184	17718
909.3	17543
909.415	17611
909.531	17562
909.647	17444
909.762	17421
909.878	17288
909.993	17315
910.108	17318
910.224	17254
910.339	17261
910.454	17239
910.57	17147
910.685	17147
910.8	17334
910.915	17349
911.03	17048
911.145	16858
911.259	16961
911.374	16889
911.489	16949
911.604	16816
911.718	16641
911.833	16691
911.947	16580
912.062	16573
912.176	16554
912.291	16687
912.405	16717
912.519	16850
912.633	16790
912.748	16740
912.862	16668
912.976	16451
913.09	16265
913.204	16432
913.318	16447
913.431	16584
913.545	16561
913.659	16527
913.772	16386
913.886	16276
914	16284
914.113	16382
914.226	16417
914.34	16284
914.453	16109
914.566	16268
914.68	16059
914.793	16131
914.906	16002
915.019	15880
915.132	15785
915.245	15827
915.358	15850
915.47	15819
915.583	15812
915.696	15865
915.809	15983
915.921	15975
916.034	15857
916.146	15694
916.259	15698
916.371	15701
916.483	15789
916.595	15663
916.708	15641
916.82	15458
916.932	15599
917.044	15519
917.156	15614
917.268	15447
917.38	15492
917.491	15492
917.603	15534
917.715	15549
917.826	15504
917.938	15485
918.049	15260
918.161	15428
918.272	15500
918.384	15469
918.495	15454
918.606	15230
918.717	15074
918.828	15218
918.939	15260
919.05	15047
919.161	15199
919.272	14948
919.383	15074
919.494	15272
919.604	15340
919.715	15108
919.826	15154
919.936	15154
920.047	15207
920.157	15142
920.267	15382
920.378	15207
920.488	15104
920.598	15256
920.708	15545
920.818	15294
920.928	15355
921.038	15462
921.148	15355
921.258	15199
921.368	14956
921.477	14849
921.587	14796
921.697	14819
921.806	14826
921.916	14792
922.025	14659
922.134	14492
922.244	14473
922.353	14549
922.462	14374
922.571	14240
922.68	14088
922.789	14138
922.898	14214
923.007	14084
923.116	14206
923.224	14161
923.333	14111
923.442	13944
923.55	13928
923.659	14008
923.767	13989
923.876	13936
923.984	13936
924.092	13814
924.201	13936
924.309	13902
924.417	13761
924.525	13791
924.633	13780
924.741	14792
924.849	13590
924.956	13753
925.064	13529
925.172	13491
925.279	13403
925.387	13601
925.494	13487
925.602	13567
925.709	13647
925.816	13460
925.924	13506
926.031	13533
926.138	13445
926.245	13495
926.352	13312
926.459	13514
926.566	13590
926.673	13434
926.779	13240
926.886	13244
926.993	13129
927.099	13080
927.206	13034
927.312	13008
927.419	13099
927.525	13080
927.631	13107
927.737	12935
927.843	12909
927.95	12776
928.056	12916
928.162	12939
928.267	12920
928.373	13407
928.479	12905
928.585	12703
928.69	12757
928.796	12829
928.901	12677
929.007	12536
929.112	12726
929.218	12627
929.323	12635
929.428	12559
929.533	12688
929.638	12566
929.743	12551
929.848	12536
929.953	12570
930.058	12467
930.163	12277
930.267	12338
930.372	12437
930.477	12190
930.581	12407
930.685	12289
930.79	12144
930.894	12155
930.998	12167
931.103	12216
931.207	11866
931.311	11866
931.415	11676
931.519	11501
931.623	11478
