Data from test_V78500241_2001.txt Node
Date: Fri Mar 25 15:55:39 CST 2022
User: usil
Spectrometer: V785-0024
Trigger mode: 0
Integration Time (sec): 4.000000E-1
Scans to average: 1
Nonlinearity correction enabled: false
Boxcar width: 0
Storing dark spectrum: false
XAxis mode: Wavelengths
Number of Pixels in Spectrum: 1024
>>>>>Begin Spectral Data<<<<<
801.071	28584
801.214	28565
801.356	28386
801.499	28382
801.641	28226
801.783	28215
801.926	28036
802.068	28249
802.211	28147
802.353	28226
802.496	27869
802.638	27827
802.78	27823
802.923	27857
803.065	27694
803.208	27759
803.35	27899
803.492	28135
803.635	28192
803.777	27937
803.919	28067
804.061	28314
804.204	28226
804.346	28036
804.488	28105
804.63	28124
804.773	27987
804.915	28177
805.057	28280
805.199	28200
805.341	28234
805.483	28272
805.626	28314
805.768	28082
805.91	28207
806.052	28333
806.194	28234
806.336	28474
806.478	28261
806.62	28169
806.762	28497
806.904	28615
807.046	28736
807.188	28702
807.33	28729
807.472	28706
807.614	28592
807.756	28744
807.898	28618
808.04	28599
808.182	28618
808.324	28653
808.465	28611
808.607	28752
808.749	28873
808.891	29006
809.033	28949
809.174	28991
809.316	28980
809.458	28957
809.6	28972
809.741	28965
809.883	29166
810.025	29162
810.166	29341
810.308	29292
810.45	29174
810.591	29155
810.733	28934
810.875	28965
811.016	28881
811.158	28888
811.299	29044
811.441	29064
811.582	29140
811.724	29052
811.865	29033
812.007	28946
812.148	28987
812.29	29064
812.431	29223
812.573	29296
812.714	29459
812.855	29444
812.997	29524
813.138	29649
813.279	29646
813.421	29455
813.562	29486
813.703	29372
813.845	29220
813.986	28923
814.127	28744
814.268	28580
814.41	28710
814.551	28706
814.692	28736
814.833	28588
814.974	28577
815.115	28790
815.256	28542
815.397	28607
815.539	28516
815.68	28588
815.821	28428
815.962	28440
816.103	28455
816.244	28398
816.385	28253
816.526	28318
816.666	28124
816.807	28074
816.948	28109
817.089	28078
817.23	27911
817.371	28040
817.512	27892
817.653	27983
817.793	28032
817.934	27972
818.075	27949
818.216	27979
818.356	27918
818.497	27838
818.638	27770
818.778	27755
818.919	27724
819.06	27884
819.2	27759
819.341	28093
819.481	27956
819.622	28215
819.762	28291
819.903	28360
820.043	28162
820.184	28090
820.324	28051
820.465	28169
820.605	28139
820.746	28093
820.886	27899
821.026	27998
821.167	28093
821.307	28204
821.447	28006
821.588	27960
821.728	27816
821.868	27701
822.008	27443
822.149	27424
822.289	27427
822.429	27161
822.569	27184
822.709	27230
822.849	27039
822.99	27005
823.13	27009
823.27	26895
823.41	26788
823.55	26762
823.69	26781
823.83	26743
823.97	26815
824.11	26648
824.25	26617
824.389	26629
824.529	26727
824.669	26568
824.809	26823
824.949	26815
825.089	26720
825.228	26689
825.368	26507
825.508	26507
825.648	26625
825.787	26488
825.927	26537
826.067	26412
826.206	26552
826.346	26507
826.485	26511
826.625	26545
826.765	26651
826.904	26503
827.044	26343
827.183	26187
827.323	26256
827.462	26374
827.601	26301
827.741	26210
827.88	26305
828.02	26149
828.159	26183
828.298	26202
828.437	26282
828.577	26286
828.716	26237
828.855	26164
828.994	25928
829.134	25966
829.273	25928
829.412	25769
829.551	25963
829.69	25681
829.829	25917
829.968	26035
830.107	26024
830.246	25898
830.385	25689
830.524	25788
830.663	25674
830.802	25681
830.941	25525
831.08	25491
831.219	25616
831.357	25582
831.496	25784
831.635	25552
831.774	25438
831.913	25339
832.051	25354
832.19	25247
832.329	25320
832.467	25179
832.606	25168
832.744	25129
832.883	25202
833.022	25164
833.16	25228
833.299	25225
833.437	25240
833.576	25293
833.714	25232
833.852	25266
833.991	25179
834.129	25396
834.267	25426
834.406	25206
834.544	25293
834.682	25411
834.821	25088
834.959	25369
835.097	25046
835.235	25285
835.373	25179
835.511	25259
835.65	24951
835.788	25110
835.926	24939
836.064	24848
836.202	25027
836.34	25118
836.478	25190
836.615	25183
836.753	25065
836.891	25095
837.029	25244
837.167	24932
837.305	24932
837.443	24943
837.58	24966
837.718	24943
837.856	24970
837.993	24947
838.131	24863
838.269	24806
838.406	24817
838.544	24722
838.681	24509
838.819	24601
838.956	24285
839.094	24426
839.231	24361
839.369	24677
839.506	24696
839.643	24502
839.781	24224
839.918	24384
840.055	24369
840.193	24323
840.33	24224
840.467	24254
840.604	24319
840.742	24589
840.879	24087
841.016	24205
841.153	24079
841.29	24338
841.427	24258
841.564	24369
841.701	24243
841.838	24296
841.975	24095
842.112	24159
842.249	24026
842.385	23935
842.522	24197
842.659	24076
842.796	24076
842.933	24011
843.069	23980
843.206	23893
843.343	23950
843.479	24133
843.616	24022
843.752	23775
843.889	23832
844.025	23996
844.162	23882
844.298	23973
844.435	23855
844.571	23680
844.708	23821
844.844	23904
844.98	23984
845.117	23916
845.253	23832
845.389	23604
845.525	23741
845.661	23623
845.798	23589
845.934	23623
846.07	23425
846.206	23646
846.342	23661
846.478	23501
846.614	23406
846.75	23109
846.886	23170
847.022	23353
847.158	23265
847.294	23261
847.429	23292
847.565	23227
847.701	23547
847.837	22968
847.972	23067
848.108	23071
848.244	23075
848.379	22847
848.515	22809
848.65	22896
848.786	22774
848.921	22961
849.057	23006
849.192	22911
849.328	22942
849.463	22839
849.598	22782
849.734	22755
849.869	22778
850.004	22622
850.14	22538
850.275	22554
850.41	22519
850.545	22538
850.68	22687
850.815	22615
850.95	22653
851.085	22675
851.22	22702
851.355	22691
851.49	22531
851.625	22611
851.76	22542
851.895	22459
852.03	22531
852.165	22656
852.299	22752
852.434	22740
852.569	22694
852.703	22649
852.838	22744
852.973	22782
853.107	22668
853.242	22519
853.376	22379
853.511	22265
853.645	22291
853.78	22618
853.914	22398
854.048	22398
854.183	22272
854.317	22432
854.451	22607
854.585	22413
854.72	22398
854.854	22474
854.988	22295
855.122	22447
855.256	22249
855.39	22481
855.524	22565
855.658	22542
855.792	22382
855.926	22402
856.06	22341
856.194	22523
856.327	22363
856.461	22432
856.595	22276
856.729	22402
856.862	22481
856.996	22417
857.13	22573
857.263	22546
857.397	22554
857.53	22394
857.664	22459
857.797	22535
857.931	22470
858.064	22440
858.197	22554
858.331	22375
858.464	22470
858.597	22238
858.731	22417
858.864	22390
858.997	22337
859.13	22287
859.263	22265
859.396	22398
859.529	22470
859.662	22379
859.795	22390
859.928	22500
860.061	22660
860.194	22622
860.327	22409
860.46	22538
860.592	22561
860.725	22535
860.858	22546
860.99	22474
861.123	22284
861.256	22291
861.388	22481
861.521	23223
861.653	22284
861.786	22173
861.918	22306
862.05	22306
862.183	22303
862.315	22405
862.447	22363
862.58	22386
862.712	22078
862.844	22082
862.976	22173
863.108	22131
863.24	22557
863.372	22078
863.504	22192
863.636	22261
863.768	22139
863.9	22204
864.032	22196
864.164	22044
864.296	22154
864.428	22253
864.559	22207
864.691	22200
864.823	22131
864.954	22109
865.086	22025
865.217	22021
865.349	21865
865.48	22021
865.612	22101
865.743	22211
865.875	21949
866.006	21892
866.137	21972
866.269	21899
866.4	21842
866.531	21888
866.662	21831
866.793	21903
866.924	21888
867.055	22067
867.186	21953
867.317	21918
867.448	21808
867.579	22116
867.71	21789
867.841	21774
867.972	21987
868.103	21949
868.233	21956
868.364	22029
868.495	22074
868.625	22173
868.756	22246
868.886	22055
869.017	22162
869.147	22188
869.278	22265
869.408	22090
869.539	22223
869.669	22188
869.799	22074
869.929	22337
870.06	22333
870.19	22424
870.32	22455
870.45	22577
870.58	22622
870.71	22664
870.84	22622
870.97	22466
871.1	22580
871.23	22786
871.36	22733
871.489	22725
871.619	22729
871.749	22710
871.879	22816
872.008	22885
872.138	22801
872.267	22809
872.397	22668
872.526	22592
872.656	22744
872.785	22618
872.915	22854
873.044	22835
873.173	22679
873.303	22892
873.432	22801
873.561	22847
873.69	22725
873.819	22744
873.948	22809
874.077	22713
874.206	22771
874.335	22786
874.464	22972
874.593	23064
874.722	22957
874.851	23010
874.979	23033
875.108	23197
875.237	22930
875.365	22991
875.494	22831
875.623	23006
875.751	23037
875.88	22965
876.008	23025
876.136	23220
876.265	23406
876.393	23547
876.521	23379
876.65	23398
876.778	23311
876.906	23372
877.034	23391
877.162	23299
877.29	23261
877.418	23239
877.546	23448
877.674	23334
877.802	23296
877.93	23471
878.058	23288
878.185	23071
878.313	23299
878.441	23402
878.568	23132
878.696	23185
878.824	23360
878.951	23383
879.079	23425
879.206	23676
879.333	23421
879.461	23414
879.588	23459
879.715	23570
879.842	23581
879.97	23311
880.097	23269
880.224	23269
880.351	23189
880.478	23185
880.605	23086
880.732	23185
880.859	23364
880.986	23208
881.112	23109
881.239	22984
881.366	22927
881.493	22717
881.619	22656
881.746	22778
881.872	22706
881.999	22755
882.125	22573
882.252	22729
882.378	22774
882.505	22733
882.631	22588
882.757	22554
882.883	22478
883.01	22451
883.136	22318
883.262	22211
883.388	22154
883.514	22481
883.64	22421
883.766	22299
883.892	22131
884.018	22147
884.143	22341
884.269	22367
884.395	22177
884.52	22025
884.646	22051
884.772	22036
884.897	21934
885.023	22048
885.148	22051
885.274	22109
885.399	22169
885.524	21991
885.65	21994
885.775	22078
885.9	21968
886.025	22158
886.15	22059
886.275	22070
886.4	21964
886.525	22010
886.65	21915
886.775	21903
886.9	22166
887.025	22310
887.149	21922
887.274	21827
887.399	21831
887.523	21812
887.648	21614
887.773	21774
887.897	21823
888.021	21835
888.146	21610
888.27	21804
888.395	21808
888.519	21812
888.643	21637
888.767	21816
888.891	21713
889.015	21629
889.139	21648
889.263	21561
889.387	21618
889.511	21755
889.635	21724
889.759	21530
889.883	21523
890.006	21523
890.13	21690
890.254	21549
890.377	21545
890.501	21230
890.624	21203
890.748	21298
890.871	21222
890.995	21123
891.118	21001
891.241	21135
891.364	21169
891.488	21283
891.611	21096
891.734	21093
891.857	21123
891.98	21195
892.103	21119
892.226	21154
892.349	21081
892.471	20910
892.594	20967
892.717	21039
892.839	20933
892.962	21032
893.085	20941
893.207	21013
893.33	20925
893.452	20880
893.575	21062
893.697	20956
893.819	21302
893.941	21256
894.064	21184
894.186	20994
894.308	20842
894.43	21043
894.552	21104
894.674	21081
894.796	20891
894.918	20975
895.04	20960
895.161	20899
895.283	21047
895.405	20979
895.526	20933
895.648	21017
895.769	20948
895.891	21108
896.012	21055
896.134	20979
896.255	21028
896.376	20990
896.498	21005
896.619	21104
896.74	20895
896.861	21009
896.982	21195
897.103	21435
897.224	21260
897.345	21157
897.466	21112
897.587	21233
897.708	21439
897.828	21233
897.949	21135
898.07	20990
898.19	21085
898.311	21268
898.431	21081
898.552	21093
898.672	21272
898.792	21321
898.913	21252
899.033	21135
899.153	20948
899.273	20895
899.393	21093
899.513	21058
899.633	20853
899.753	20998
899.873	20902
899.993	21020
900.113	20887
900.232	20899
900.352	20914
900.472	20792
900.591	20629
900.711	20659
900.83	20678
900.95	20724
901.069	20708
901.189	20663
901.308	20400
901.427	20328
901.546	20324
901.665	20305
901.784	20187
901.904	20149
902.023	20016
902.141	19921
902.26	19795
902.379	19803
902.498	19700
902.617	19753
902.735	19830
902.854	19723
902.973	19655
903.091	19533
903.21	19354
903.328	19331
903.446	19362
903.565	19232
903.683	19297
903.801	19042
903.919	19152
904.038	19050
904.156	18993
904.274	19038
904.392	19019
904.51	18947
904.627	18947
904.745	19027
904.863	18913
904.981	18806
905.098	18688
905.216	18681
905.334	18707
905.451	18707
905.569	18707
905.686	18779
905.803	18654
905.921	18429
906.038	18627
906.155	18327
906.272	18353
906.389	18353
906.506	18292
906.623	18152
906.74	18281
906.857	18076
906.974	17984
907.091	18171
907.208	18304
907.324	18289
907.441	18133
907.557	17893
907.674	17935
907.79	17874
907.907	17893
908.023	17851
908.139	17851
908.256	17824
908.372	17733
908.488	17779
908.604	17665
908.72	17680
908.836	17589
908.952	17585
909.068	17630
909.184	17710
909.3	17570
909.415	17604
909.531	17611
909.647	17345
909.762	17337
909.878	17360
909.993	17330
910.108	17220
910.224	17242
910.339	17303
910.454	17124
910.57	16961
910.685	16995
910.8	17254
910.915	17128
911.03	16999
911.145	16942
911.259	16839
911.374	16984
911.489	16896
911.604	16843
911.718	16630
911.833	16542
911.947	16588
912.062	16516
912.176	16679
912.291	16656
912.405	16660
912.519	16820
912.633	16824
912.748	16637
912.862	16603
912.976	16455
913.09	16348
913.204	16314
913.318	16508
913.431	16459
913.545	16504
913.659	16527
913.772	16333
913.886	16303
914	16219
914.113	16272
914.226	16318
914.34	16280
914.453	16048
914.566	16211
914.68	16051
914.793	16147
914.906	15861
915.019	15774
915.132	15778
915.245	15857
915.358	15861
915.47	15800
915.583	15759
915.696	15804
915.809	15842
915.921	15884
916.034	15724
916.146	15698
916.259	15690
916.371	15846
916.483	15720
916.595	15671
916.708	15671
916.82	15648
916.932	15584
917.044	15553
917.156	15637
917.268	15599
917.38	15458
917.491	15355
917.603	15382
917.715	15500
917.826	15530
917.938	15363
918.049	15329
918.161	15367
918.272	15496
918.384	15504
918.495	15428
918.606	15203
918.717	15230
918.828	15188
918.939	15287
919.05	15138
919.161	15203
919.272	14929
919.383	15051
919.494	15256
919.604	15458
919.715	15135
919.826	15020
919.936	15100
920.047	15199
920.157	15062
920.267	15245
920.378	15081
920.488	15013
920.598	15222
920.708	15443
920.818	15351
920.928	15218
921.038	15439
921.148	15317
921.258	15074
921.368	14960
921.477	14891
921.587	14902
921.697	14716
921.806	14857
921.916	14731
922.025	14545
922.134	14552
922.244	14396
922.353	14518
922.462	14366
922.571	14267
922.68	14130
922.789	14153
922.898	14138
923.007	14130
923.116	14225
923.224	14153
923.333	14088
923.442	13993
923.55	13921
923.659	14001
923.767	13947
923.876	13936
923.984	13925
924.092	13776
924.201	13849
924.309	13909
924.417	13898
924.525	13818
924.633	13898
924.741	14575
924.849	13518
924.956	13719
925.064	13480
925.172	13514
925.279	13449
925.387	13480
925.494	13460
925.602	13605
925.709	13529
925.816	13457
925.924	13400
926.031	13537
926.138	13495
926.245	13510
926.352	13327
926.459	13476
926.566	13537
926.673	13419
926.779	13247
926.886	13198
926.993	13091
927.099	13160
927.206	12958
927.312	12993
927.419	13019
927.525	13057
927.631	13122
927.737	12943
927.843	12806
927.95	12738
928.056	12913
928.162	12787
928.267	12886
928.373	13491
928.479	12886
928.585	12768
928.69	12814
928.796	12810
928.901	12764
929.007	12574
929.112	12681
929.218	12658
929.323	12627
929.428	12532
929.533	12646
929.638	12486
929.743	12509
929.848	12597
929.953	12528
930.058	12448
930.163	12281
930.267	12235
930.372	12323
930.477	12289
930.581	12410
930.685	12216
930.79	12019
930.894	12190
930.998	12114
931.103	12163
931.207	11897
931.311	11840
931.415	11767
931.519	11429
931.623	11486
