Data from test_V78500241_3715.txt Node
Date: Fri Mar 25 16:07:32 CST 2022
User: usil
Spectrometer: V785-0024
Trigger mode: 0
Integration Time (sec): 4.000000E-1
Scans to average: 1
Nonlinearity correction enabled: false
Boxcar width: 0
Storing dark spectrum: false
XAxis mode: Wavelengths
Number of Pixels in Spectrum: 1024
>>>>>Begin Spectral Data<<<<<
801.071	28158
801.214	28074
801.356	27899
801.499	27812
801.641	27713
801.783	27720
801.926	27816
802.068	27701
802.211	27652
802.353	27576
802.496	27485
802.638	27298
802.78	27481
802.923	27386
803.065	27256
803.208	27260
803.35	27595
803.492	27500
803.635	27644
803.777	27500
803.919	27614
804.061	28044
804.204	27587
804.346	27496
804.488	27500
804.63	27526
804.773	27564
804.915	27595
805.057	27690
805.199	27561
805.341	27542
805.483	27713
805.626	27701
805.768	27572
805.91	27778
806.052	27838
806.194	27736
806.336	27899
806.478	27770
806.62	27675
806.762	27895
806.904	28029
807.046	28261
807.188	28044
807.33	28215
807.472	28112
807.614	28131
807.756	28166
807.898	28169
808.04	27930
808.182	28010
808.324	28017
808.465	27975
808.607	28223
808.749	28371
808.891	28417
809.033	28569
809.174	28341
809.316	28341
809.458	28280
809.6	28390
809.741	28474
809.883	28603
810.025	28557
810.166	28573
810.308	28721
810.45	28542
810.591	28740
810.733	28527
810.875	28455
811.016	28417
811.158	28295
811.299	28675
811.441	28710
811.582	28512
811.724	28390
811.865	28409
812.007	28287
812.148	28466
812.29	28409
812.431	28497
812.573	28649
812.714	28835
812.855	28885
812.997	29083
813.138	29204
813.279	29086
813.421	28824
813.562	28839
813.703	28820
813.845	28550
813.986	28325
814.127	28109
814.268	27953
814.41	28086
814.551	28040
814.692	28097
814.833	27911
814.974	27964
815.115	27998
815.256	27918
815.397	28051
815.539	27850
815.68	27914
815.821	27823
815.962	27998
816.103	27937
816.244	27778
816.385	27682
816.526	27728
816.666	27469
816.807	27447
816.948	27515
817.089	27526
817.23	27469
817.371	27378
817.512	27317
817.653	27496
817.793	27329
817.934	27344
818.075	27420
818.216	27427
818.356	27488
818.497	27355
818.638	27112
818.778	27161
818.919	27245
819.06	27222
819.2	27382
819.341	27389
819.481	27317
819.622	27393
819.762	27789
819.903	27633
820.043	27656
820.184	27652
820.324	27557
820.465	27473
820.605	27568
820.746	27412
820.886	27325
821.026	27485
821.167	27370
821.307	27477
821.447	27393
821.588	27386
821.728	27214
821.868	27089
822.008	26830
822.149	26792
822.289	26785
822.429	26625
822.569	26347
822.709	26579
822.849	26530
822.99	26465
823.13	26362
823.27	26374
823.41	26130
823.55	26088
823.69	26180
823.83	26145
823.97	26142
824.11	25879
824.25	25928
824.389	25986
824.529	26130
824.669	25989
824.809	26119
824.949	26069
825.089	26054
825.228	26035
825.368	25833
825.508	25887
825.648	25997
825.787	25868
825.927	26027
826.067	25788
826.206	25944
826.346	26012
826.485	25913
826.625	25947
826.765	25947
826.904	25936
827.044	25624
827.183	25685
827.323	25495
827.462	25750
827.601	25734
827.741	25590
827.88	25723
828.02	25434
828.159	25483
828.298	25772
828.437	25658
828.577	25521
828.716	25586
828.855	25590
828.994	25236
829.134	25403
829.273	25362
829.412	25263
829.551	25202
829.69	25407
829.829	25377
829.968	25377
830.107	25324
830.246	25251
830.385	25270
830.524	25187
830.663	25129
830.802	25103
830.941	24840
831.08	24802
831.219	24992
831.357	24973
831.496	25069
831.635	24852
831.774	24753
831.913	24738
832.051	24730
832.19	24688
832.329	24661
832.467	24642
832.606	24578
832.744	24403
832.883	24502
833.022	24528
833.16	24422
833.299	24589
833.437	24513
833.576	24623
833.714	24604
833.852	24631
833.991	24555
834.129	24738
834.267	24616
834.406	24566
834.544	24612
834.682	24604
834.821	24566
834.959	24859
835.097	24498
835.235	24646
835.373	24673
835.511	24665
835.65	24437
835.788	24311
835.926	24426
836.064	24239
836.202	24296
836.34	24456
836.478	24540
836.615	24505
836.753	24483
836.891	24540
837.029	24471
837.167	24311
837.305	24315
837.443	24323
837.58	24334
837.718	24323
837.856	24346
837.993	24076
838.131	24327
838.269	24076
838.406	24239
838.544	24057
838.681	24034
838.819	23843
838.956	23661
839.094	23745
839.231	23897
839.369	23935
839.506	24098
839.643	23984
839.781	23718
839.918	23748
840.055	23729
840.193	23703
840.33	23764
840.467	23687
840.604	23707
840.742	23992
840.879	23444
841.016	23687
841.153	23436
841.29	23771
841.427	23627
841.564	23630
841.701	23638
841.838	23524
841.975	23695
842.112	23516
842.249	23360
842.385	23315
842.522	23577
842.659	23562
842.796	23414
842.933	23440
843.069	23349
843.206	23440
843.343	23493
843.479	23452
843.616	23421
843.752	23242
843.889	23170
844.025	23337
844.162	23250
844.298	23402
844.435	23086
844.571	23086
844.708	23136
844.844	23280
844.98	23307
845.117	23284
845.253	23071
845.389	23102
845.525	23124
845.661	23041
845.798	22946
845.934	22953
846.07	22942
846.206	22942
846.342	23018
846.478	22949
846.614	22713
846.75	22649
846.886	22561
847.022	22763
847.158	22634
847.294	22656
847.429	22748
847.565	22630
847.701	22877
847.837	22226
847.972	22436
848.108	22504
848.244	22462
848.379	22192
848.515	22257
848.65	22219
848.786	22238
848.921	22322
849.057	22287
849.192	22249
849.328	22432
849.463	22223
849.598	22135
849.734	22112
849.869	22230
850.004	22017
850.14	22025
850.275	22051
850.41	21907
850.545	21983
850.68	22013
850.815	22051
850.95	22097
851.085	22135
851.22	22051
851.355	21949
851.49	21949
851.625	21987
851.76	22021
851.895	21998
852.03	21918
852.165	21937
852.299	22105
852.434	22143
852.569	21903
852.703	22044
852.838	21895
852.973	22242
853.107	22150
853.242	22017
853.376	21934
853.511	21709
853.645	21789
853.78	21915
853.914	21857
854.048	21873
854.183	21808
854.317	21926
854.451	22109
854.585	21895
854.72	21797
854.854	21838
854.988	21785
855.122	21846
855.256	21717
855.39	21743
855.524	21956
855.658	21873
855.792	21895
855.926	21808
856.06	21964
856.194	21937
856.327	21838
856.461	21747
856.595	21861
856.729	21785
856.862	22006
856.996	21865
857.13	21724
857.263	21937
857.397	21842
857.53	21892
857.664	21968
857.797	21922
857.931	21876
858.064	21884
858.197	21934
858.331	21736
858.464	21736
858.597	21713
858.731	21846
858.864	21743
858.997	21766
859.13	21941
859.263	21941
859.396	21907
859.529	21766
859.662	21679
859.795	21781
859.928	21850
860.061	22086
860.194	22044
860.327	21892
860.46	21865
860.592	21930
860.725	22109
860.858	21975
860.99	21812
861.123	21713
861.256	21709
861.388	21865
861.521	22580
861.653	21682
861.786	21629
861.918	21583
862.05	21747
862.183	21831
862.315	21785
862.447	21827
862.58	21667
862.712	21523
862.844	21504
862.976	21603
863.108	21587
863.24	22154
863.372	21526
863.504	21576
863.636	21580
863.768	21671
863.9	21576
864.032	21386
864.164	21545
864.296	21542
864.428	21679
864.559	21644
864.691	21644
864.823	21526
864.954	21538
865.086	21435
865.217	21485
865.349	21252
865.48	21526
865.612	21485
865.743	21473
865.875	21412
866.006	21348
866.137	21466
866.269	21378
866.4	21393
866.531	21424
866.662	21298
866.793	21367
866.924	21397
867.055	21359
867.186	21389
867.317	21504
867.448	21298
867.579	21488
867.71	21272
867.841	21302
867.972	21450
868.103	21382
868.233	21386
868.364	21298
868.495	21466
868.625	21542
868.756	21713
868.886	21526
869.017	21504
869.147	21865
869.278	21732
869.408	21709
869.539	21568
869.669	21648
869.799	21644
869.929	21648
870.06	21789
870.19	21956
870.32	21865
870.45	21934
870.58	21941
870.71	22230
870.84	22093
870.97	21949
871.1	21972
871.23	22181
871.36	22158
871.489	22131
871.619	22207
871.749	22287
871.879	22223
872.008	22352
872.138	22268
872.267	22223
872.397	22109
872.526	22158
872.656	22063
872.785	22059
872.915	22234
873.044	22405
873.173	22303
873.303	22314
873.432	22322
873.561	22272
873.69	22265
873.819	22169
873.948	22154
874.077	22295
874.206	22238
874.335	22226
874.464	22310
874.593	22382
874.722	22421
874.851	22573
874.979	22546
875.108	22512
875.237	22405
875.365	22443
875.494	22409
875.623	22615
875.751	22462
875.88	22500
876.008	22607
876.136	22592
876.265	22896
876.393	22889
876.521	23037
876.65	22923
876.778	22896
876.906	22843
877.034	22889
877.162	22778
877.29	22793
877.418	22744
877.546	22824
877.674	22904
877.802	22869
877.93	22740
878.058	22584
878.185	22706
878.313	22835
878.441	22672
878.568	22573
878.696	22831
878.824	22873
878.951	22942
879.079	22949
879.206	23105
879.333	23010
879.461	22881
879.588	23022
879.715	22919
879.842	23086
879.97	22869
880.097	22675
880.224	22573
880.351	22763
880.478	22649
880.605	22592
880.732	22569
880.859	22752
880.986	22668
881.112	22698
881.239	22538
881.366	22375
881.493	22356
881.619	22314
881.746	22143
881.872	22238
881.999	22128
882.125	22150
882.252	22268
882.378	22086
882.505	22325
882.631	21983
882.757	21934
882.883	21949
883.01	21903
883.136	21892
883.262	21789
883.388	21827
883.514	21956
883.64	21903
883.766	21762
883.892	21629
884.018	21675
884.143	21850
884.269	22032
884.395	21564
884.52	21511
884.646	21667
884.772	21656
884.897	21405
885.023	21378
885.148	21542
885.274	21595
885.399	21568
885.524	21591
885.65	21583
885.775	21447
885.9	21587
886.025	21663
886.15	21660
886.275	21485
886.4	21496
886.525	21587
886.65	21618
886.775	21511
886.9	21629
887.025	21698
887.149	21428
887.274	21294
887.399	21306
887.523	21370
887.648	21336
887.773	21188
887.897	21321
888.021	21359
888.146	21264
888.27	21458
888.395	21348
888.519	21275
888.643	21214
888.767	21287
888.891	21340
889.015	21058
889.139	21154
889.263	21032
889.387	21180
889.511	21317
889.635	21203
889.759	21180
889.883	21123
890.006	21146
890.13	21100
890.254	21093
890.377	21058
890.501	20796
890.624	20792
890.748	20925
890.871	20857
890.995	20743
891.118	20556
891.241	20594
891.364	20674
891.488	20758
891.611	20712
891.734	20629
891.857	20670
891.98	20682
892.103	20705
892.226	20674
892.349	20533
892.471	20469
892.594	20571
892.717	20670
892.839	20454
892.962	20575
893.085	20587
893.207	20659
893.33	20480
893.452	20579
893.575	20667
893.697	20499
893.819	20727
893.941	20636
894.064	20651
894.186	20522
894.308	20434
894.43	20693
894.552	20583
894.674	20541
894.796	20571
894.918	20499
895.04	20415
895.161	20503
895.283	20602
895.405	20552
895.526	20522
895.648	20442
895.769	20518
895.891	20480
896.012	20670
896.134	20564
896.255	20636
896.376	20545
896.498	20644
896.619	20549
896.74	20488
896.861	20552
896.982	20906
897.103	21032
897.224	20819
897.345	20689
897.466	20594
897.587	20834
897.708	20762
897.828	20769
897.949	20781
898.07	20739
898.19	20648
898.311	20773
898.431	20594
898.552	20670
898.672	20849
898.792	20853
898.913	20727
899.033	20609
899.153	20514
899.273	20427
899.393	20476
899.513	20522
899.633	20514
899.753	20560
899.873	20339
899.993	20366
900.113	20377
900.232	20343
900.352	20415
900.472	20336
900.591	20180
900.711	20256
900.83	20286
900.95	20454
901.069	20507
901.189	20233
901.308	19906
901.427	19841
901.546	19856
901.665	19887
901.784	19856
901.904	19632
902.023	19521
902.141	19434
902.26	19407
902.379	19441
902.498	19327
902.617	19289
902.735	19426
902.854	19324
902.973	19266
903.091	19012
903.21	19046
903.328	18951
903.446	18939
903.565	18871
903.683	18905
903.801	18776
903.919	18738
904.038	18798
904.156	18631
904.274	18677
904.392	18563
904.51	18574
904.627	18654
904.745	18620
904.863	18631
904.981	18509
905.098	18201
905.216	18197
905.334	18251
905.451	18251
905.569	18194
905.686	18140
905.803	18102
905.921	18015
906.038	18045
906.155	18114
906.272	17950
906.389	17904
906.506	17813
906.623	17855
906.74	17805
906.857	17649
906.974	17592
907.091	17775
907.208	17863
907.324	17786
907.441	17665
907.557	17528
907.674	17512
907.79	17376
907.907	17532
908.023	17493
908.139	17501
908.256	17448
908.372	17414
908.488	17299
908.604	17311
908.72	17284
908.836	17132
908.952	17193
909.068	17204
909.184	17349
909.3	17216
909.415	17083
909.531	17250
909.647	16961
909.762	16915
909.878	16892
909.993	16942
910.108	16930
910.224	16816
910.339	16873
910.454	16835
910.57	16782
910.685	16736
910.8	16972
910.915	16805
911.03	16763
911.145	16424
911.259	16474
911.374	16554
911.489	16417
911.604	16356
911.718	16276
911.833	16196
911.947	16116
912.062	16139
912.176	16215
912.291	16284
912.405	16261
912.519	16386
912.633	16348
912.748	16265
912.862	16238
912.976	16207
913.09	16059
913.204	16013
913.318	16078
913.431	16139
913.545	16177
913.659	16162
913.772	15991
913.886	15953
914	15884
914.113	15953
914.226	15998
914.34	15892
914.453	15698
914.566	15846
914.68	15713
914.793	15778
914.906	15511
915.019	15378
915.132	15420
915.245	15542
915.358	15435
915.47	15477
915.583	15408
915.696	15420
915.809	15572
915.921	15698
916.034	15424
916.146	15389
916.259	15325
916.371	15431
916.483	15408
916.595	15237
916.708	15203
916.82	15199
916.932	15195
917.044	15279
917.156	15195
917.268	15150
917.38	15154
917.491	15104
917.603	15055
917.715	15123
917.826	15135
917.938	14979
918.049	14941
918.161	15020
918.272	15180
918.384	15146
918.495	15085
918.606	14887
918.717	14758
918.828	14834
918.939	14876
919.05	14769
919.161	14849
919.272	14629
919.383	14712
919.494	14777
919.604	15047
919.715	14842
919.826	14762
919.936	14788
920.047	14864
920.157	14914
920.267	15024
920.378	14735
920.488	14731
920.598	14975
920.708	15112
920.818	14941
920.928	14899
921.038	14941
921.148	15093
921.258	14781
921.368	14613
921.477	14606
921.587	14541
921.697	14396
921.806	14579
921.916	14328
922.025	14237
922.134	14218
922.244	14046
922.353	14191
922.462	14065
922.571	13989
922.68	13837
922.789	13708
922.898	13845
923.007	13822
923.116	13871
923.224	13833
923.333	13731
923.442	13696
923.55	13670
923.659	13655
923.767	13643
923.876	13457
923.984	13689
924.092	13407
924.201	13594
924.309	13525
924.417	13563
924.525	13480
924.633	13502
924.741	14282
924.849	13308
924.956	13453
925.064	13285
925.172	13118
925.279	13225
925.387	13217
925.494	13217
925.602	13320
925.709	13304
925.816	13126
925.924	13118
926.031	13202
926.138	13213
926.245	13232
926.352	13072
926.459	13217
926.566	13221
926.673	13133
926.779	12989
926.886	12970
926.993	12829
927.099	12802
927.206	12719
927.312	12722
927.419	12768
927.525	12817
927.631	12719
927.737	12665
927.843	12612
927.95	12494
928.056	12597
928.162	12566
928.267	12544
928.373	13152
928.479	12768
928.585	12471
928.69	12544
928.796	12631
928.901	12441
929.007	12258
929.112	12399
929.218	12460
929.323	12296
929.428	12254
929.533	12391
929.638	12239
929.743	12311
929.848	12209
929.953	12251
930.058	12163
930.163	11977
930.267	12053
930.372	12159
930.477	11973
930.581	12148
930.685	12041
930.79	11851
930.894	11923
930.998	11824
931.103	12026
931.207	11657
931.311	11516
931.415	11478
931.519	11280
931.623	11201
