Data from test_V78500241_929.txt Node
Date: Fri Mar 25 15:48:14 CST 2022
User: usil
Spectrometer: V785-0024
Trigger mode: 0
Integration Time (sec): 4.000000E-1
Scans to average: 1
Nonlinearity correction enabled: false
Boxcar width: 0
Storing dark spectrum: false
XAxis mode: Wavelengths
Number of Pixels in Spectrum: 1024
>>>>>Begin Spectral Data<<<<<
801.071	28398
801.214	28333
801.356	28055
801.499	27918
801.641	27960
801.783	27823
801.926	27850
802.068	27918
802.211	27892
802.353	27911
802.496	27686
802.638	27599
802.78	27561
802.923	27633
803.065	27587
803.208	27485
803.35	27507
803.492	27580
803.635	27770
803.777	27671
803.919	27850
804.061	28101
804.204	27907
804.346	27778
804.488	27762
804.63	27857
804.773	27720
804.915	27838
805.057	28059
805.199	27857
805.341	27869
805.483	28143
805.626	28017
805.768	27918
805.91	27899
806.052	27914
806.194	27994
806.336	28166
806.478	27983
806.62	27880
806.762	28112
806.904	28230
807.046	28462
807.188	28428
807.33	28443
807.472	28386
807.614	28432
807.756	28360
807.898	28276
808.04	28116
808.182	28147
808.324	28261
808.465	28280
808.607	28618
808.749	28733
808.891	28683
809.033	28915
809.174	28691
809.316	28744
809.458	28683
809.6	28622
809.741	28778
809.883	28972
810.025	28976
810.166	29098
810.308	29052
810.45	28999
810.591	28949
810.733	28790
810.875	28805
811.016	28603
811.158	28603
811.299	28725
811.441	28885
811.582	28778
811.724	28649
811.865	28672
812.007	28664
812.148	28721
812.29	28736
812.431	28866
812.573	29022
812.714	29197
812.855	29334
812.997	29318
813.138	29421
813.279	29315
813.421	29269
813.562	29193
813.703	29098
813.845	28896
813.986	28542
814.127	28531
814.268	28478
814.41	28421
814.551	28500
814.692	28504
814.833	28329
814.974	28394
815.115	28390
815.256	28287
815.397	28299
815.539	28265
815.68	28196
815.821	28169
815.962	28169
816.103	28207
816.244	27975
816.385	27987
816.526	28036
816.666	27926
816.807	27709
816.948	27899
817.089	27823
817.23	27819
817.371	27644
817.512	27701
817.653	27816
817.793	27618
817.934	27705
818.075	27739
818.216	27622
818.356	27625
818.497	27603
818.638	27431
818.778	27435
818.919	27488
819.06	27439
819.2	27553
819.341	27720
819.481	27736
819.622	27892
819.762	28090
819.903	27972
820.043	27899
820.184	27785
820.324	27781
820.465	27892
820.605	27846
820.746	27842
820.886	27797
821.026	27705
821.167	27713
821.307	27770
821.447	27656
821.588	27778
821.728	27424
821.868	27420
822.008	27241
822.149	27161
822.289	27161
822.429	26910
822.569	26750
822.709	26777
822.849	26575
822.99	26663
823.13	26758
823.27	26590
823.41	26568
823.55	26568
823.69	26575
823.83	26609
823.97	26499
824.11	26225
824.25	26195
824.389	26286
824.529	26461
824.669	26431
824.809	26507
824.949	26396
825.089	26480
825.228	26412
825.368	26290
825.508	26122
825.648	26221
825.787	26199
825.927	26336
826.067	26195
826.206	26142
826.346	26240
826.485	26358
826.625	26153
826.765	26317
826.904	26206
827.044	26058
827.183	26073
827.323	25989
827.462	25909
827.601	26012
827.741	25932
827.88	25966
828.02	25769
828.159	25936
828.298	26020
828.437	26016
828.577	25963
828.716	26012
828.855	25830
828.994	25655
829.134	25628
829.273	25871
829.412	25658
829.551	25518
829.69	25674
829.829	25700
829.968	25750
830.107	25742
830.246	25468
830.385	25491
830.524	25525
830.663	25491
830.802	25381
830.941	25282
831.08	25183
831.219	25392
831.357	25255
831.496	25468
831.635	25244
831.774	25236
831.913	25278
832.051	25072
832.19	25072
832.329	25012
832.467	24985
832.606	24871
832.744	24871
832.883	24935
833.022	24817
833.16	24795
833.299	24966
833.437	24935
833.576	25148
833.714	24947
833.852	24992
833.991	25061
834.129	25084
834.267	25091
834.406	25148
834.544	25065
834.682	25088
834.821	24962
834.959	25202
835.097	24935
835.235	24916
835.373	24909
835.511	24992
835.65	24753
835.788	24749
835.926	24821
836.064	24635
836.202	24707
836.34	24821
836.478	24821
836.615	24852
836.753	24833
836.891	24768
837.029	24897
837.167	24844
837.305	24597
837.443	24703
837.58	24722
837.718	24882
837.856	24661
837.993	24684
838.131	24494
838.269	24369
838.406	24642
838.544	24403
838.681	24281
838.819	24281
838.956	24110
839.094	24072
839.231	24159
839.369	24380
839.506	24544
839.643	24372
839.781	24133
839.918	24068
840.055	23999
840.193	24125
840.33	23954
840.467	23999
840.604	24114
840.742	24262
840.879	23863
841.016	23935
841.153	23988
841.29	24163
841.427	23958
841.564	24064
841.701	23992
841.838	23878
841.975	23939
842.112	23859
842.249	23802
842.385	23916
842.522	24087
842.659	23988
842.796	23824
842.933	23756
843.069	23752
843.206	23745
843.343	23863
843.479	23824
843.616	23718
843.752	23596
843.889	23570
844.025	23699
844.162	23444
844.298	23672
844.435	23592
844.571	23505
844.708	23600
844.844	23627
844.98	23589
845.117	23676
845.253	23512
845.389	23436
845.525	23433
845.661	23326
845.798	23303
845.934	23292
846.07	23284
846.206	23315
846.342	23330
846.478	23315
846.614	23014
846.75	22896
846.886	23189
847.022	23018
847.158	22919
847.294	22942
847.429	23018
847.565	22854
847.701	23132
847.837	22763
847.972	22694
848.108	22843
848.244	22729
848.379	22664
848.515	22535
848.65	22531
848.786	22649
848.921	22710
849.057	22660
849.192	22736
849.328	22512
849.463	22694
849.598	22577
849.734	22523
849.869	22523
850.004	22379
850.14	22390
850.275	22390
850.41	22367
850.545	22322
850.68	22268
850.815	22440
850.95	22398
851.085	22478
851.22	22478
851.355	22390
851.49	22310
851.625	22325
851.76	22394
851.895	22265
852.03	22280
852.165	22402
852.299	22451
852.434	22394
852.569	22341
852.703	22280
852.838	22516
852.973	22527
853.107	22436
853.242	22402
853.376	22234
853.511	22067
853.645	22173
853.78	22325
853.914	22234
854.048	22124
854.183	22188
854.317	22196
854.451	22325
854.585	22105
854.72	22181
854.854	22162
854.988	22147
855.122	22211
855.256	22074
855.39	22128
855.524	22238
855.658	22265
855.792	22158
855.926	22048
856.06	22166
856.194	22234
856.327	22158
856.461	22055
856.595	22048
856.729	22207
856.862	22253
856.996	22177
857.13	22162
857.263	22295
857.397	22246
857.53	22173
857.664	22230
857.797	22109
857.931	22341
858.064	22196
858.197	22284
858.331	22207
858.464	22078
858.597	21953
858.731	22166
858.864	22185
858.997	22120
859.13	22112
859.263	22109
859.396	22291
859.529	22124
859.662	22032
859.795	22162
859.928	22226
860.061	22295
860.194	22432
860.327	22173
860.46	22204
860.592	22352
860.725	22318
860.858	22192
860.99	22078
861.123	22196
861.256	22112
861.388	22181
861.521	22858
861.653	22044
861.786	21949
861.918	21945
862.05	22036
862.183	22082
862.315	22135
862.447	22158
862.58	21983
862.712	21865
862.844	21759
862.976	21911
863.108	21945
863.24	22215
863.372	21789
863.504	21854
863.636	21823
863.768	21876
863.9	21880
864.032	21816
864.164	21698
864.296	21873
864.428	21937
864.559	21975
864.691	21808
864.823	21922
864.954	21880
865.086	21804
865.217	21873
865.349	21660
865.48	21838
865.612	21762
865.743	21892
865.875	21736
866.006	21876
866.137	21698
866.269	21713
866.4	21816
866.531	21644
866.662	21694
866.793	21652
866.924	21736
867.055	21778
867.186	21739
867.317	21663
867.448	21580
867.579	21690
867.71	21587
867.841	21705
867.972	21667
868.103	21690
868.233	21656
868.364	21622
868.495	21842
868.625	21861
868.756	22006
868.886	21911
869.017	21861
869.147	21994
869.278	22105
869.408	22013
869.539	21930
869.669	21991
869.799	21991
869.929	22044
870.06	21987
870.19	22276
870.32	22230
870.45	22268
870.58	22242
870.71	22367
870.84	22459
870.97	22299
871.1	22360
871.23	22546
871.36	22550
871.489	22352
871.619	22580
871.749	22618
871.879	22561
872.008	22523
872.138	22447
872.267	22455
872.397	22557
872.526	22284
872.656	22253
872.785	22303
872.915	22504
873.044	22497
873.173	22474
873.303	22607
873.432	22554
873.561	22546
873.69	22512
873.819	22565
873.948	22478
874.077	22462
874.206	22447
874.335	22603
874.464	22599
874.593	22626
874.722	22691
874.851	22892
874.979	22858
875.108	22824
875.237	22679
875.365	22725
875.494	22824
875.623	22778
875.751	22717
875.88	22702
876.008	22896
876.136	22904
876.265	23220
876.393	23330
876.521	23159
876.65	23178
876.778	23060
876.906	23086
877.034	23128
877.162	23086
877.29	23048
877.418	23132
877.546	23159
877.674	23143
877.802	23102
877.93	23185
878.058	22965
878.185	23060
878.313	22896
878.441	23098
878.568	22995
878.696	22972
878.824	23124
878.951	23140
879.079	23223
879.206	23356
879.333	23429
879.461	23079
879.588	23261
879.715	23136
879.842	23421
879.97	23041
880.097	22908
880.224	22957
880.351	22930
880.478	22930
880.605	22797
880.732	22919
880.859	23193
880.986	22877
881.112	22824
881.239	22698
881.366	22611
881.493	22546
881.619	22523
881.746	22455
881.872	22428
881.999	22394
882.125	22306
882.252	22489
882.378	22371
882.505	22405
882.631	22257
882.757	22242
882.883	22124
883.01	22181
883.136	22204
883.262	22112
883.388	22010
883.514	22188
883.64	22242
883.766	22070
883.892	21934
884.018	22032
884.143	22078
884.269	22257
884.395	21861
884.52	21698
884.646	21751
884.772	21686
884.897	21732
885.023	21724
885.148	21937
885.274	21835
885.399	21846
885.524	21861
885.65	21667
885.775	21785
885.9	21698
886.025	21892
886.15	21888
886.275	21747
886.4	21876
886.525	21797
886.65	21755
886.775	21778
886.9	21816
887.025	21994
887.149	21663
887.274	21622
887.399	21488
887.523	21515
887.648	21435
887.773	21363
887.897	21606
888.021	21599
888.146	21469
888.27	21583
888.395	21682
888.519	21504
888.643	21523
888.767	21549
888.891	21511
889.015	21348
889.139	21473
889.263	21264
889.387	21405
889.511	21473
889.635	21443
889.759	21283
889.883	21355
890.006	21321
890.13	21466
890.254	21275
890.377	21241
890.501	21051
890.624	20994
890.748	21112
890.871	20963
890.995	20876
891.118	20792
891.241	20834
891.364	20883
891.488	20937
891.611	20842
891.734	20861
891.857	20986
891.98	20994
892.103	20887
892.226	20921
892.349	20750
892.471	20750
892.594	20785
892.717	20838
892.839	20720
892.962	20868
893.085	20781
893.207	20765
893.33	20670
893.452	20659
893.575	20895
893.697	20864
893.819	20986
893.941	20994
894.064	20918
894.186	20697
894.308	20655
894.43	20872
894.552	21013
894.674	20842
894.796	20648
894.918	20629
895.04	20705
895.161	20876
895.283	20788
895.405	20731
895.526	20849
895.648	20651
895.769	20777
895.891	20834
896.012	20842
896.134	20895
896.255	20796
896.376	20701
896.498	20765
896.619	20883
896.74	20727
896.861	20842
896.982	21180
897.103	21291
897.224	21074
897.345	20868
897.466	20990
897.587	21039
897.708	20986
897.828	20994
897.949	20933
898.07	20800
898.19	21036
898.311	20899
898.431	20902
898.552	20971
898.672	21036
898.792	21131
898.913	20990
899.033	20708
899.153	20754
899.273	20678
899.393	20830
899.513	20826
899.633	20800
899.753	20804
899.873	20727
899.993	20792
900.113	20697
900.232	20773
900.352	20583
900.472	20651
900.591	20473
900.711	20556
900.83	20358
900.95	20549
901.069	20613
901.189	20423
901.308	20145
901.427	20031
901.546	20046
901.665	19978
901.784	19970
901.904	19898
902.023	19871
902.141	19655
902.26	19601
902.379	19700
902.498	19521
902.617	19582
902.735	19624
902.854	19460
902.973	19529
903.091	19209
903.21	19168
903.328	19251
903.446	19175
903.565	19118
903.683	18947
903.801	18928
903.919	18943
904.038	18928
904.156	18810
904.274	18916
904.392	18779
904.51	18814
904.627	18738
904.745	18863
904.863	18787
904.981	18711
905.098	18483
905.216	18380
905.334	18486
905.451	18490
905.569	18456
905.686	18513
905.803	18452
905.921	18285
906.038	18380
906.155	18209
906.272	18216
906.389	18182
906.506	17969
906.623	18079
906.74	17988
906.857	17916
906.974	17824
907.091	18087
907.208	18152
907.324	18117
907.441	18011
907.557	17741
907.674	17676
907.79	17722
907.907	17748
908.023	17714
908.139	17809
908.256	17638
908.372	17592
908.488	17478
908.604	17402
908.72	17417
908.836	17356
908.952	17398
909.068	17459
909.184	17585
909.3	17455
909.415	17379
909.531	17383
909.647	17242
909.762	17162
909.878	17090
909.993	17151
910.108	17227
910.224	17071
910.339	17189
910.454	17052
910.57	17022
910.685	16877
910.8	17174
910.915	16972
911.03	16930
911.145	16656
911.259	16683
911.374	16820
911.489	16637
911.604	16596
911.718	16508
911.833	16459
911.947	16443
912.062	16333
912.176	16504
912.291	16531
912.405	16535
912.519	16634
912.633	16645
912.748	16527
912.862	16512
912.976	16181
913.09	16158
913.204	16261
913.318	16215
913.431	16318
913.545	16291
913.659	16375
913.772	16234
913.886	16082
914	16105
914.113	16177
914.226	16139
914.34	16253
914.453	16093
914.566	16071
914.68	15907
914.793	15884
914.906	15724
915.019	15743
915.132	15690
915.245	15720
915.358	15709
915.47	15705
915.583	15705
915.696	15599
915.809	15816
915.921	15720
916.034	15694
916.146	15580
916.259	15542
916.371	15709
916.483	15564
916.595	15549
916.708	15530
916.82	15580
916.932	15397
917.044	15504
917.156	15408
917.268	15336
917.38	15351
917.491	15287
917.603	15378
917.715	15412
917.826	15401
917.938	15230
918.049	15199
918.161	15252
918.272	15412
918.384	15370
918.495	15176
918.606	15112
918.717	15070
918.828	15077
918.939	15112
919.05	14990
919.161	15024
919.272	14864
919.383	14861
919.494	15108
919.604	15157
919.715	15024
919.826	14933
919.936	15108
920.047	15039
920.157	15104
920.267	15226
920.378	15058
920.488	15036
920.598	15150
920.708	15260
920.818	15024
920.928	15165
921.038	15329
921.148	15146
921.258	14944
921.368	14807
921.477	14746
921.587	14720
921.697	14655
921.806	14785
921.916	14545
922.025	14541
922.134	14355
922.244	14362
922.353	14431
922.462	14149
922.571	14084
922.68	14077
922.789	13989
922.898	13997
923.007	13993
923.116	14008
923.224	13936
923.333	13986
923.442	13830
923.55	13807
923.659	13875
923.767	14024
923.876	13769
923.984	13864
924.092	13799
924.201	13769
924.309	13685
924.417	13753
924.525	13655
924.633	13643
924.741	14552
924.849	13499
924.956	13578
925.064	13438
925.172	13354
925.279	13324
925.387	13422
925.494	13365
925.602	13396
925.709	13407
925.816	13301
925.924	13270
926.031	13529
926.138	13331
926.245	13377
926.352	13206
926.459	13453
926.566	13293
926.673	13194
926.779	13217
926.886	13126
926.993	13038
927.099	12977
927.206	12924
927.312	12966
927.419	12993
927.525	12913
927.631	12947
927.737	12871
927.843	12749
927.95	12639
928.056	12814
928.162	12848
928.267	12764
928.373	13289
928.479	12848
928.585	12707
928.69	12654
928.796	12814
928.901	12631
929.007	12486
929.112	12612
929.218	12631
929.323	12464
929.428	12418
929.533	12631
929.638	12403
929.743	12342
929.848	12498
929.953	12479
930.058	12289
930.163	12133
930.267	12251
930.372	12285
930.477	12091
930.581	12384
930.685	12190
930.79	12079
930.894	12022
930.998	12064
931.103	12159
931.207	11741
931.311	11756
931.415	11589
931.519	11478
931.623	11398
