Data from test_V78500241_2923.txt Node
Date: Fri Mar 25 16:02:02 CST 2022
User: usil
Spectrometer: V785-0024
Trigger mode: 0
Integration Time (sec): 4.000000E-1
Scans to average: 1
Nonlinearity correction enabled: false
Boxcar width: 0
Storing dark spectrum: false
XAxis mode: Wavelengths
Number of Pixels in Spectrum: 1024
>>>>>Begin Spectral Data<<<<<
801.071	28736
801.214	28759
801.356	28573
801.499	28455
801.641	28428
801.783	28478
801.926	28561
802.068	28451
802.211	28523
802.353	28287
802.496	28280
802.638	28226
802.78	28131
802.923	28154
803.065	28276
803.208	28040
803.35	28067
803.492	28329
803.635	28519
803.777	28295
803.919	28375
804.061	28569
804.204	28519
804.346	28417
804.488	28371
804.63	28455
804.773	28379
804.915	28504
805.057	28493
805.199	28329
805.341	28421
805.483	28466
805.626	28527
805.768	28367
805.91	28569
806.052	28611
806.194	28436
806.336	28599
806.478	28744
806.62	28542
806.762	28679
806.904	28805
807.046	28942
807.188	28930
807.33	28972
807.472	29113
807.614	28999
807.756	28999
807.898	28896
808.04	28763
808.182	28698
808.324	28828
808.465	29010
808.607	29090
808.749	29356
808.891	29326
809.033	29356
809.174	29414
809.316	29231
809.458	29235
809.6	29185
809.741	29288
809.883	29406
810.025	29611
810.166	29558
810.308	29573
810.45	29589
810.591	29524
810.733	29288
810.875	29086
811.016	29341
811.158	29261
811.299	29227
811.441	29528
811.582	29493
811.724	29410
811.865	29349
812.007	29239
812.148	29242
812.29	29444
812.431	29558
812.573	29604
812.714	29600
812.855	29722
812.997	29882
813.138	29912
813.279	29965
813.421	29748
813.562	29699
813.703	29604
813.845	29531
813.986	29170
814.127	28999
814.268	29037
814.41	28995
814.551	28999
814.692	28984
814.833	28938
814.974	28934
815.115	28942
815.256	28980
815.397	28911
815.539	28949
815.68	28847
815.821	28683
815.962	29022
816.103	28949
816.244	28790
816.385	28497
816.526	28618
816.666	28481
816.807	28318
816.948	28508
817.089	28443
817.23	28398
817.371	28268
817.512	28223
817.653	28246
817.793	28322
817.934	28306
818.075	28379
818.216	28318
818.356	28341
818.497	28181
818.638	28135
818.778	28192
818.919	27956
819.06	28200
819.2	28219
819.341	28276
819.481	28265
819.622	28440
819.762	28710
819.903	28546
820.043	28615
820.184	28580
820.324	28436
820.465	28428
820.605	28413
820.746	28394
820.886	28303
821.026	28443
821.167	28428
821.307	28527
821.447	28272
821.588	28173
821.728	28230
821.868	28112
822.008	27812
822.149	27713
822.289	27835
822.429	27656
822.569	27538
822.709	27469
822.849	27283
822.99	27275
823.13	27302
823.27	27310
823.41	27081
823.55	26990
823.69	27195
823.83	27150
823.97	27157
824.11	27017
824.25	26895
824.389	27005
824.529	26948
824.669	26887
824.809	27165
824.949	27017
825.089	26994
825.228	27100
825.368	26933
825.508	26921
825.648	26800
825.787	26872
825.927	26971
826.067	26842
826.206	26819
826.346	26834
826.485	26826
826.625	26883
826.765	27108
826.904	26880
827.044	26545
827.183	26712
827.323	26541
827.462	26724
827.601	26594
827.741	26621
827.88	26571
828.02	26431
828.159	26423
828.298	26423
828.437	26522
828.577	26419
828.716	26651
828.855	26309
828.994	26275
829.134	26271
829.273	26206
829.412	26298
829.551	26366
829.69	26351
829.829	26229
829.968	26313
830.107	26412
830.246	26176
830.385	26256
830.524	26210
830.663	26039
830.802	25936
830.941	25970
831.08	25712
831.219	25974
831.357	25871
831.496	26142
831.635	26012
831.774	25814
831.913	25670
832.051	25624
832.19	25544
832.329	25639
832.467	25571
832.606	25426
832.744	25441
832.883	25559
833.022	25460
833.16	25529
833.299	25563
833.437	25529
833.576	25548
833.714	25479
833.852	25670
833.991	25655
834.129	25597
834.267	25620
834.406	25548
834.544	25616
834.682	25464
834.821	25620
834.959	25772
835.097	25590
835.235	25700
835.373	25476
835.511	25655
835.65	25495
835.788	25304
835.926	25343
836.064	25301
836.202	25183
836.34	25377
836.478	25457
836.615	25316
836.753	25415
836.891	25422
837.029	25453
837.167	25476
837.305	25320
837.443	25217
837.58	25263
837.718	25259
837.856	25346
837.993	25065
838.131	25156
838.269	25042
838.406	25156
838.544	25091
838.681	24814
838.819	24882
838.956	24741
839.094	24635
839.231	24817
839.369	24840
839.506	24935
839.643	24935
839.781	24700
839.918	24635
840.055	24616
840.193	24646
840.33	24639
840.467	24635
840.604	24597
840.742	24783
840.879	24494
841.016	24616
841.153	24551
841.29	24741
841.427	24494
841.564	24597
841.701	24661
841.838	24467
841.975	24422
842.112	24494
842.249	24376
842.385	24270
842.522	24559
842.659	24342
842.796	24258
842.933	24319
843.069	24270
843.206	24357
843.343	24342
843.479	24380
843.616	24391
843.752	24235
843.889	24117
844.025	24258
844.162	23977
844.298	24171
844.435	24152
844.571	24171
844.708	24232
844.844	24292
844.98	24410
845.117	24285
845.253	24133
845.389	24098
845.525	24030
845.661	23904
845.798	23885
845.934	23821
846.07	23733
846.206	23870
846.342	23889
846.478	23878
846.614	23581
846.75	23646
846.886	23436
847.022	23687
847.158	23726
847.294	23596
847.429	23573
847.565	23577
847.701	23798
847.837	23360
847.972	23311
848.108	23330
848.244	23349
848.379	23311
848.515	23212
848.65	23208
848.786	23162
848.921	23128
849.057	23185
849.192	23235
849.328	23121
849.463	23197
849.598	23159
849.734	23071
849.869	23003
850.004	22942
850.14	22919
850.275	23067
850.41	22774
850.545	22812
850.68	22877
850.815	22984
850.95	22858
851.085	23166
851.22	23098
851.355	22980
851.49	22919
851.625	22942
851.76	22866
851.895	22778
852.03	22797
852.165	23029
852.299	22927
852.434	23064
852.569	22965
852.703	22930
852.838	22923
852.973	23132
853.107	23105
853.242	22858
853.376	22816
853.511	22721
853.645	22717
853.78	22854
853.914	22664
854.048	22641
854.183	22721
854.317	22816
854.451	23037
854.585	22725
854.72	22713
854.854	22866
854.988	22668
855.122	22664
855.256	22603
855.39	22725
855.524	22771
855.658	22850
855.792	22702
855.926	22790
856.06	22752
856.194	22858
856.327	22710
856.461	22596
856.595	22710
856.729	22691
856.862	22839
856.996	22930
857.13	22774
857.263	22965
857.397	22717
857.53	22797
857.664	22660
857.797	22733
857.931	22900
858.064	22877
858.197	22858
858.331	22752
858.464	22736
858.597	22573
858.731	22725
858.864	22596
858.997	22736
859.13	22675
859.263	22755
859.396	22831
859.529	22755
859.662	22694
859.795	22649
859.928	22618
860.061	22889
860.194	22946
860.327	22835
860.46	22938
860.592	22786
860.725	22965
860.858	22866
860.99	22820
861.123	22729
861.256	22713
861.388	22782
861.521	23535
861.653	22679
861.786	22618
861.918	22694
862.05	22626
862.183	22698
862.315	22759
862.447	22668
862.58	22649
862.712	22565
862.844	22371
862.976	22588
863.108	22542
863.24	22942
863.372	22299
863.504	22550
863.636	22436
863.768	22557
863.9	22367
864.032	22249
864.164	22413
864.296	22478
864.428	22535
864.559	22531
864.691	22573
864.823	22512
864.954	22573
865.086	22478
865.217	22310
865.349	22215
865.48	22405
865.612	22272
865.743	22405
865.875	22318
866.006	22409
866.137	22356
866.269	22306
866.4	22356
866.531	22348
866.662	22246
866.793	22177
866.924	22139
867.055	22257
867.186	22333
867.317	22322
867.448	22226
867.579	22177
867.71	22154
867.841	22074
867.972	22215
868.103	22295
868.233	22314
868.364	22188
868.495	22295
868.625	22497
868.756	22645
868.886	22462
869.017	22672
869.147	22630
869.278	22706
869.408	22508
869.539	22386
869.669	22569
869.799	22557
869.929	22603
870.06	22698
870.19	22923
870.32	22816
870.45	22938
870.58	22919
870.71	22957
870.84	23003
870.97	22953
871.1	22847
871.23	23044
871.36	23071
871.489	22984
871.619	23098
871.749	23113
871.879	23159
872.008	23330
872.138	23037
872.267	23159
872.397	22953
872.526	22923
872.656	22900
872.785	23044
872.915	23162
873.044	23105
873.173	23143
873.303	23147
873.432	23159
873.561	23246
873.69	23231
873.819	23261
873.948	23208
874.077	23231
874.206	23079
874.335	23140
874.464	23159
874.593	23326
874.722	23337
874.851	23406
874.979	23337
875.108	23387
875.237	23288
875.365	23239
875.494	23330
875.623	23417
875.751	23284
875.88	23349
876.008	23455
876.136	23600
876.265	23798
876.393	23878
876.521	23729
876.65	23729
876.778	23893
876.906	23600
877.034	23794
877.162	23657
877.29	23703
877.418	23790
877.546	23707
877.674	23665
877.802	23638
877.93	23516
878.058	23684
878.185	23524
878.313	23634
878.441	23653
878.568	23421
878.696	23604
878.824	23714
878.951	23817
879.079	23897
879.206	23863
879.333	23878
879.461	23703
879.588	23748
879.715	23786
879.842	23950
879.97	23649
880.097	23558
880.224	23471
880.351	23512
880.478	23433
880.605	23414
880.732	23562
880.859	23646
880.986	23490
881.112	23558
881.239	23299
881.366	23299
881.493	23132
881.619	23010
881.746	23025
881.872	22938
881.999	22999
882.125	23022
882.252	23014
882.378	23109
882.505	23170
882.631	22854
882.757	22725
882.883	22752
883.01	22812
883.136	22622
883.262	22603
883.388	22607
883.514	22824
883.64	22812
883.766	22634
883.892	22455
884.018	22493
884.143	22706
884.269	22759
884.395	22455
884.52	22299
884.646	22306
884.772	22287
884.897	22219
885.023	22166
885.148	22379
885.274	22474
885.399	22375
885.524	22291
885.65	22276
885.775	22295
885.9	22287
886.025	22413
886.15	22360
886.275	22322
886.4	22261
886.525	22341
886.65	22318
886.775	22200
886.9	22287
887.025	22649
887.149	22344
887.274	22173
887.399	21979
887.523	22105
887.648	22147
887.773	21979
887.897	22169
888.021	22051
888.146	22040
888.27	22109
888.395	22112
888.519	22150
888.643	22207
888.767	22158
888.891	22036
889.015	21960
889.139	22006
889.263	21899
889.387	21949
889.511	22109
889.635	22059
889.759	21979
889.883	21774
890.006	21823
890.13	21892
890.254	21816
890.377	21884
890.501	21545
890.624	21504
890.748	21606
890.871	21599
890.995	21538
891.118	21481
891.241	21389
891.364	21530
891.488	21564
891.611	21492
891.734	21466
891.857	21481
891.98	21420
892.103	21538
892.226	21389
892.349	21435
892.471	21241
892.594	21351
892.717	21435
892.839	21306
892.962	21386
893.085	21386
893.207	21329
893.33	21275
893.452	21298
893.575	21469
893.697	21336
893.819	21481
893.941	21583
894.064	21523
894.186	21481
894.308	21367
894.43	21412
894.552	21389
894.674	21458
894.796	21218
894.918	21298
895.04	21283
895.161	21424
895.283	21374
895.405	21237
895.526	21252
895.648	21329
895.769	21367
895.891	21241
896.012	21416
896.134	21298
896.255	21279
896.376	21332
896.498	21298
896.619	21416
896.74	21332
896.861	21329
896.982	21614
897.103	21694
897.224	21553
897.345	21481
897.466	21553
897.587	21568
897.708	21614
897.828	21526
897.949	21481
898.07	21424
898.19	21466
898.311	21572
898.431	21534
898.552	21469
898.672	21485
898.792	21583
898.913	21534
899.033	21424
899.153	21336
899.273	21283
899.393	21245
899.513	21195
899.633	21199
899.753	21279
899.873	21199
899.993	21256
900.113	21176
900.232	21306
900.352	21176
900.472	21116
900.591	20963
900.711	20971
900.83	20861
900.95	21108
901.069	21070
901.189	20868
901.308	20743
901.427	20560
901.546	20613
901.665	20678
901.784	20522
901.904	20602
902.023	20358
902.141	20180
902.26	20069
902.379	20244
902.498	20046
902.617	20111
902.735	20187
902.854	20005
902.973	19913
903.091	19833
903.21	19826
903.328	19727
903.446	19670
903.565	19552
903.683	19415
903.801	19468
903.919	19388
904.038	19422
904.156	19350
904.274	19377
904.392	19411
904.51	19285
904.627	19274
904.745	19331
904.863	19346
904.981	19042
905.098	18840
905.216	19000
905.334	18989
905.451	19053
905.569	18916
905.686	19038
905.803	18939
905.921	18650
906.038	18779
906.155	18783
906.272	18612
906.389	18711
906.506	18525
906.623	18532
906.74	18467
906.857	18407
906.974	18365
907.091	18551
907.208	18631
907.324	18509
907.441	18365
907.557	18254
907.674	18213
907.79	18091
907.907	18106
908.023	18220
908.139	18190
908.256	18178
908.372	18129
908.488	18163
908.604	18064
908.72	17843
908.836	17863
908.952	17767
909.068	17874
909.184	17996
909.3	17889
909.415	17954
909.531	17939
909.647	17665
909.762	17661
909.878	17535
909.993	17589
910.108	17535
910.224	17577
910.339	17608
910.454	17585
910.57	17467
910.685	17391
910.8	17611
910.915	17551
911.03	17398
911.145	17258
911.259	17018
911.374	17231
911.489	17140
911.604	17029
911.718	16889
911.833	16854
911.947	16801
912.062	16748
912.176	16976
912.291	16885
912.405	16877
912.519	17060
912.633	17029
912.748	16995
912.862	16873
912.976	16725
913.09	16561
913.204	16687
913.318	16698
913.431	16767
913.545	16889
913.659	16683
913.772	16596
913.886	16580
914	16489
914.113	16523
914.226	16580
914.34	16558
914.453	16352
914.566	16493
914.68	16398
914.793	16318
914.906	16181
915.019	16040
915.132	15930
915.245	16105
915.358	16139
915.47	16093
915.583	16063
915.696	16093
915.809	16246
915.921	16253
916.034	15972
916.146	15979
916.259	15911
916.371	16048
916.483	16013
916.595	15873
916.708	15819
916.82	15972
916.932	15880
917.044	15823
917.156	15789
917.268	15675
917.38	15717
917.491	15736
917.603	15774
917.715	15804
917.826	15732
917.938	15576
918.049	15496
918.161	15656
918.272	15797
918.384	15728
918.495	15599
918.606	15496
918.717	15382
918.828	15408
918.939	15447
919.05	15355
919.161	15378
919.272	15294
919.383	15325
919.494	15504
919.604	15603
919.715	15428
919.826	15294
919.936	15378
920.047	15405
920.157	15310
920.267	15561
920.378	15325
920.488	15408
920.598	15500
920.708	15705
920.818	15507
920.928	15420
921.038	15549
921.148	15690
921.258	15249
921.368	15264
921.477	15138
921.587	15077
921.697	14921
921.806	15123
921.916	14963
922.025	14762
922.134	14743
922.244	14720
922.353	14788
922.462	14636
922.571	14507
922.68	14400
922.789	14328
922.898	14404
923.007	14336
923.116	14427
923.224	14298
923.333	14263
923.442	14195
923.55	14157
923.659	14157
923.767	14191
923.876	14157
923.984	14161
924.092	14024
924.201	14054
924.309	14145
924.417	14065
924.525	13940
924.633	13967
924.741	14956
924.849	13845
924.956	13940
925.064	13757
925.172	13791
925.279	13685
925.387	13879
925.494	13803
925.602	13944
925.709	13791
925.816	13719
925.924	13639
926.031	13769
926.138	13616
926.245	13685
926.352	13434
926.459	13677
926.566	13696
926.673	13685
926.779	13514
926.886	13426
926.993	13384
927.099	13251
927.206	13236
927.312	13194
927.419	13339
927.525	13228
927.631	13266
927.737	13175
927.843	13133
927.95	13004
928.056	13000
928.162	13103
928.267	13194
928.373	13715
928.479	13289
928.585	12901
928.69	13038
928.796	13194
928.901	12973
929.007	12741
929.112	12977
929.218	12859
929.323	12821
929.428	12764
929.533	12886
929.638	12726
929.743	12707
929.848	12760
929.953	12772
930.058	12669
930.163	12369
930.267	12513
930.372	12517
930.477	12441
930.581	12650
930.685	12422
930.79	12235
930.894	12327
930.998	12334
931.103	12350
931.207	12068
931.311	12019
931.415	11889
931.519	11756
931.623	11718
