Data from test_V78500241_1642.txt Node
Date: Fri Mar 25 15:53:10 CST 2022
User: usil
Spectrometer: V785-0024
Trigger mode: 0
Integration Time (sec): 4.000000E-1
Scans to average: 1
Nonlinearity correction enabled: false
Boxcar width: 0
Storing dark spectrum: false
XAxis mode: Wavelengths
Number of Pixels in Spectrum: 1024
>>>>>Begin Spectral Data<<<<<
801.071	28017
801.214	27922
801.356	27675
801.499	27679
801.641	27477
801.783	27576
801.926	27686
802.068	27511
802.211	27462
802.353	27306
802.496	27249
802.638	27283
802.78	27142
802.923	27188
803.065	27074
803.208	27207
803.35	27218
803.492	27378
803.635	27405
803.777	27355
803.919	27393
804.061	27736
804.204	27386
804.346	27530
804.488	27310
804.63	27431
804.773	27504
804.915	27500
805.057	27481
805.199	27424
805.341	27351
805.483	27614
805.626	27686
805.768	27591
805.91	27595
806.052	27481
806.194	27481
806.336	27789
806.478	27701
806.62	27511
806.762	27663
806.904	27918
807.046	28029
807.188	27903
807.33	27964
807.472	28169
807.614	27827
807.756	28006
807.898	27876
808.04	27831
808.182	27717
808.324	27941
808.465	27812
808.607	27979
808.749	28139
808.891	28169
809.033	28303
809.174	28177
809.316	28192
809.458	28246
809.6	28128
809.741	28272
809.883	28371
810.025	28577
810.166	28508
810.308	28474
810.45	28508
810.591	28360
810.733	28265
810.875	28166
811.016	28143
811.158	28090
811.299	28253
811.441	28478
811.582	28352
811.724	28299
811.865	28230
812.007	28124
812.148	28261
812.29	28318
812.431	28375
812.573	28493
812.714	28656
812.855	28748
812.997	28702
813.138	28995
813.279	28809
813.421	28850
813.562	28546
813.703	28485
813.845	28470
813.986	28101
814.127	27991
814.268	27899
814.41	27945
814.551	27869
814.692	27895
814.833	27800
814.974	27979
815.115	27960
815.256	27804
815.397	27774
815.539	27854
815.68	27701
815.821	27538
815.962	27797
816.103	27717
816.244	27454
816.385	27477
816.526	27466
816.666	27310
816.807	27218
816.948	27222
817.089	27245
817.23	27207
817.371	27157
817.512	27199
817.653	27302
817.793	27203
817.934	27237
818.075	27279
818.216	27150
818.356	27180
818.497	27020
818.638	26918
818.778	26937
818.919	27085
819.06	26887
819.2	27070
819.341	27294
819.481	27241
819.622	27427
819.762	27473
819.903	27412
820.043	27412
820.184	27230
820.324	27370
820.465	27427
820.605	27416
820.746	27256
820.886	27135
821.026	27256
821.167	27222
821.307	27420
821.447	27245
821.588	27138
821.728	27108
821.868	26823
822.008	26701
822.149	26727
822.289	26537
822.429	26514
822.569	26263
822.709	26377
822.849	26191
822.99	26301
823.13	26043
823.27	26088
823.41	25963
823.55	25890
823.69	25959
823.83	25993
823.97	25849
824.11	25826
824.25	25799
824.389	25799
824.529	25913
824.669	25776
824.809	25909
824.949	25753
825.089	25875
825.228	25830
825.368	25556
825.508	25761
825.648	25685
825.787	25655
825.927	25822
826.067	25594
826.206	25556
826.346	25704
826.485	25712
826.625	25575
826.765	25799
826.904	25616
827.044	25403
827.183	25430
827.323	25278
827.462	25479
827.601	25400
827.741	25419
827.88	25430
828.02	25213
828.159	25453
828.298	25358
828.437	25438
828.577	25365
828.716	25289
828.855	25327
828.994	24970
829.134	25057
829.273	25122
829.412	25042
829.551	25057
829.69	25065
829.829	25091
829.968	25198
830.107	25270
830.246	25004
830.385	24939
830.524	24913
830.663	24909
830.802	24897
830.941	24673
831.08	24719
831.219	24745
831.357	24772
831.496	24871
831.635	24601
831.774	24642
831.913	24642
832.051	24620
832.19	24578
832.329	24582
832.467	24300
832.606	24251
832.744	24353
832.883	24330
833.022	24281
833.16	24365
833.299	24410
833.437	24414
833.576	24372
833.714	24365
833.852	24563
833.991	24426
834.129	24623
834.267	24464
834.406	24429
834.544	24357
834.682	24433
834.821	24380
834.959	24570
835.097	24410
835.235	24365
835.373	24525
835.511	24391
835.65	24292
835.788	24194
835.926	24106
836.064	24095
836.202	23980
836.34	24178
836.478	24353
836.615	24129
836.753	24258
836.891	24273
837.029	24308
837.167	24186
837.305	24102
837.443	23988
837.58	24034
837.718	24152
837.856	24159
837.993	24076
838.131	23954
838.269	23866
838.406	23897
838.544	23794
838.681	23828
838.819	23665
838.956	23493
839.094	23592
839.231	23642
839.369	23672
839.506	23927
839.643	23840
839.781	23657
839.918	23524
840.055	23444
840.193	23562
840.33	23452
840.467	23531
840.604	23531
840.742	23672
840.879	23364
841.016	23417
841.153	23398
841.29	23520
841.427	23436
841.564	23383
841.701	23391
841.838	23395
841.975	23410
842.112	23318
842.249	23220
842.385	23231
842.522	23395
842.659	23280
842.796	23273
842.933	23147
843.069	23223
843.206	23185
843.343	23261
843.479	23250
843.616	23227
843.752	23064
843.889	23075
844.025	23246
844.162	22984
844.298	23098
844.435	22961
844.571	23060
844.708	23071
844.844	23155
844.98	23147
845.117	23166
845.253	22919
845.389	22862
845.525	22816
845.661	22771
845.798	22771
845.934	22721
846.07	22721
846.206	22668
846.342	22942
846.478	22675
846.614	22618
846.75	22360
846.886	22352
847.022	22569
847.158	22459
847.294	22402
847.429	22375
847.565	22348
847.701	22622
847.837	22219
847.972	22109
848.108	22238
848.244	22158
848.379	22070
848.515	21960
848.65	22207
848.786	22078
848.921	22029
849.057	22207
849.192	22207
849.328	22002
849.463	22109
849.598	22044
849.734	21892
849.869	22017
850.004	21819
850.14	21774
850.275	21873
850.41	21747
850.545	21755
850.68	21812
850.815	21888
850.95	21751
851.085	21888
851.22	21918
851.355	21854
851.49	21778
851.625	21774
851.76	21774
851.895	21755
852.03	21682
852.165	21679
852.299	21709
852.434	21819
852.569	21747
852.703	21785
852.838	21899
852.973	21812
853.107	22013
853.242	21785
853.376	21682
853.511	21542
853.645	21542
853.78	21789
853.914	21682
854.048	21663
854.183	21690
854.317	21663
854.451	21827
854.585	21614
854.72	21663
854.854	21656
854.988	21561
855.122	21648
855.256	21496
855.39	21625
855.524	21686
855.658	21511
855.792	21614
855.926	21739
856.06	21637
856.194	21686
856.327	21511
856.461	21652
856.595	21469
856.729	21595
856.862	21629
856.996	21633
857.13	21876
857.263	21705
857.397	21614
857.53	21610
857.664	21713
857.797	21785
857.931	21739
858.064	21606
858.197	21755
858.331	21747
858.464	21652
858.597	21553
858.731	21625
858.864	21610
858.997	21641
859.13	21675
859.263	21561
859.396	21690
859.529	21572
859.662	21663
859.795	21629
859.928	21709
860.061	21728
860.194	21759
860.327	21625
860.46	21603
860.592	21743
860.725	21762
860.858	21759
860.99	21701
861.123	21500
861.256	21557
861.388	21587
861.521	22329
861.653	21435
861.786	21382
861.918	21378
862.05	21523
862.183	21576
862.315	21610
862.447	21549
862.58	21599
862.712	21329
862.844	21294
862.976	21481
863.108	21401
863.24	21800
863.372	21313
863.504	21218
863.636	21214
863.768	21344
863.9	21245
864.032	21241
864.164	21317
864.296	21348
864.428	21420
864.559	21515
864.691	21462
864.823	21355
864.954	21310
865.086	21256
865.217	21245
865.349	21104
865.48	21302
865.612	21165
865.743	21420
865.875	21313
866.006	21093
866.137	21226
866.269	21252
866.4	21237
866.531	21195
866.662	21047
866.793	21055
866.924	21119
867.055	21127
867.186	21039
867.317	21085
867.448	21081
867.579	21104
867.71	21055
867.841	21058
867.972	21112
868.103	21085
868.233	21138
868.364	21241
868.495	21325
868.625	21397
868.756	21412
868.886	21275
869.017	21454
869.147	21477
869.278	21561
869.408	21393
869.539	21336
869.669	21439
869.799	21488
869.929	21538
870.06	21481
870.19	21679
870.32	21606
870.45	21751
870.58	21736
870.71	21907
870.84	21972
870.97	21751
871.1	21747
871.23	21873
871.36	21998
871.489	21861
871.619	21903
871.749	21956
871.879	21979
872.008	22070
872.138	21975
872.267	22051
872.397	21831
872.526	21819
872.656	21797
872.785	21854
872.915	22032
873.044	22044
873.173	22135
873.303	22082
873.432	22067
873.561	22025
873.69	22207
873.819	22150
873.948	22158
874.077	22010
874.206	22051
874.335	22002
874.464	22158
874.593	22246
874.722	22211
874.851	22219
874.979	22219
875.108	22284
875.237	22101
875.365	22135
875.494	22188
875.623	22360
875.751	22185
875.88	22246
876.008	22413
876.136	22516
876.265	22713
876.393	22824
876.521	22508
876.65	22717
876.778	22561
876.906	22618
877.034	22538
877.162	22535
877.29	22645
877.418	22622
877.546	22561
877.674	22645
877.802	22565
877.93	22588
878.058	22421
878.185	22459
878.313	22516
878.441	22580
878.568	22398
878.696	22542
878.824	22618
878.951	22710
879.079	22790
879.206	22866
879.333	22812
879.461	22618
879.588	22683
879.715	22755
879.842	22786
879.97	22820
880.097	22466
880.224	22348
880.351	22523
880.478	22436
880.605	22356
880.732	22413
880.859	22664
880.986	22379
881.112	22360
881.239	22280
881.366	22070
881.493	22036
881.619	22059
881.746	21998
881.872	22055
881.999	21937
882.125	21975
882.252	21979
882.378	21899
882.505	22070
882.631	21774
882.757	21568
882.883	21724
883.01	21690
883.136	21637
883.262	21599
883.388	21477
883.514	21637
883.64	21671
883.766	21572
883.892	21458
884.018	21416
884.143	21542
884.269	21667
884.395	21477
884.52	21272
884.646	21317
884.772	21294
884.897	21093
885.023	21287
885.148	21367
885.274	21466
885.399	21447
885.524	21294
885.65	21386
885.775	21397
885.9	21237
886.025	21283
886.15	21294
886.275	21306
886.4	21260
886.525	21241
886.65	21275
886.775	21157
886.9	21363
887.025	21469
887.149	21340
887.274	21077
887.399	21070
887.523	21070
887.648	20952
887.773	21024
887.897	21214
888.021	21089
888.146	21020
888.27	21176
888.395	21119
888.519	21116
888.643	20975
888.767	21066
888.891	20990
889.015	20868
889.139	21043
889.263	20925
889.387	20960
889.511	21077
889.635	20845
889.759	20921
889.883	20952
890.006	20910
890.13	20948
890.254	20849
890.377	20796
890.501	20701
890.624	20469
890.748	20689
890.871	20636
890.995	20438
891.118	20343
891.241	20396
891.364	20503
891.488	20625
891.611	20545
891.734	20503
891.857	20629
891.98	20465
892.103	20423
892.226	20476
892.349	20434
892.471	20324
892.594	20278
892.717	20438
892.839	20332
892.962	20320
893.085	20488
893.207	20347
893.33	20153
893.452	20206
893.575	20351
893.697	20324
893.819	20522
893.941	20522
894.064	20492
894.186	20206
894.308	20240
894.43	20492
894.552	20507
894.674	20278
894.796	20290
894.918	20351
895.04	20244
895.161	20469
895.283	20438
895.405	20191
895.526	20286
895.648	20286
895.769	20434
895.891	20385
896.012	20343
896.134	20465
896.255	20370
896.376	20347
896.498	20480
896.619	20370
896.74	20415
896.861	20328
896.982	20617
897.103	20765
897.224	20670
897.345	20575
897.466	20537
897.587	20636
897.708	20541
897.828	20655
897.949	20434
898.07	20381
898.19	20488
898.311	20598
898.431	20560
898.552	20545
898.672	20629
898.792	20682
898.913	20564
899.033	20457
899.153	20374
899.273	20183
899.393	20396
899.513	20404
899.633	20381
899.753	20358
899.873	20191
899.993	20294
900.113	20248
900.232	20320
900.352	20100
900.472	20180
900.591	19974
900.711	20172
900.83	20130
900.95	20256
901.069	20176
901.189	19868
901.308	19658
901.427	19590
901.546	19613
901.665	19632
901.784	19734
901.904	19533
902.023	19468
902.141	19346
902.26	19190
902.379	19266
902.498	19263
902.617	19137
902.735	19240
902.854	19069
902.973	19031
903.091	18878
903.21	18882
903.328	18856
903.446	18696
903.565	18749
903.683	18677
903.801	18467
903.919	18627
904.038	18559
904.156	18494
904.274	18448
904.392	18388
904.51	18334
904.627	18410
904.745	18353
904.863	18414
904.981	18220
905.098	18190
905.216	17958
905.334	18155
905.451	18049
905.569	17912
905.686	18049
905.803	18045
905.921	17923
906.038	17958
906.155	17874
906.272	17745
906.389	17779
906.506	17596
906.623	17589
906.74	17532
906.857	17509
906.974	17497
907.091	17649
907.208	17657
907.324	17596
907.441	17398
907.557	17334
907.674	17330
907.79	17239
907.907	17273
908.023	17341
908.139	17337
908.256	17258
908.372	17273
908.488	17128
908.604	17071
908.72	17098
908.836	17060
908.952	16972
909.068	17037
909.184	17102
909.3	17143
909.415	17003
909.531	17022
909.647	16805
909.762	16675
909.878	16774
909.993	16672
910.108	16668
910.224	16668
910.339	16736
910.454	16653
910.57	16538
910.685	16550
910.8	16782
910.915	16664
911.03	16508
911.145	16421
911.259	16394
911.374	16337
911.489	16276
911.604	16166
911.718	15998
911.833	16059
911.947	15991
912.062	15903
912.176	16032
912.291	16116
912.405	16116
912.519	16337
912.633	16253
912.748	16090
912.862	15983
912.976	15975
913.09	15694
913.204	15892
913.318	15865
913.431	15915
913.545	15861
913.659	15888
913.772	15804
913.886	15739
914	15694
914.113	15690
914.226	15831
914.34	15808
914.453	15530
914.566	15739
914.68	15595
914.793	15526
914.906	15447
915.019	15302
915.132	15245
915.245	15283
915.358	15291
915.47	15340
915.583	15192
915.696	15313
915.809	15389
915.921	15435
916.034	15222
916.146	15146
916.259	15074
916.371	15146
916.483	15249
916.595	15161
916.708	15165
916.82	15176
916.932	15013
917.044	15100
917.156	14986
917.268	14899
917.38	14975
917.491	14910
917.603	14918
917.715	14952
917.826	14998
917.938	14880
918.049	14678
918.161	14880
918.272	14963
918.384	14975
918.495	14849
918.606	14708
918.717	14693
918.828	14758
918.939	14735
919.05	14602
919.161	14693
919.272	14522
919.383	14473
919.494	14686
919.604	14895
919.715	14670
919.826	14507
919.936	14674
920.047	14712
920.157	14651
920.267	14845
920.378	14610
920.488	14571
920.598	14830
920.708	14929
920.818	14750
920.928	14800
921.038	14906
921.148	14883
921.258	14537
921.368	14499
921.477	14404
921.587	14461
921.697	14237
921.806	14294
921.916	14275
922.025	14077
922.134	14001
922.244	13902
922.353	14035
922.462	13868
922.571	13776
922.68	13753
922.789	13651
922.898	13620
923.007	13582
923.116	13731
923.224	13685
923.333	13643
923.442	13567
923.55	13476
923.659	13594
923.767	13544
923.876	13460
923.984	13514
924.092	13411
924.201	13419
924.309	13411
924.417	13422
924.525	13331
924.633	13301
924.741	14107
924.849	13209
924.956	13240
925.064	13149
925.172	13027
925.279	12989
925.387	13088
925.494	13069
925.602	13217
925.709	13122
925.816	13034
925.924	13012
926.031	13152
926.138	13004
926.245	12996
926.352	12939
926.459	13034
926.566	13023
926.673	12913
926.779	12817
926.886	12916
926.993	12738
927.099	12715
927.206	12627
927.312	12589
927.419	12654
927.525	12673
927.631	12646
927.737	12566
927.843	12490
927.95	12452
928.056	12433
928.162	12460
928.267	12521
928.373	13209
928.479	12574
928.585	12228
928.69	12456
928.796	12414
928.901	12361
929.007	12194
929.112	12308
929.218	12243
929.323	12182
929.428	12197
929.533	12308
929.638	12015
929.743	12163
929.848	12171
929.953	12171
930.058	12030
930.163	11817
930.267	11809
930.372	11980
930.477	11836
930.581	12083
930.685	11912
930.79	11741
930.894	11809
930.998	11764
931.103	11908
931.207	11532
931.311	11429
931.415	11288
931.519	11048
931.623	11140
