Data from test_V78500241_1893.txt Node
Date: Fri Mar 25 15:54:54 CST 2022
User: usil
Spectrometer: V785-0024
Trigger mode: 0
Integration Time (sec): 4.000000E-1
Scans to average: 1
Nonlinearity correction enabled: false
Boxcar width: 0
Storing dark spectrum: false
XAxis mode: Wavelengths
Number of Pixels in Spectrum: 1024
>>>>>Begin Spectral Data<<<<<
801.071	28694
801.214	28744
801.356	28493
801.499	28360
801.641	28348
801.783	28333
801.926	28409
802.068	28421
802.211	28173
802.353	28272
802.496	28169
802.638	27907
802.78	28055
802.923	27914
803.065	27888
803.208	28044
803.35	28025
803.492	28078
803.635	28169
803.777	28013
803.919	28257
804.061	28599
804.204	28306
804.346	28215
804.488	28166
804.63	28204
804.773	28291
804.915	28242
805.057	28398
805.199	28173
805.341	28246
805.483	28443
805.626	28413
805.768	28253
805.91	28542
806.052	28500
806.194	28272
806.336	28615
806.478	28440
806.62	28451
806.762	28630
806.904	28774
807.046	28885
807.188	28847
807.33	28923
807.472	28850
807.614	28919
807.756	28866
807.898	28858
808.04	28752
808.182	28763
808.324	28702
808.465	28736
808.607	29052
808.749	29128
808.891	29200
809.033	29220
809.174	29140
809.316	29197
809.458	28957
809.6	29060
809.741	29315
809.883	29140
810.025	29410
810.166	29410
810.308	29345
810.45	29185
810.591	29303
810.733	29064
810.875	29159
811.016	29010
811.158	29109
811.299	29105
811.441	29189
811.582	29307
811.724	29124
811.865	29014
812.007	29086
812.148	29018
812.29	29033
812.431	29349
812.573	29497
812.714	29471
812.855	29615
812.997	29501
813.138	29870
813.279	29672
813.421	29425
813.562	29596
813.703	29387
813.845	29307
813.986	29090
814.127	29014
814.268	28896
814.41	28778
814.551	28835
814.692	28953
814.833	28733
814.974	28786
815.115	28801
815.256	28656
815.397	28630
815.539	28790
815.68	28649
815.821	28470
815.962	28485
816.103	28675
816.244	28333
816.385	28417
816.526	28356
816.666	28246
816.807	28029
816.948	28181
817.089	28367
817.23	28017
817.371	28032
817.512	28051
817.653	28021
817.793	28147
817.934	28177
818.075	28181
818.216	28265
818.356	27994
818.497	27975
818.638	27903
818.778	27736
818.919	27823
819.06	28021
819.2	27991
819.341	28188
819.481	28143
819.622	28379
819.762	28493
819.903	28379
820.043	28390
820.184	28211
820.324	28223
820.465	28318
820.605	28109
820.746	28223
820.886	28188
821.026	28268
821.167	28230
821.307	28375
821.447	28314
821.588	28112
821.728	27949
821.868	27720
822.008	27629
822.149	27679
822.289	27485
822.429	27389
822.569	27154
822.709	27329
822.849	27055
822.99	27116
823.13	27165
823.27	27013
823.41	26853
823.55	26906
823.69	26921
823.83	26834
823.97	26864
824.11	26826
824.25	26754
824.389	26693
824.529	26853
824.669	26842
824.809	27036
824.949	26834
825.089	26891
825.228	26834
825.368	26720
825.508	26678
825.648	26750
825.787	26655
825.927	26735
826.067	26629
826.206	26625
826.346	26781
826.485	26636
826.625	26659
826.765	26796
826.904	26655
827.044	26320
827.183	26507
827.323	26237
827.462	26457
827.601	26389
827.741	26366
827.88	26423
828.02	26320
828.159	26305
828.298	26278
828.437	26415
828.577	26332
828.716	26374
828.855	26271
828.994	26195
829.134	25868
829.273	26096
829.412	25940
829.551	25986
829.69	25959
829.829	26062
829.968	26100
830.107	26027
830.246	26054
830.385	25982
830.524	25917
830.663	25944
830.802	25837
830.941	25674
831.08	25731
831.219	25799
831.357	25742
831.496	25921
831.635	25567
831.774	25537
831.913	25559
832.051	25457
832.19	25400
832.329	25415
832.467	25343
832.606	25339
832.744	25278
832.883	25285
833.022	25270
833.16	25194
833.299	25445
833.437	25354
833.576	25392
833.714	25301
833.852	25502
833.991	25453
834.129	25377
834.267	25510
834.406	25460
834.544	25266
834.682	25335
834.821	25453
834.959	25537
835.097	25346
835.235	25392
835.373	25354
835.511	25403
835.65	25206
835.788	25225
835.926	25019
836.064	25023
836.202	25065
836.34	25190
836.478	25274
836.615	25194
836.753	25331
836.891	25255
837.029	25175
837.167	25225
837.305	25137
837.443	25110
837.58	25023
837.718	25080
837.856	24913
837.993	24951
838.131	24951
838.269	24939
838.406	24966
838.544	24905
838.681	24719
838.819	24601
838.956	24521
839.094	24486
839.231	24486
839.369	24681
839.506	24924
839.643	24856
839.781	24479
839.918	24490
840.055	24604
840.193	24536
840.33	24429
840.467	24452
840.604	24483
840.742	24673
840.879	24243
841.016	24296
841.153	24281
841.29	24551
841.427	24426
841.564	24414
841.701	24437
841.838	24273
841.975	24395
842.112	24319
842.249	24125
842.385	24228
842.522	24407
842.659	24213
842.796	24216
842.933	24171
843.069	24049
843.206	24091
843.343	24201
843.479	24190
843.616	24163
843.752	23897
843.889	23954
844.025	24114
844.162	23855
844.298	23923
844.435	23813
844.571	23901
844.708	24045
844.844	24015
844.98	23992
845.117	24026
845.253	23741
845.389	23691
845.525	23847
845.661	23737
845.798	23535
845.934	23741
846.07	23585
846.206	23726
846.342	23783
846.478	23611
846.614	23364
846.75	23372
846.886	23379
847.022	23501
847.158	23368
847.294	23341
847.429	23372
847.565	23520
847.701	23604
847.837	23037
847.972	23006
848.108	23212
848.244	23113
848.379	22938
848.515	22949
848.65	22927
848.786	22968
848.921	23029
849.057	23056
849.192	22915
849.328	22991
849.463	22919
849.598	22839
849.734	22889
849.869	22835
850.004	22740
850.14	22767
850.275	22797
850.41	22725
850.545	22691
850.68	22744
850.815	22729
850.95	22744
851.085	22790
851.22	22820
851.355	22691
851.49	22812
851.625	22630
851.76	22698
851.895	22679
852.03	22596
852.165	22706
852.299	22771
852.434	22759
852.569	22908
852.703	22694
852.838	22793
852.973	22843
853.107	22755
853.242	22607
853.376	22508
853.511	22577
853.645	22466
853.78	22687
853.914	22641
854.048	22440
854.183	22470
854.317	22504
854.451	22717
854.585	22500
854.72	22497
854.854	22535
854.988	22474
855.122	22413
855.256	22459
855.39	22519
855.524	22683
855.658	22611
855.792	22641
855.926	22561
856.06	22637
856.194	22569
856.327	22531
856.461	22443
856.595	22409
856.729	22527
856.862	22672
856.996	22588
857.13	22694
857.263	22725
857.397	22573
857.53	22432
857.664	22607
857.797	22577
857.931	22759
858.064	22497
858.197	22683
858.331	22440
858.464	22527
858.597	22470
858.731	22417
858.864	22504
858.997	22447
859.13	22599
859.263	22561
859.396	22565
859.529	22557
859.662	22440
859.795	22580
859.928	22641
860.061	22679
860.194	22713
860.327	22584
860.46	22538
860.592	22675
860.725	22752
860.858	22672
860.99	22500
861.123	22527
861.256	22459
861.388	22538
861.521	23254
861.653	22485
861.786	22200
861.918	22421
862.05	22428
862.183	22508
862.315	22459
862.447	22508
862.58	22497
862.712	22299
862.844	22150
862.976	22447
863.108	22333
863.24	22729
863.372	22207
863.504	22200
863.636	22344
863.768	22318
863.9	22299
864.032	22192
864.164	22185
864.296	22291
864.428	22333
864.559	22329
864.691	22310
864.823	22139
864.954	22169
865.086	22128
865.217	22162
865.349	21972
865.48	22112
865.612	22166
865.743	22303
865.875	22185
866.006	22090
866.137	22090
866.269	22025
866.4	22078
866.531	22093
866.662	22162
866.793	22135
866.924	22051
867.055	22143
867.186	22059
867.317	21979
867.448	22002
867.579	22025
867.71	21941
867.841	21922
867.972	22131
868.103	22093
868.233	22013
868.364	22067
868.495	22188
868.625	22363
868.756	22303
868.886	22333
869.017	22158
869.147	22512
869.278	22341
869.408	22409
869.539	22268
869.669	22436
869.799	22207
869.929	22310
870.06	22485
870.19	22554
870.32	22512
870.45	22634
870.58	22843
870.71	22866
870.84	22828
870.97	22740
871.1	22687
871.23	22934
871.36	22957
871.489	22786
871.619	22809
871.749	22908
871.879	22927
872.008	22869
872.138	22831
872.267	22881
872.397	22786
872.526	22668
872.656	22759
872.785	22900
872.915	22896
873.044	22976
873.173	22877
873.303	22915
873.432	22812
873.561	22942
873.69	22946
873.819	22904
873.948	23056
874.077	22980
874.206	22847
874.335	22927
874.464	23010
874.593	23140
874.722	23170
874.851	23132
874.979	23185
875.108	23189
875.237	23041
875.365	23014
875.494	23048
875.623	23235
875.751	23178
875.88	23258
876.008	23216
876.136	23227
876.265	23520
876.393	23554
876.521	23524
876.65	23665
876.778	23520
876.906	23402
877.034	23531
877.162	23474
877.29	23558
877.418	23493
877.546	23376
877.674	23482
877.802	23448
877.93	23433
878.058	23425
878.185	23303
878.313	23455
878.441	23459
878.568	23212
878.696	23440
878.824	23455
878.951	23391
879.079	23592
879.206	23802
879.333	23672
879.461	23554
879.588	23604
879.715	23604
879.842	23707
879.97	23501
880.097	23250
880.224	23185
880.351	23280
880.478	23273
880.605	23311
880.732	23239
880.859	23566
880.986	23383
881.112	23246
881.239	23056
881.366	23014
881.493	23003
881.619	22877
881.746	22843
881.872	22816
881.999	22968
882.125	22828
882.252	22987
882.378	22896
882.505	22938
882.631	22706
882.757	22561
882.883	22672
883.01	22664
883.136	22443
883.262	22371
883.388	22379
883.514	22599
883.64	22561
883.766	22409
883.892	22303
884.018	22348
884.143	22504
884.269	22565
884.395	22337
884.52	22044
884.646	22204
884.772	21975
884.897	22055
885.023	22150
885.148	22291
885.274	22299
885.399	22200
885.524	22234
885.65	22181
885.775	22070
885.9	22143
886.025	22314
886.15	22219
886.275	22162
886.4	22150
886.525	22188
886.65	22051
886.775	22048
886.9	22204
887.025	22287
887.149	22158
887.274	22017
887.399	21808
887.523	21804
887.648	21888
887.773	21641
887.897	21968
888.021	22086
888.146	21915
888.27	21987
888.395	21998
888.519	21941
888.643	21808
888.767	22036
888.891	21873
889.015	21648
889.139	21797
889.263	21587
889.387	21785
889.511	21838
889.635	21812
889.759	21720
889.883	21675
890.006	21606
890.13	21625
890.254	21667
890.377	21587
890.501	21538
890.624	21492
890.748	21545
890.871	21473
890.995	21310
891.118	21154
891.241	21138
891.364	21336
891.488	21348
891.611	21214
891.734	21222
891.857	21317
891.98	21233
892.103	21443
892.226	21287
892.349	21116
892.471	21077
892.594	21161
892.717	21173
892.839	21169
892.962	21028
893.085	21188
893.207	21154
893.33	21013
893.452	21032
893.575	21207
893.697	20998
893.819	21138
893.941	21310
894.064	21184
894.186	21150
894.308	21032
894.43	21146
894.552	21241
894.674	21241
894.796	21017
894.918	21135
895.04	21036
895.161	21062
895.283	21184
895.405	21154
895.526	21157
895.648	21108
895.769	21142
895.891	21195
896.012	21192
896.134	21180
896.255	21108
896.376	21230
896.498	21131
896.619	21085
896.74	21116
896.861	21119
896.982	21344
897.103	21572
897.224	21378
897.345	21359
897.466	21237
897.587	21241
897.708	21363
897.828	21313
897.949	21252
898.07	21279
898.19	21233
898.311	21283
898.431	21256
898.552	21245
898.672	21321
898.792	21363
898.913	21412
899.033	21176
899.153	21081
899.273	21062
899.393	21032
899.513	21150
899.633	21058
899.753	21077
899.873	20971
899.993	21081
900.113	20948
900.232	21058
900.352	20861
900.472	20876
900.591	20697
900.711	20815
900.83	20689
900.95	20849
901.069	20861
901.189	20663
901.308	20480
901.427	20305
901.546	20412
901.665	20427
901.784	20396
901.904	20149
902.023	20058
902.141	19913
902.26	19894
902.379	19955
902.498	19928
902.617	19826
902.735	19909
902.854	19830
902.973	19833
903.091	19578
903.21	19510
903.328	19662
903.446	19457
903.565	19320
903.683	19324
903.801	19232
903.919	19301
904.038	19209
904.156	19053
904.274	19316
904.392	19015
904.51	19072
904.627	19050
904.745	19152
904.863	19095
904.981	18867
905.098	18783
905.216	18711
905.334	18878
905.451	18882
905.569	18707
905.686	18806
905.803	18677
905.921	18486
906.038	18540
906.155	18547
906.272	18445
906.389	18418
906.506	18330
906.623	18391
906.74	18319
906.857	18209
906.974	18102
907.091	18399
907.208	18262
907.324	18380
907.441	18300
907.557	17996
907.674	17980
907.79	17980
907.907	17931
908.023	17904
908.139	18106
908.256	17859
908.372	17916
908.488	17859
908.604	17657
908.72	17737
908.836	17600
908.952	17726
909.068	17783
909.184	17893
909.3	17615
909.415	17764
909.531	17699
909.647	17524
909.762	17425
909.878	17402
909.993	17353
910.108	17345
910.224	17364
910.339	17337
910.454	17334
910.57	17170
910.685	17174
910.8	17452
910.915	17402
911.03	17174
911.145	17037
911.259	16938
911.374	17029
911.489	16976
911.604	16713
911.718	16672
911.833	16740
911.947	16683
912.062	16504
912.176	16774
912.291	16702
912.405	16706
912.519	16797
912.633	16900
912.748	16850
912.862	16584
912.976	16550
913.09	16459
913.204	16443
913.318	16474
913.431	16664
913.545	16550
913.659	16462
913.772	16462
913.886	16306
914	16344
914.113	16417
914.226	16333
914.34	16314
914.453	16192
914.566	16310
914.68	16192
914.793	16082
914.906	16029
915.019	15953
915.132	15934
915.245	15922
915.358	15846
915.47	15895
915.583	15892
915.696	15930
915.809	15949
915.921	15964
916.034	15857
916.146	15831
916.259	15766
916.371	15850
916.483	15838
916.595	15709
916.708	15698
916.82	15671
916.932	15671
917.044	15591
917.156	15618
917.268	15599
917.38	15580
917.491	15500
917.603	15469
917.715	15515
917.826	15614
917.938	15378
918.049	15336
918.161	15447
918.272	15477
918.384	15557
918.495	15367
918.606	15313
918.717	15119
918.828	15397
918.939	15199
919.05	15123
919.161	15302
919.272	15009
919.383	15108
919.494	15252
919.604	15431
919.715	15245
919.826	15081
919.936	15207
920.047	15256
920.157	15245
920.267	15466
920.378	15211
920.488	15112
920.598	15450
920.708	15447
920.818	15370
920.928	15416
921.038	15492
921.148	15439
921.258	15195
921.368	15077
921.477	14868
921.587	14876
921.697	14781
921.806	14872
921.916	14781
922.025	14667
922.134	14526
922.244	14461
922.353	14674
922.462	14355
922.571	14351
922.68	14263
922.789	14183
922.898	14282
923.007	14180
923.116	14305
923.224	14218
923.333	14138
923.442	14111
923.55	14111
923.659	14035
923.767	14062
923.876	13986
923.984	13959
924.092	13887
924.201	14016
924.309	13944
924.417	13849
924.525	13841
924.633	13951
924.741	14537
924.849	13655
924.956	13708
925.064	13647
925.172	13636
925.279	13609
925.387	13643
925.494	13632
925.602	13685
925.709	13651
925.816	13552
925.924	13502
926.031	13563
926.138	13518
926.245	13647
926.352	13464
926.459	13559
926.566	13605
926.673	13480
926.779	13369
926.886	13297
926.993	13156
927.099	13149
927.206	13145
927.312	13038
927.419	13187
927.525	13164
927.631	13129
927.737	13012
927.843	12863
927.95	12852
928.056	12947
928.162	12901
928.267	13038
928.373	13632
928.479	12996
928.585	12787
928.69	12916
928.796	12913
928.901	12741
929.007	12726
929.112	12821
929.218	12715
929.323	12639
929.428	12669
929.533	12783
929.638	12582
929.743	12585
929.848	12601
929.953	12528
930.058	12467
930.163	12266
930.267	12410
930.372	12441
930.477	12292
930.581	12517
930.685	12334
930.79	12228
930.894	12213
930.998	12140
931.103	12403
931.207	11878
931.311	11908
931.415	11741
931.519	11570
931.623	11528
