Data from test_V78500241_2300.txt Node
Date: Fri Mar 25 15:57:44 CST 2022
User: usil
Spectrometer: V785-0024
Trigger mode: 0
Integration Time (sec): 4.000000E-1
Scans to average: 1
Nonlinearity correction enabled: false
Boxcar width: 0
Storing dark spectrum: false
XAxis mode: Wavelengths
Number of Pixels in Spectrum: 1024
>>>>>Begin Spectral Data<<<<<
801.071	28980
801.214	29006
801.356	28877
801.499	28843
801.641	28691
801.783	28668
801.926	28679
802.068	28706
802.211	28687
802.353	28615
802.496	28424
802.638	28405
802.78	28531
802.923	28478
803.065	28337
803.208	28489
803.35	28440
803.492	28489
803.635	28634
803.777	28409
803.919	28607
804.061	28877
804.204	28717
804.346	28546
804.488	28550
804.63	28611
804.773	28481
804.915	28710
805.057	28740
805.199	28679
805.341	28797
805.483	28801
805.626	28767
805.768	28656
805.91	28733
806.052	28972
806.194	28717
806.336	28961
806.478	28805
806.62	28831
806.762	28923
806.904	28957
807.046	29391
807.188	29337
807.33	29315
807.472	29318
807.614	29307
807.756	29292
807.898	29189
808.04	29041
808.182	29117
808.324	29143
808.465	29280
808.607	29433
808.749	29570
808.891	29665
809.033	29722
809.174	29581
809.316	29493
809.458	29642
809.6	29463
809.741	29665
809.883	29722
810.025	29866
810.166	29817
810.308	29977
810.45	29733
810.591	29756
810.733	29703
810.875	29505
811.016	29493
811.158	29551
811.299	29783
811.441	29642
811.582	29779
811.724	29535
811.865	29634
812.007	29619
812.148	29653
812.29	29646
812.431	29798
812.573	29958
812.714	29942
812.855	30171
812.997	30220
813.138	30323
813.279	30209
813.421	30125
813.562	30072
813.703	29817
813.845	29748
813.986	29551
814.127	29375
814.268	29364
814.41	29318
814.551	29315
814.692	29307
814.833	29181
814.974	29197
815.115	29231
815.256	29132
815.397	29136
815.539	29178
815.68	29151
815.821	29029
815.962	29143
816.103	29124
816.244	29029
816.385	28965
816.526	28873
816.666	28672
816.807	28538
816.948	28698
817.089	28569
817.23	28603
817.371	28557
817.512	28653
817.653	28577
817.793	28512
817.934	28550
818.075	28797
818.216	28584
818.356	28569
818.497	28481
818.638	28265
818.778	28432
818.919	28447
819.06	28447
819.2	28485
819.341	28584
819.481	28565
819.622	28885
819.762	28961
819.903	28923
820.043	28831
820.184	28713
820.324	28721
820.465	28786
820.605	28755
820.746	28717
820.886	28542
821.026	28782
821.167	28729
821.307	28820
821.447	28626
821.588	28561
821.728	28451
821.868	28314
822.008	28192
822.149	28185
822.289	28188
822.429	27816
822.569	27774
822.709	27823
822.849	27530
822.99	27572
823.13	27690
823.27	27625
823.41	27306
823.55	27382
823.69	27367
823.83	27450
823.97	27511
824.11	27218
824.25	27127
824.389	27211
824.529	27294
824.669	27192
824.809	27416
824.949	27382
825.089	27268
825.228	27359
825.368	27142
825.508	27218
825.648	27199
825.787	27093
825.927	27272
826.067	27036
826.206	27157
826.346	27146
826.485	27302
826.625	27169
826.765	27287
826.904	27226
827.044	26823
827.183	26944
827.323	26861
827.462	26937
827.601	27005
827.741	26838
827.88	26914
828.02	26811
828.159	26929
828.298	26940
828.437	26830
828.577	26716
828.716	26986
828.855	26788
828.994	26575
829.134	26503
829.273	26651
829.412	26590
829.551	26423
829.69	26465
829.829	26583
829.968	26537
830.107	26579
830.246	26495
830.385	26450
830.524	26518
830.663	26393
830.802	26286
830.941	26119
831.08	26050
831.219	26282
831.357	26259
831.496	26328
831.635	26130
831.774	26126
831.913	26027
832.051	25913
832.19	25890
832.329	25928
832.467	25826
832.606	25841
832.744	25738
832.883	25856
833.022	25883
833.16	25746
833.299	25807
833.437	25795
833.576	25963
833.714	25940
833.852	26035
833.991	25902
834.129	26020
834.267	25951
834.406	25753
834.544	25696
834.682	26031
834.821	25765
834.959	25917
835.097	25795
835.235	25932
835.373	25731
835.511	25902
835.65	25731
835.788	25643
835.926	25681
836.064	25487
836.202	25514
836.34	25791
836.478	25837
836.615	25708
836.753	25696
836.891	25791
837.029	25556
837.167	25628
837.305	25487
837.443	25499
837.58	25476
837.718	25696
837.856	25605
837.993	25563
838.131	25525
838.269	25308
838.406	25400
838.544	25289
838.681	25118
838.819	25057
838.956	25088
839.094	24878
839.231	25023
839.369	25255
839.506	25396
839.643	25320
839.781	24951
839.918	24958
840.055	25015
840.193	24920
840.33	24973
840.467	24958
840.604	24947
840.742	25160
840.879	24688
841.016	24795
841.153	24901
841.29	25027
841.427	24871
841.564	24871
841.701	24802
841.838	24894
841.975	24829
842.112	24802
842.249	24681
842.385	24658
842.522	24738
842.659	24696
842.796	24612
842.933	24776
843.069	24525
843.206	24544
843.343	24677
843.479	24597
843.616	24654
843.752	24414
843.889	24357
844.025	24536
844.162	24376
844.298	24521
844.435	24486
844.571	24357
844.708	24445
844.844	24620
844.98	24475
845.117	24517
845.253	24342
845.389	24251
845.525	24338
845.661	24224
845.798	24155
845.934	24247
846.07	24117
846.206	24209
846.342	24296
846.478	24121
846.614	23824
846.75	23794
846.886	23813
847.022	23935
847.158	23824
847.294	23767
847.429	23950
847.565	23775
847.701	24167
847.837	23512
847.972	23653
848.108	23596
848.244	23649
848.379	23440
848.515	23421
848.65	23395
848.786	23444
848.921	23440
849.057	23551
849.192	23436
849.328	23372
849.463	23414
849.598	23402
849.734	23326
849.869	23277
850.004	23258
850.14	23151
850.275	23102
850.41	23121
850.545	23124
850.68	23132
850.815	23105
850.95	23227
851.085	23383
851.22	23303
851.355	23231
851.49	23273
851.625	23189
851.76	23166
851.895	23102
852.03	23052
852.165	23170
852.299	23204
852.434	23170
852.569	23189
852.703	23242
852.838	23174
852.973	23166
853.107	23250
853.242	23223
853.376	22930
853.511	23056
853.645	22953
853.78	23128
853.914	22980
854.048	23010
854.183	22946
854.317	22984
854.451	23117
854.585	22908
854.72	23075
854.854	23113
854.988	23018
855.122	22976
855.256	22991
855.39	22965
855.524	22999
855.658	23060
855.792	22961
855.926	22908
856.06	22980
856.194	22984
856.327	23014
856.461	22904
856.595	22965
856.729	23094
856.862	23117
856.996	23018
857.13	22968
857.263	23060
857.397	23025
857.53	22904
857.664	23117
857.797	23071
857.931	23003
858.064	22930
858.197	23086
858.331	23117
858.464	22843
858.597	22938
858.731	22976
858.864	22828
858.997	22934
859.13	23029
859.263	22953
859.396	23155
859.529	23025
859.662	22877
859.795	22873
859.928	22923
860.061	23200
860.194	23151
860.327	23105
860.46	23079
860.592	23094
860.725	23117
860.858	23052
860.99	23117
861.123	22995
861.256	22961
861.388	22908
861.521	23668
861.653	22885
861.786	22748
861.918	22854
862.05	22812
862.183	22824
862.315	22858
862.447	22980
862.58	23041
862.712	22717
862.844	22672
862.976	22679
863.108	22759
863.24	23227
863.372	22752
863.504	22850
863.636	22748
863.768	22820
863.9	22763
864.032	22755
864.164	22687
864.296	22683
864.428	22877
864.559	22740
864.691	22831
864.823	22763
864.954	22698
865.086	22706
865.217	22618
865.349	22573
865.48	22592
865.612	22573
865.743	22729
865.875	22485
866.006	22569
866.137	22649
866.269	22641
866.4	22489
866.531	22626
866.662	22459
866.793	22424
866.924	22474
867.055	22470
867.186	22500
867.317	22630
867.448	22459
867.579	22561
867.71	22531
867.841	22322
867.972	22630
868.103	22405
868.233	22577
868.364	22421
868.495	22729
868.625	22733
868.756	22980
868.886	22774
869.017	22755
869.147	22755
869.278	22866
869.408	22649
869.539	22786
869.669	22702
869.799	22820
869.929	22892
870.06	22850
870.19	22987
870.32	22999
870.45	23006
870.58	23033
870.71	23212
870.84	23208
870.97	23090
871.1	23048
871.23	23322
871.36	23463
871.489	23231
871.619	23345
871.749	23337
871.879	23425
872.008	23520
872.138	23448
872.267	23265
872.397	23124
872.526	23117
872.656	23162
872.785	23185
872.915	23356
873.044	23478
873.173	23376
873.303	23402
873.432	23391
873.561	23520
873.69	23383
873.819	23254
873.948	23467
874.077	23387
874.206	23349
874.335	23356
874.464	23459
874.593	23562
874.722	23505
874.851	23554
874.979	23657
875.108	23562
875.237	23638
875.365	23471
875.494	23592
875.623	23642
875.751	23497
875.88	23562
876.008	23623
876.136	23779
876.265	23942
876.393	24205
876.521	23958
876.65	23996
876.778	23977
876.906	23927
877.034	23984
877.162	23897
877.29	23805
877.418	23824
877.546	23885
877.674	23863
877.802	23832
877.93	23923
878.058	23767
878.185	23973
878.313	23771
878.441	23912
878.568	23661
878.696	23866
878.824	23988
878.951	23950
879.079	24053
879.206	24136
879.333	24034
879.461	23961
879.588	23824
879.715	24148
879.842	24281
879.97	23996
880.097	23649
880.224	23642
880.351	23726
880.478	23779
880.605	23528
880.732	23653
880.859	23946
880.986	23623
881.112	23653
881.239	23501
881.366	23353
881.493	23261
881.619	23227
881.746	23231
881.872	23296
881.999	23349
882.125	23170
882.252	23159
882.378	23162
882.505	23258
882.631	23060
882.757	22984
882.883	23098
883.01	22919
883.136	22805
883.262	22828
883.388	22869
883.514	22919
883.64	22953
883.766	22839
883.892	22721
884.018	22679
884.143	22877
884.269	22946
884.395	22478
884.52	22508
884.646	22618
884.772	22493
884.897	22497
885.023	22592
885.148	22694
885.274	22656
885.399	22561
885.524	22447
885.65	22634
885.775	22599
885.9	22554
886.025	22713
886.15	22493
886.275	22451
886.4	22443
886.525	22535
886.65	22424
886.775	22424
886.9	22584
887.025	22713
887.149	22607
887.274	22455
887.399	22253
887.523	22299
887.648	22280
887.773	22162
887.897	22310
888.021	22306
888.146	22261
888.27	22542
888.395	22424
888.519	22405
888.643	22173
888.767	22173
888.891	22219
889.015	21987
889.139	22101
889.263	22162
889.387	22207
889.511	22333
889.635	22093
889.759	22074
889.883	22059
890.006	22097
890.13	22124
890.254	22162
890.377	22044
890.501	21945
890.624	21778
890.748	21842
890.871	21755
890.995	21679
891.118	21595
891.241	21606
891.364	21622
891.488	21819
891.611	21675
891.734	21717
891.857	21701
891.98	21610
892.103	21679
892.226	21709
892.349	21450
892.471	21389
892.594	21606
892.717	21515
892.839	21443
892.962	21488
893.085	21576
893.207	21583
893.33	21294
893.452	21496
893.575	21466
893.697	21462
893.819	21713
893.941	21618
894.064	21583
894.186	21481
894.308	21401
894.43	21564
894.552	21648
894.674	21648
894.796	21412
894.918	21428
895.04	21462
895.161	21542
895.283	21488
895.405	21534
895.526	21515
895.648	21496
895.769	21542
895.891	21477
896.012	21507
896.134	21507
896.255	21469
896.376	21374
896.498	21523
896.619	21542
896.74	21557
896.861	21557
896.982	21720
897.103	21903
897.224	21694
897.345	21682
897.466	21481
897.587	21690
897.708	21762
897.828	21637
897.949	21713
898.07	21511
898.19	21641
898.311	21793
898.431	21603
898.552	21701
898.672	21698
898.792	21812
898.913	21759
899.033	21610
899.153	21458
899.273	21233
899.393	21454
899.513	21458
899.633	21462
899.753	21507
899.873	21363
899.993	21477
900.113	21382
900.232	21370
900.352	21291
900.472	21211
900.591	21089
900.711	21188
900.83	21135
900.95	21237
901.069	21367
901.189	21039
901.308	20876
901.427	20625
901.546	20731
901.665	20842
901.784	20735
901.904	20511
902.023	20568
902.141	20210
902.26	20313
902.379	20305
902.498	20229
902.617	20180
902.735	20267
902.854	20157
902.973	20054
903.091	19795
903.21	19894
903.328	19906
903.446	19807
903.565	19609
903.683	19742
903.801	19590
903.919	19616
904.038	19525
904.156	19403
904.274	19578
904.392	19396
904.51	19419
904.627	19441
904.745	19499
904.863	19514
904.981	19183
905.098	19012
905.216	19034
905.334	19088
905.451	19175
905.569	19072
905.686	19072
905.803	19038
905.921	18840
906.038	18939
906.155	19023
906.272	18772
906.389	18764
906.506	18749
906.623	18635
906.74	18490
906.857	18521
906.974	18551
907.091	18608
907.208	18817
907.324	18627
907.441	18620
907.557	18273
907.674	18323
907.79	18308
907.907	18311
908.023	18239
908.139	18281
908.256	18304
908.372	18178
908.488	18083
908.604	18026
908.72	18117
908.836	18095
908.952	18026
909.068	17980
909.184	18213
909.3	17927
909.415	17961
909.531	17965
909.647	17863
909.762	17668
909.878	17726
909.993	17710
910.108	17729
910.224	17726
910.339	17646
910.454	17535
910.57	17505
910.685	17444
910.8	17630
910.915	17619
911.03	17558
911.145	17356
911.259	17227
911.374	17326
911.489	17155
911.604	17140
911.718	17067
911.833	16957
911.947	16896
912.062	16850
912.176	16961
912.291	16953
912.405	16987
912.519	17231
912.633	17299
912.748	17022
912.862	16942
912.976	16843
913.09	16611
913.204	16854
913.318	16839
913.431	16976
913.545	16965
913.659	16847
913.772	16778
913.886	16584
914	16538
914.113	16710
914.226	16752
914.34	16698
914.453	16561
914.566	16622
914.68	16451
914.793	16424
914.906	16417
915.019	16185
915.132	16139
915.245	16090
915.358	16162
915.47	16109
915.583	16173
915.696	16150
915.809	16177
915.921	16257
916.034	16181
916.146	16059
916.259	16055
916.371	16169
916.483	16101
916.595	16032
916.708	15941
916.82	16044
916.932	15937
917.044	15918
917.156	15911
917.268	15774
917.38	15838
917.491	15823
917.603	15766
917.715	15781
917.826	15949
917.938	15682
918.049	15644
918.161	15690
918.272	15873
918.384	15816
918.495	15759
918.606	15519
918.717	15542
918.828	15584
918.939	15572
919.05	15401
919.161	15488
919.272	15374
919.383	15298
919.494	15603
919.604	15789
919.715	15561
919.826	15447
919.936	15443
920.047	15431
920.157	15462
920.267	15568
920.378	15412
920.488	15416
920.598	15656
920.708	15633
920.818	15606
920.928	15580
921.038	15785
921.148	15766
921.258	15466
921.368	15351
921.477	15256
921.587	15142
921.697	15055
921.806	15298
921.916	15047
922.025	14857
922.134	14796
922.244	14712
922.353	14830
922.462	14571
922.571	14663
922.68	14530
922.789	14404
922.898	14446
923.007	14454
923.116	14412
923.224	14370
923.333	14454
923.442	14351
923.55	14282
923.659	14286
923.767	14381
923.876	14202
923.984	14282
924.092	14161
924.201	14199
924.309	14259
924.417	14153
924.525	13997
924.633	14035
924.741	15009
924.849	13909
924.956	14050
925.064	13871
925.172	13734
925.279	13784
925.387	13795
925.494	13868
925.602	13959
925.709	13917
925.816	13704
925.924	13860
926.031	13894
926.138	13723
926.245	13780
926.352	13605
926.459	13799
926.566	13811
926.673	13655
926.779	13624
926.886	13597
926.993	13445
927.099	13339
927.206	13335
927.312	13324
927.419	13377
927.525	13354
927.631	13358
927.737	13282
927.843	13129
927.95	13122
928.056	13217
928.162	13171
928.267	13255
928.373	13727
928.479	13206
928.585	12958
928.69	13126
928.796	13171
928.901	13053
929.007	12772
929.112	13050
929.218	12901
929.323	12913
929.428	12886
929.533	12985
929.638	12772
929.743	12856
929.848	12844
929.953	12753
930.058	12726
930.163	12418
930.267	12627
930.372	12684
930.477	12536
930.581	12760
930.685	12570
930.79	12395
930.894	12395
930.998	12300
931.103	12585
931.207	12155
931.311	11980
931.415	12011
931.519	11764
931.623	11779
