Data from test_V78500241_401.txt Node
Date: Fri Mar 25 15:44:34 CST 2022
User: usil
Spectrometer: V785-0024
Trigger mode: 0
Integration Time (sec): 4.000000E-1
Scans to average: 1
Nonlinearity correction enabled: false
Boxcar width: 0
Storing dark spectrum: false
XAxis mode: Wavelengths
Number of Pixels in Spectrum: 1024
>>>>>Begin Spectral Data<<<<<
801.071	28668
801.214	28554
801.356	28352
801.499	28344
801.641	28185
801.783	28257
801.926	28204
802.068	28143
802.211	28192
802.353	28044
802.496	27903
802.638	27846
802.78	27804
802.923	27781
803.065	27819
803.208	27747
803.35	27846
803.492	27838
803.635	28013
803.777	27914
803.919	27846
804.061	28352
804.204	27994
804.346	27857
804.488	27914
804.63	27960
804.773	27949
804.915	27991
805.057	28063
805.199	27964
805.341	28074
805.483	28036
805.626	28067
805.768	27968
805.91	27972
806.052	27956
806.194	27953
806.336	28135
806.478	28093
806.62	28109
806.762	28200
806.904	28379
807.046	28516
807.188	28508
807.33	28500
807.472	28527
807.614	28341
807.756	28512
807.898	28299
808.04	28246
808.182	28314
808.324	28223
808.465	28337
808.607	28432
808.749	28675
808.891	28649
809.033	28873
809.174	28869
809.316	28668
809.458	28744
809.6	28721
809.741	28771
809.883	28790
810.025	28862
810.166	28915
810.308	28911
810.45	28961
810.591	28858
810.733	28721
810.875	28592
811.016	28573
811.158	28569
811.299	28793
811.441	28805
811.582	28930
811.724	28577
811.865	28645
812.007	28557
812.148	28599
812.29	28634
812.431	28786
812.573	29105
812.714	29124
812.855	29231
812.997	29334
813.138	29360
813.279	29345
813.421	29109
813.562	29075
813.703	29174
813.845	28896
813.986	28599
814.127	28401
814.268	28318
814.41	28337
814.551	28291
814.692	28291
814.833	28287
814.974	28234
815.115	28325
815.256	28204
815.397	28109
815.539	28204
815.68	28158
815.821	28013
815.962	28116
816.103	28051
816.244	27987
816.385	27930
816.526	27892
816.666	27614
816.807	27561
816.948	27660
817.089	27728
817.23	27743
817.371	27671
817.512	27488
817.653	27641
817.793	27458
817.934	27435
818.075	27443
818.216	27599
818.356	27530
818.497	27443
818.638	27325
818.778	27275
818.919	27416
819.06	27389
819.2	27397
819.341	27530
819.481	27401
819.622	27759
819.762	27869
819.903	27865
820.043	27633
820.184	27679
820.324	27576
820.465	27747
820.605	27629
820.746	27549
820.886	27420
821.026	27496
821.167	27469
821.307	27610
821.447	27549
821.588	27458
821.728	27416
821.868	27077
822.008	27013
822.149	26975
822.289	26857
822.429	26644
822.569	26598
822.709	26541
822.849	26575
822.99	26495
823.13	26400
823.27	26514
823.41	26393
823.55	26065
823.69	26355
823.83	26256
823.97	26199
824.11	25982
824.25	25890
824.389	26031
824.529	26115
824.669	26012
824.809	26267
824.949	26206
825.089	26103
825.228	26180
825.368	25936
825.508	26035
825.648	25894
825.787	26035
825.927	25909
826.067	25856
826.206	25811
826.346	25925
826.485	25936
826.625	25906
826.765	26050
826.904	25875
827.044	25674
827.183	25818
827.323	25552
827.462	25769
827.601	25540
827.741	25537
827.88	25540
828.02	25571
828.159	25563
828.298	25715
828.437	25639
828.577	25506
828.716	25575
828.855	25521
828.994	25453
829.134	25228
829.273	25373
829.412	25217
829.551	25080
829.69	25171
829.829	25369
829.968	25304
830.107	25270
830.246	25145
830.385	25076
830.524	25080
830.663	25038
830.802	24913
830.941	24749
831.08	24878
831.219	24939
831.357	24920
831.496	24996
831.635	24806
831.774	24631
831.913	24738
832.051	24631
832.19	24661
832.329	24623
832.467	24418
832.606	24407
832.744	24399
832.883	24441
833.022	24486
833.16	24475
833.299	24456
833.437	24551
833.576	24616
833.714	24422
833.852	24578
833.991	24574
834.129	24684
834.267	24654
834.406	24486
834.544	24464
834.682	24517
834.821	24471
834.959	24582
835.097	24353
835.235	24479
835.373	24357
835.511	24445
835.65	24433
835.788	24323
835.926	24133
836.064	24007
836.202	24148
836.34	24235
836.478	24388
836.615	24262
836.753	24201
836.891	24471
837.029	24422
837.167	24159
837.305	24247
837.443	24159
837.58	24106
837.718	24289
837.856	24167
837.993	24045
838.131	24148
838.269	23984
838.406	24045
838.544	23984
838.681	23707
838.819	23729
838.956	23642
839.094	23573
839.231	23581
839.369	23824
839.506	24079
839.643	23904
839.781	23615
839.918	23589
840.055	23535
840.193	23463
840.33	23531
840.467	23482
840.604	23566
840.742	23748
840.879	23376
841.016	23505
841.153	23436
841.29	23596
841.427	23429
841.564	23589
841.701	23398
841.838	23433
841.975	23440
842.112	23398
842.249	23330
842.385	23311
842.522	23349
842.659	23315
842.796	23147
842.933	23220
843.069	23235
843.206	23178
843.343	23208
843.479	23185
843.616	23288
843.752	23060
843.889	23067
844.025	23166
844.162	22980
844.298	23048
844.435	23006
844.571	22782
844.708	23025
844.844	23117
844.98	23136
845.117	22980
845.253	22908
845.389	22816
845.525	22858
845.661	22744
845.798	22603
845.934	22782
846.07	22634
846.206	22710
846.342	22801
846.478	22672
846.614	22470
846.75	22356
846.886	22398
847.022	22409
847.158	22432
847.294	22375
847.429	22470
847.565	22352
847.701	22679
847.837	22120
847.972	22124
848.108	22242
848.244	22067
848.379	22055
848.515	21991
848.65	21998
848.786	21888
848.921	21994
849.057	22128
849.192	22109
849.328	22055
849.463	21968
849.598	21869
849.734	21857
849.869	21850
850.004	21778
850.14	21648
850.275	21747
850.41	21633
850.545	21641
850.68	21633
850.815	21838
850.95	21682
851.085	21819
851.22	21819
851.355	21686
851.49	21644
851.625	21724
851.76	21686
851.895	21580
852.03	21747
852.165	21644
852.299	21751
852.434	21800
852.569	21762
852.703	21606
852.838	21831
852.973	21804
853.107	21838
853.242	21641
853.376	21496
853.511	21477
853.645	21393
853.78	21637
853.914	21431
854.048	21416
854.183	21507
854.317	21549
854.451	21637
854.585	21485
854.72	21462
854.854	21561
854.988	21424
855.122	21530
855.256	21424
855.39	21496
855.524	21671
855.658	21603
855.792	21488
855.926	21515
856.06	21576
856.194	21618
856.327	21447
856.461	21496
856.595	21526
856.729	21485
856.862	21561
856.996	21595
857.13	21644
857.263	21515
857.397	21496
857.53	21473
857.664	21606
857.797	21656
857.931	21561
858.064	21641
858.197	21568
858.331	21488
858.464	21435
858.597	21325
858.731	21526
858.864	21428
858.997	21504
859.13	21519
859.263	21492
859.396	21416
859.529	21412
859.662	21641
859.795	21412
859.928	21450
860.061	21656
860.194	21648
860.327	21583
860.46	21485
860.592	21564
860.725	21591
860.858	21542
860.99	21526
861.123	21363
861.256	21519
861.388	21519
861.521	22265
861.653	21374
861.786	21256
861.918	21367
862.05	21317
862.183	21363
862.315	21526
862.447	21397
862.58	21500
862.712	21332
862.844	21252
862.976	21279
863.108	21241
863.24	21576
863.372	21256
863.504	21310
863.636	21070
863.768	21116
863.9	21058
864.032	21077
864.164	21123
864.296	21252
864.428	21302
864.559	21142
864.691	21306
864.823	21150
864.954	21192
865.086	21062
865.217	21146
865.349	20906
865.48	21108
865.612	21184
865.743	21192
865.875	21005
866.006	21028
866.137	21089
866.269	21108
866.4	21001
866.531	21051
866.662	20994
866.793	20933
866.924	21001
867.055	20960
867.186	21024
867.317	20960
867.448	20914
867.579	20937
867.71	20941
867.841	20807
867.972	21009
868.103	21013
868.233	21104
868.364	21005
868.495	21070
868.625	21294
868.756	21272
868.886	21047
869.017	21165
869.147	21294
869.278	21389
869.408	21207
869.539	21192
869.669	21359
869.799	21146
869.929	21408
870.06	21313
870.19	21534
870.32	21454
870.45	21526
870.58	21641
870.71	21694
870.84	21762
870.97	21599
871.1	21538
871.23	21785
871.36	21850
871.489	21660
871.619	21819
871.749	21903
871.879	21823
872.008	21949
872.138	21793
872.267	21838
872.397	21732
872.526	21644
872.656	21595
872.785	21633
872.915	21892
873.044	21869
873.173	21854
873.303	21884
873.432	21903
873.561	22021
873.69	21850
873.819	21781
873.948	21930
874.077	21895
874.206	21884
874.335	21869
874.464	21960
874.593	22128
874.722	22013
874.851	22120
874.979	22150
875.108	22154
875.237	21968
875.365	22036
875.494	22070
875.623	22196
875.751	22029
875.88	22143
876.008	22169
876.136	22207
876.265	22390
876.393	22626
876.521	22672
876.65	22599
876.778	22455
876.906	22436
877.034	22390
877.162	22390
877.29	22455
877.418	22447
877.546	22459
877.674	22379
877.802	22417
877.93	22512
878.058	22462
878.185	22238
878.313	22382
878.441	22333
878.568	22181
878.696	22386
878.824	22630
878.951	22466
879.079	22615
879.206	22713
879.333	22603
879.461	22596
879.588	22584
879.715	22592
879.842	22744
879.97	22485
880.097	22242
880.224	22223
880.351	22272
880.478	22253
880.605	22116
880.732	22295
880.859	22542
880.986	22177
881.112	22306
881.239	22280
881.366	21945
881.493	22029
881.619	21812
881.746	21880
881.872	21682
881.999	21835
882.125	21713
882.252	21945
882.378	21857
882.505	21895
882.631	21720
882.757	21545
882.883	21629
883.01	21568
883.136	21431
883.262	21416
883.388	21367
883.514	21477
883.64	21587
883.766	21473
883.892	21291
884.018	21321
884.143	21488
884.269	21572
884.395	21287
884.52	21154
884.646	21169
884.772	21176
884.897	20956
885.023	21180
885.148	21241
885.274	21283
885.399	21199
885.524	21123
885.65	21188
885.775	21199
885.9	21096
886.025	21195
886.15	21272
886.275	21077
886.4	21070
886.525	21123
886.65	21119
886.775	20998
886.9	21241
887.025	21439
887.149	21207
887.274	21032
887.399	20998
887.523	20937
887.648	20857
887.773	20804
887.897	20921
888.021	20990
888.146	20792
888.27	21074
888.395	21005
888.519	20941
888.643	20963
888.767	21047
888.891	20800
889.015	20758
889.139	20849
889.263	20689
889.387	20960
889.511	20891
889.635	20811
889.759	20739
889.883	20667
890.006	20636
890.13	20754
890.254	20670
890.377	20663
890.501	20484
890.624	20317
890.748	20488
890.871	20389
890.995	20282
891.118	20282
891.241	20309
891.364	20381
891.488	20427
891.611	20259
891.734	20248
891.857	20450
891.98	20229
892.103	20320
892.226	20355
892.349	20313
892.471	20100
892.594	20298
892.717	20271
892.839	20161
892.962	20240
893.085	20286
893.207	20229
893.33	20122
893.452	20172
893.575	20199
893.697	20206
893.819	20313
893.941	20412
894.064	20366
894.186	20084
894.308	20145
894.43	20202
894.552	20233
894.674	20195
894.796	20191
894.918	20176
895.04	20149
895.161	20225
895.283	20290
895.405	20103
895.526	20244
895.648	20240
895.769	20244
895.891	20195
896.012	20278
896.134	20320
896.255	20244
896.376	20248
896.498	20202
896.619	20332
896.74	20301
896.861	20290
896.982	20564
897.103	20716
897.224	20609
897.345	20381
897.466	20393
897.587	20370
897.708	20461
897.828	20480
897.949	20320
898.07	20214
898.19	20374
898.311	20400
898.431	20343
898.552	20393
898.672	20450
898.792	20488
898.913	20499
899.033	20282
899.153	20271
899.273	20016
899.393	20187
899.513	20107
899.633	20092
899.753	20233
899.873	20138
899.993	20202
900.113	20164
900.232	20050
900.352	19959
900.472	19989
900.591	19906
900.711	19871
900.83	19894
900.95	20073
901.069	19978
901.189	19837
901.308	19556
901.427	19480
901.546	19495
901.665	19575
901.784	19476
901.904	19377
902.023	19225
902.141	19148
902.26	19050
902.379	19084
902.498	19103
902.617	19053
902.735	19103
902.854	18947
902.973	18920
903.091	18711
903.21	18715
903.328	18696
903.446	18578
903.565	18517
903.683	18544
903.801	18365
903.919	18426
904.038	18338
904.156	18273
904.274	18186
904.392	18186
904.51	18136
904.627	18235
904.745	18270
904.863	18311
904.981	17992
905.098	17992
905.216	17904
905.334	17908
905.451	17961
905.569	17824
905.686	17904
905.803	17950
905.921	17691
906.038	17786
906.155	17790
906.272	17600
906.389	17638
906.506	17467
906.623	17376
906.74	17387
906.857	17258
906.974	17345
907.091	17463
907.208	17528
907.324	17440
907.441	17364
907.557	17132
907.674	17284
907.79	17094
907.907	17041
908.023	17239
908.139	17128
908.256	17075
908.372	17067
908.488	17018
908.604	16934
908.72	16763
908.836	16778
908.952	16824
909.068	16812
909.184	16968
909.3	16949
909.415	16778
909.531	16885
909.647	16615
909.762	16550
909.878	16527
909.993	16588
910.108	16561
910.224	16538
910.339	16489
910.454	16500
910.57	16344
910.685	16272
910.8	16531
910.915	16531
911.03	16352
911.145	16143
911.259	16181
911.374	16143
911.489	16074
911.604	16051
911.718	15861
911.833	15903
911.947	15778
912.062	15747
912.176	16010
912.291	15941
912.405	15899
912.519	16192
912.633	16055
912.748	15865
912.862	15816
912.976	15728
913.09	15572
913.204	15603
913.318	15755
913.431	15808
913.545	15812
913.659	15774
913.772	15694
913.886	15511
914	15443
914.113	15553
914.226	15591
914.34	15614
914.453	15351
914.566	15462
914.68	15363
914.793	15279
914.906	15272
915.019	15017
915.132	15043
915.245	15116
915.358	15176
915.47	14963
915.583	15100
915.696	15074
915.809	15230
915.921	15123
916.034	15043
916.146	14956
916.259	15024
916.371	15062
916.483	15074
916.595	14765
916.708	14952
916.82	14785
916.932	14895
917.044	14918
917.156	14941
917.268	14705
917.38	14781
917.491	14651
917.603	14754
917.715	14845
917.826	14842
917.938	14686
918.049	14533
918.161	14625
918.272	14777
918.384	14762
918.495	14632
918.606	14511
918.717	14370
918.828	14518
918.939	14590
919.05	14377
919.161	14476
919.272	14320
919.383	14408
919.494	14526
919.604	14724
919.715	14560
919.826	14317
919.936	14374
920.047	14457
920.157	14541
920.267	14560
920.378	14408
920.488	14408
920.598	14552
920.708	14853
920.818	14636
920.928	14590
921.038	14754
921.148	14705
921.258	14339
921.368	14278
921.477	14168
921.587	14100
921.697	14001
921.806	14195
921.916	14054
922.025	13887
922.134	13723
922.244	13841
922.353	13803
922.462	13662
922.571	13658
922.68	13571
922.789	13422
922.898	13480
923.007	13369
923.116	13495
923.224	13487
923.333	13495
923.442	13426
923.55	13365
923.659	13247
923.767	13278
923.876	13274
923.984	13365
924.092	13141
924.201	13225
924.309	13187
924.417	13202
924.525	13198
924.633	13171
924.741	13902
924.849	12943
924.956	13053
925.064	12916
925.172	12897
925.279	12871
925.387	12993
925.494	12848
925.602	13015
925.709	12935
925.816	12848
925.924	12787
926.031	12947
926.138	12852
926.245	12867
926.352	12673
926.459	12829
926.566	12916
926.673	12837
926.779	12722
926.886	12646
926.993	12448
927.099	12407
927.206	12414
927.312	12376
927.419	12509
927.525	12407
927.631	12448
927.737	12308
927.843	12277
927.95	12228
928.056	12201
928.162	12330
928.267	12338
928.373	12932
928.479	12361
928.585	12095
928.69	12224
928.796	12273
928.901	12136
929.007	12038
929.112	12152
929.218	12068
929.323	12057
929.428	12030
929.533	12072
929.638	11904
929.743	12015
929.848	12045
929.953	11870
930.058	11840
930.163	11657
930.267	11714
930.372	11817
930.477	11676
930.581	11817
930.685	11779
930.79	11554
930.894	11627
930.998	11551
931.103	11657
931.207	11318
931.311	11220
931.415	11181
931.519	10923
931.623	10927
