Data from test_V78500241_2594.txt Node
Date: Fri Mar 25 15:59:46 CST 2022
User: usil
Spectrometer: V785-0024
Trigger mode: 0
Integration Time (sec): 4.000000E-1
Scans to average: 1
Nonlinearity correction enabled: false
Boxcar width: 0
Storing dark spectrum: false
XAxis mode: Wavelengths
Number of Pixels in Spectrum: 1024
>>>>>Begin Spectral Data<<<<<
801.071	28668
801.214	28641
801.356	28390
801.499	28246
801.641	28154
801.783	28215
801.926	28219
802.068	28242
802.211	28147
802.353	28101
802.496	27968
802.638	28025
802.78	27842
802.923	27797
803.065	27793
803.208	27873
803.35	27854
803.492	28169
803.635	28105
803.777	27991
803.919	28150
804.061	28398
804.204	28192
804.346	28067
804.488	27960
804.63	28025
804.773	28120
804.915	28226
805.057	28329
805.199	28010
805.341	28112
805.483	28295
805.626	28211
805.768	28063
805.91	28173
806.052	28379
806.194	28032
806.336	28500
806.478	28318
806.62	28219
806.762	28516
806.904	28459
807.046	28831
807.188	28618
807.33	28721
807.472	28858
807.614	28630
807.756	28767
807.898	28596
808.04	28527
808.182	28478
808.324	28394
808.465	28618
808.607	28987
808.749	29064
808.891	28892
809.033	29071
809.174	29033
809.316	28968
809.458	28908
809.6	28930
809.741	29105
809.883	29155
810.025	29284
810.166	29269
810.308	29292
810.45	29277
810.591	29140
810.733	29060
810.875	28972
811.016	28873
811.158	28744
811.299	28984
811.441	29094
811.582	29140
811.724	29018
811.865	28911
812.007	28900
812.148	28995
812.29	28900
812.431	29098
812.573	29318
812.714	29463
812.855	29501
812.997	29684
813.138	29748
813.279	29558
813.421	29543
813.562	29497
813.703	29200
813.845	29151
813.986	28934
814.127	28812
814.268	28752
814.41	28694
814.551	28672
814.692	28835
814.833	28675
814.974	28603
815.115	28668
815.256	28413
815.397	28497
815.539	28478
815.68	28599
815.821	28352
815.962	28386
816.103	28455
816.244	28535
816.385	28287
816.526	28306
816.666	28192
816.807	27918
816.948	28185
817.089	28242
817.23	27972
817.371	27846
817.512	27869
817.653	27979
817.793	27930
817.934	27998
818.075	28017
818.216	27987
818.356	27960
818.497	27827
818.638	27667
818.778	27751
818.919	27682
819.06	27743
819.2	27835
819.341	28017
819.481	27903
819.622	28124
819.762	28318
819.903	28314
820.043	28044
820.184	28200
820.324	28207
820.465	28249
820.605	28074
820.746	28032
820.886	27964
821.026	28105
821.167	28048
821.307	28204
821.447	27926
821.588	27827
821.728	27823
821.868	27427
822.008	27603
822.149	27530
822.289	27431
822.429	27279
822.569	27036
822.709	27199
822.849	26952
822.99	26883
823.13	27028
823.27	26990
823.41	26899
823.55	26564
823.69	26758
823.83	26712
823.97	26807
824.11	26442
824.25	26530
824.389	26556
824.529	26701
824.669	26571
824.809	26864
824.949	26663
825.089	26762
825.228	26693
825.368	26442
825.508	26522
825.648	26385
825.787	26457
825.927	26514
826.067	26423
826.206	26590
826.346	26530
826.485	26457
826.625	26385
826.765	26602
826.904	26667
827.044	26294
827.183	26294
827.323	26122
827.462	26328
827.601	26092
827.741	26157
827.88	26206
828.02	26115
828.159	26062
828.298	26259
828.437	26286
828.577	26142
828.716	26286
828.855	26001
828.994	25921
829.134	25898
829.273	25936
829.412	25769
829.551	25837
829.69	26005
829.829	25906
829.968	26024
830.107	25887
830.246	25902
830.385	25765
830.524	25955
830.663	25727
830.802	25693
830.941	25502
831.08	25518
831.219	25453
831.357	25567
831.496	25586
831.635	25449
831.774	25301
831.913	25320
832.051	25331
832.19	25278
832.329	25289
832.467	25145
832.606	25148
832.744	25156
832.883	25247
833.022	25095
833.16	25129
833.299	25259
833.437	25114
833.576	25251
833.714	25190
833.852	25225
833.991	25289
834.129	25388
834.267	25362
834.406	25255
834.544	25247
834.682	25308
834.821	25217
834.959	25263
835.097	25122
835.235	25259
835.373	25206
835.511	25263
835.65	25190
835.788	25072
835.926	24878
836.064	24897
836.202	24928
836.34	25061
836.478	25050
836.615	25038
836.753	25019
836.891	25129
837.029	25034
837.167	25031
837.305	24894
837.443	24905
837.58	24943
837.718	25012
837.856	24947
837.993	24817
838.131	24833
838.269	24684
838.406	24848
838.544	24726
838.681	24486
838.819	24486
838.956	24369
839.094	24391
839.231	24456
839.369	24464
839.506	24745
839.643	24673
839.781	24357
839.918	24281
840.055	24304
840.193	24270
840.33	24300
840.467	24239
840.604	24254
840.742	24486
840.879	24125
841.016	24129
841.153	24182
841.29	24327
841.427	24213
841.564	24205
841.701	24110
841.838	24159
841.975	24095
842.112	24087
842.249	24072
842.385	23996
842.522	24167
842.659	24098
842.796	23897
842.933	24034
843.069	23939
843.206	23961
843.343	24098
843.479	24053
843.616	24076
843.752	23786
843.889	23817
844.025	23942
844.162	23703
844.298	23824
844.435	23779
844.571	23687
844.708	23836
844.844	23927
844.98	23920
845.117	23817
845.253	23661
845.389	23638
845.525	23699
845.661	23638
845.798	23471
845.934	23581
846.07	23490
846.206	23535
846.342	23733
846.478	23547
846.614	23231
846.75	23147
846.886	23250
847.022	23227
847.158	23235
847.294	23265
847.429	23311
847.565	23322
847.701	23356
847.837	23067
847.972	23029
848.108	22957
848.244	23025
848.379	22866
848.515	22706
848.65	22717
848.786	22691
848.921	22668
849.057	22946
849.192	22900
849.328	22713
849.463	22809
849.598	22744
849.734	22748
849.869	22668
850.004	22637
850.14	22653
850.275	22656
850.41	22512
850.545	22462
850.68	22634
850.815	22527
850.95	22516
851.085	22752
851.22	22596
851.355	22706
851.49	22607
851.625	22508
851.76	22508
851.895	22470
852.03	22527
852.165	22622
852.299	22626
852.434	22596
852.569	22577
852.703	22622
852.838	22653
852.973	22809
853.107	22721
853.242	22561
853.376	22493
853.511	22367
853.645	22276
853.78	22474
853.914	22337
854.048	22367
854.183	22459
854.317	22455
854.451	22603
854.585	22268
854.72	22386
854.854	22421
854.988	22325
855.122	22352
855.256	22223
855.39	22360
855.524	22557
855.658	22428
855.792	22421
855.926	22390
856.06	22424
856.194	22470
856.327	22375
856.461	22310
856.595	22329
856.729	22314
856.862	22493
856.996	22356
857.13	22322
857.263	22550
857.397	22459
857.53	22417
857.664	22424
857.797	22485
857.931	22535
858.064	22538
858.197	22519
858.331	22470
858.464	22394
858.597	22333
858.731	22329
858.864	22325
858.997	22371
859.13	22291
859.263	22367
859.396	22424
859.529	22360
859.662	22333
859.795	22200
859.928	22447
860.061	22538
860.194	22615
860.327	22447
860.46	22398
860.592	22489
860.725	22546
860.858	22645
860.99	22508
861.123	22242
861.256	22459
861.388	22455
861.521	23102
861.653	22318
861.786	22261
861.918	22158
862.05	22188
862.183	22363
862.315	22249
862.447	22455
862.58	22341
862.712	22181
862.844	22048
862.976	22234
863.108	22059
863.24	22668
863.372	22120
863.504	22139
863.636	22044
863.768	22090
863.9	22078
864.032	22055
864.164	22029
864.296	22135
864.428	22268
864.559	22067
864.691	22139
864.823	22051
864.954	22093
865.086	22082
865.217	21964
865.349	21991
865.48	22055
865.612	21861
865.743	22173
865.875	21941
866.006	21934
866.137	21831
866.269	22067
866.4	22029
866.531	21941
866.662	21873
866.793	21808
866.924	21941
867.055	21994
867.186	21892
867.317	21960
867.448	21804
867.579	22021
867.71	21755
867.841	21880
867.972	22070
868.103	21861
868.233	21911
868.364	21797
868.495	22029
868.625	22067
868.756	22219
868.886	22101
869.017	22238
869.147	22295
869.278	22268
869.408	22135
869.539	22070
869.669	22280
869.799	22295
869.929	22265
870.06	22207
870.19	22367
870.32	22348
870.45	22474
870.58	22565
870.71	22653
870.84	22641
870.97	22451
871.1	22493
871.23	22755
871.36	22725
871.489	22660
871.619	22744
871.749	22637
871.879	22755
872.008	22862
872.138	22733
872.267	22782
872.397	22588
872.526	22577
872.656	22535
872.785	22508
872.915	22736
873.044	22786
873.173	22786
873.303	22866
873.432	22797
873.561	22847
873.69	22763
873.819	22755
873.948	22835
874.077	22938
874.206	22733
874.335	22797
874.464	22904
874.593	22999
874.722	22946
874.851	22965
874.979	23014
875.108	23090
875.237	23052
875.365	22801
875.494	22991
875.623	23056
875.751	22980
875.88	23060
876.008	23147
876.136	23212
876.265	23288
876.393	23436
876.521	23497
876.65	23463
876.778	23292
876.906	23391
877.034	23296
877.162	23277
877.29	23250
877.418	23250
877.546	23261
877.674	23299
877.802	23292
877.93	23311
878.058	23337
878.185	23242
878.313	23296
878.441	23250
878.568	23178
878.696	23322
878.824	23349
878.951	23360
879.079	23535
879.206	23691
879.333	23315
879.461	23334
879.588	23368
879.715	23433
879.842	23570
879.97	23349
880.097	23155
880.224	23117
880.351	23159
880.478	23166
880.605	23075
880.732	23193
880.859	23474
880.986	23277
881.112	23208
881.239	23029
881.366	22778
881.493	22740
881.619	22653
881.746	22736
881.872	22767
881.999	22538
882.125	22622
882.252	22748
882.378	22645
882.505	22839
882.631	22462
882.757	22341
882.883	22584
883.01	22402
883.136	22280
883.262	22287
883.388	22131
883.514	22405
883.64	22451
883.766	22253
883.892	22086
884.018	22215
884.143	22265
884.269	22363
884.395	21998
884.52	21968
884.646	21964
884.772	21873
884.897	21941
885.023	22010
885.148	22101
885.274	22082
885.399	22116
885.524	22059
885.65	22162
885.775	22074
885.9	21991
886.025	22166
886.15	22048
886.275	22063
886.4	21968
886.525	21945
886.65	21964
886.775	21903
886.9	21983
887.025	22139
887.149	22010
887.274	21808
887.399	21804
887.523	21743
887.648	21797
887.773	21557
887.897	21846
888.021	21812
888.146	21724
888.27	21979
888.395	21831
888.519	21759
888.643	21686
888.767	21823
888.891	21667
889.015	21526
889.139	21485
889.263	21580
889.387	21644
889.511	21720
889.635	21648
889.759	21580
889.883	21538
890.006	21492
890.13	21663
890.254	21481
890.377	21545
890.501	21287
890.624	21287
890.748	21211
890.871	21195
890.995	21203
891.118	20975
891.241	21047
891.364	21173
891.488	21195
891.611	21169
891.734	21123
891.857	21188
891.98	21093
892.103	21062
892.226	21123
892.349	21028
892.471	20796
892.594	21036
892.717	21055
892.839	21070
892.962	20979
893.085	20948
893.207	21070
893.33	20838
893.452	20910
893.575	21093
893.697	20891
893.819	21043
893.941	21169
894.064	21344
894.186	20944
894.308	20864
894.43	21013
894.552	21104
894.674	21089
894.796	20849
894.918	21043
895.04	21039
895.161	21055
895.283	21020
895.405	20994
895.526	21013
895.648	20899
895.769	20948
895.891	20971
896.012	21093
896.134	21089
896.255	20982
896.376	20998
896.498	21043
896.619	21089
896.74	20941
896.861	21032
896.982	21207
897.103	21447
897.224	21131
897.345	21188
897.466	21142
897.587	21127
897.708	21268
897.828	21264
897.949	21131
898.07	21039
898.19	21142
898.311	21218
898.431	21138
898.552	21138
898.672	21074
898.792	21211
898.913	21184
899.033	21127
899.153	21066
899.273	20826
899.393	20834
899.513	20941
899.633	20986
899.753	21009
899.873	20819
899.993	20948
900.113	20762
900.232	20883
900.352	20788
900.472	20746
900.591	20663
900.711	20625
900.83	20632
900.95	20659
901.069	20724
901.189	20423
901.308	20469
901.427	20248
901.546	20199
901.665	20195
901.784	20233
901.904	20149
902.023	19970
902.141	19967
902.26	19841
902.379	19807
902.498	19799
902.617	19670
902.735	19803
902.854	19685
902.973	19624
903.091	19460
903.21	19362
903.328	19438
903.446	19244
903.565	19194
903.683	19187
903.801	19129
903.919	19247
904.038	18977
904.156	18939
904.274	19019
904.392	18981
904.51	18985
904.627	18916
904.745	18973
904.863	19015
904.981	18905
905.098	18547
905.216	18677
905.334	18684
905.451	18673
905.569	18563
905.686	18635
905.803	18665
905.921	18357
906.038	18589
906.155	18521
906.272	18384
906.389	18376
906.506	18144
906.623	18079
906.74	18194
906.857	18026
906.974	18049
907.091	18163
907.208	18262
907.324	18220
907.441	18060
907.557	17958
907.674	17889
907.79	17866
907.907	17798
908.023	17870
908.139	17920
908.256	17786
908.372	17665
908.488	17786
908.604	17608
908.72	17630
908.836	17608
908.952	17539
909.068	17627
909.184	17646
909.3	17764
909.415	17691
909.531	17516
909.647	17398
909.762	17349
909.878	17315
909.993	17376
910.108	17239
910.224	17220
910.339	17197
910.454	17197
910.57	17212
910.685	17098
910.8	17345
910.915	17189
911.03	17193
911.145	17006
911.259	16873
911.374	16820
911.489	16805
911.604	16691
911.718	16512
911.833	16622
911.947	16508
912.062	16432
912.176	16626
912.291	16675
912.405	16626
912.519	16664
912.633	16866
912.748	16649
912.862	16523
912.976	16478
913.09	16276
913.204	16356
913.318	16371
913.431	16626
913.545	16417
913.659	16584
913.772	16402
913.886	16253
914	16162
914.113	16287
914.226	16226
914.34	16344
914.453	15983
914.566	16246
914.68	16112
914.793	16040
914.906	15778
915.019	15808
915.132	15743
915.245	15762
915.358	15736
915.47	15797
915.583	15819
915.696	15766
915.809	15861
915.921	15892
916.034	15747
916.146	15724
916.259	15797
916.371	15819
916.483	15625
916.595	15713
916.708	15637
916.82	15511
916.932	15553
917.044	15641
917.156	15504
917.268	15378
917.38	15447
917.491	15488
917.603	15424
917.715	15397
917.826	15462
917.938	15405
918.049	15336
918.161	15378
918.272	15439
918.384	15466
918.495	15439
918.606	15203
918.717	15119
918.828	15214
918.939	15135
919.05	15081
919.161	15039
919.272	14933
919.383	14963
919.494	15226
919.604	15348
919.715	15074
919.826	15097
919.936	15184
920.047	15214
920.157	15070
920.267	15306
920.378	15097
920.488	15097
920.598	15359
920.708	15435
920.818	15245
920.928	15089
921.038	15401
921.148	15351
921.258	15081
921.368	14948
921.477	14956
921.587	14785
921.697	14746
921.806	14834
921.916	14670
922.025	14480
922.134	14434
922.244	14476
922.353	14480
922.462	14355
922.571	14286
922.68	14172
922.789	14054
922.898	14103
923.007	14119
923.116	14138
923.224	14065
923.333	14119
923.442	13940
923.55	13932
923.659	13951
923.767	13852
923.876	13890
923.984	13970
924.092	13696
924.201	13849
924.309	13921
924.417	13871
924.525	13742
924.633	13845
924.741	14640
924.849	13544
924.956	13628
925.064	13506
925.172	13563
925.279	13525
925.387	13476
925.494	13548
925.602	13731
925.709	13499
925.816	13441
925.924	13476
926.031	13502
926.138	13464
926.245	13441
926.352	13343
926.459	13487
926.566	13502
926.673	13358
926.779	13247
926.886	13278
926.993	13084
927.099	13000
927.206	13050
927.312	12973
927.419	13046
927.525	13152
927.631	13061
927.737	12958
927.843	12844
927.95	12711
928.056	12897
928.162	12886
928.267	12939
928.373	13506
928.479	12905
928.585	12677
928.69	12768
928.796	12920
928.901	12673
929.007	12593
929.112	12642
929.218	12646
929.323	12521
929.428	12502
929.533	12681
929.638	12441
929.743	12555
929.848	12532
929.953	12490
930.058	12414
930.163	12258
930.267	12247
930.372	12342
930.477	12205
930.581	12437
930.685	12304
930.79	12083
930.894	12038
930.998	12175
931.103	12159
931.207	11866
931.311	11756
931.415	11676
931.519	11505
931.623	11383
