Data from test_V78500241_3532.txt Node
Date: Fri Mar 25 16:06:16 CST 2022
User: usil
Spectrometer: V785-0024
Trigger mode: 0
Integration Time (sec): 4.000000E-1
Scans to average: 1
Nonlinearity correction enabled: false
Boxcar width: 0
Storing dark spectrum: false
XAxis mode: Wavelengths
Number of Pixels in Spectrum: 1024
>>>>>Begin Spectral Data<<<<<
801.071	29025
801.214	28968
801.356	28634
801.499	28516
801.641	28489
801.783	28432
801.926	28466
802.068	28390
802.211	28432
802.353	28421
802.496	28234
802.638	28207
802.78	28196
802.923	28013
803.065	27964
803.208	28112
803.35	28109
803.492	28303
803.635	28440
803.777	28287
803.919	28394
804.061	28664
804.204	28546
804.346	28322
804.488	28371
804.63	28417
804.773	28394
804.915	28531
805.057	28702
805.199	28428
805.341	28538
805.483	28645
805.626	28554
805.768	28542
805.91	28569
806.052	28721
806.194	28508
806.336	28721
806.478	28683
806.62	28565
806.762	28634
806.904	28869
807.046	29022
807.188	28987
807.33	28957
807.472	29162
807.614	28869
807.756	29086
807.898	28972
808.04	28965
808.182	28862
808.324	28752
808.465	29022
808.607	29197
808.749	29372
808.891	29235
809.033	29337
809.174	29258
809.316	29341
809.458	29246
809.6	29159
809.741	29467
809.883	29326
810.025	29611
810.166	29589
810.308	29604
810.45	29539
810.591	29516
810.733	29360
810.875	29292
811.016	29318
811.158	29056
811.299	29337
811.441	29452
811.582	29467
811.724	29311
811.865	29258
812.007	29265
812.148	29318
812.29	29387
812.431	29695
812.573	29589
812.714	29649
812.855	29874
812.997	29847
813.138	30003
813.279	29840
813.421	29813
813.562	29687
813.703	29707
813.845	29429
813.986	29280
814.127	29025
814.268	28877
814.41	29014
814.551	28987
814.692	29037
814.833	28915
814.974	28915
815.115	29056
815.256	28812
815.397	28873
815.539	28965
815.68	29003
815.821	28869
815.962	28866
816.103	28946
816.244	28782
816.385	28694
816.526	28615
816.666	28413
816.807	28261
816.948	28242
817.089	28379
817.23	28379
817.371	28352
817.512	28230
817.653	28360
817.793	28242
817.934	28242
818.075	28417
818.216	28447
818.356	28318
818.497	28234
818.638	28070
818.778	28002
818.919	28128
819.06	28246
819.2	28325
819.341	28382
819.481	28348
819.622	28588
819.762	28744
819.903	28504
820.043	28451
820.184	28580
820.324	28451
820.465	28478
820.605	28531
820.746	28459
820.886	28386
821.026	28474
821.167	28493
821.307	28314
821.447	28337
821.588	28424
821.728	28158
821.868	27987
822.008	27876
822.149	27964
822.289	27903
822.429	27595
822.569	27610
822.709	27496
822.849	27199
822.99	27435
823.13	27340
823.27	27389
823.41	27096
823.55	27119
823.69	27176
823.83	27150
823.97	27104
824.11	27077
824.25	26910
824.389	26963
824.529	27009
824.669	26990
824.809	27066
824.949	27203
825.089	27058
825.228	26998
825.368	26933
825.508	26838
825.648	26960
825.787	26944
825.927	26982
826.067	26788
826.206	26834
826.346	26895
826.485	27001
826.625	26910
826.765	27001
826.904	26975
827.044	26712
827.183	26446
827.323	26609
827.462	26712
827.601	26727
827.741	26507
827.88	26670
828.02	26488
828.159	26503
828.298	26609
828.437	26682
828.577	26530
828.716	26739
828.855	26286
828.994	26237
829.134	26351
829.273	26298
829.412	26233
829.551	26282
829.69	26214
829.829	26324
829.968	26191
830.107	26377
830.246	26366
830.385	26240
830.524	26157
830.663	26157
830.802	26012
830.941	25830
831.08	25845
831.219	25955
831.357	25864
831.496	26187
831.635	25894
831.774	25746
831.913	25689
832.051	25666
832.19	25700
832.329	25616
832.467	25590
832.606	25411
832.744	25616
832.883	25613
833.022	25575
833.16	25632
833.299	25567
833.437	25521
833.576	25670
833.714	25639
833.852	25506
833.991	25613
834.129	25575
834.267	25685
834.406	25597
834.544	25594
834.682	25525
834.821	25765
834.959	25738
835.097	25491
835.235	25715
835.373	25563
835.511	25460
835.65	25411
835.788	25628
835.926	25308
836.064	25331
836.202	25285
836.34	25544
836.478	25548
836.615	25316
836.753	25441
836.891	25362
837.029	25343
837.167	25460
837.305	25339
837.443	25301
837.58	25255
837.718	25240
837.856	25187
837.993	25324
838.131	25316
838.269	25194
838.406	25232
838.544	25057
838.681	24878
838.819	24916
838.956	24764
839.094	24700
839.231	24856
839.369	24886
839.506	25046
839.643	24954
839.781	24677
839.918	24791
840.055	24681
840.193	24688
840.33	24745
840.467	24525
840.604	24719
840.742	24810
840.879	24597
841.016	24570
841.153	24654
841.29	24783
841.427	24505
841.564	24715
841.701	24593
841.838	24540
841.975	24559
842.112	24528
842.249	24612
842.385	24433
842.522	24658
842.659	24403
842.796	24315
842.933	24391
843.069	24285
843.206	24304
843.343	24323
843.479	24441
843.616	24365
843.752	24167
843.889	24186
844.025	24346
844.162	24239
844.298	24304
844.435	24174
844.571	24125
844.708	24171
844.844	24357
844.98	24273
845.117	24197
845.253	24205
845.389	23916
845.525	24102
845.661	23996
845.798	23843
845.934	24030
846.07	23882
846.206	23779
846.342	24007
846.478	23760
846.614	23703
846.75	23562
846.886	23653
847.022	23710
847.158	23672
847.294	23668
847.429	23653
847.565	23676
847.701	23847
847.837	23414
847.972	23231
848.108	23311
848.244	23429
848.379	23265
848.515	23159
848.65	23181
848.786	23220
848.921	23330
849.057	23250
849.192	23254
849.328	23254
849.463	23425
849.598	23094
849.734	23124
849.869	23003
850.004	22869
850.14	22965
850.275	23075
850.41	22805
850.545	22923
850.68	22858
850.815	23018
850.95	22980
851.085	23056
851.22	23136
851.355	22919
851.49	22980
851.625	23075
851.76	22820
851.895	22782
852.03	22847
852.165	22934
852.299	22980
852.434	23060
852.569	23022
852.703	22942
852.838	23018
852.973	23037
853.107	23098
853.242	22862
853.376	22786
853.511	22710
853.645	22698
853.78	22892
853.914	22774
854.048	22733
854.183	22839
854.317	22831
854.451	23003
854.585	22839
854.72	22767
854.854	22972
854.988	22790
855.122	22805
855.256	22675
855.39	22767
855.524	22786
855.658	22866
855.792	22771
855.926	22915
856.06	22862
856.194	22858
856.327	22725
856.461	22706
856.595	22816
856.729	22774
856.862	22820
856.996	22752
857.13	22930
857.263	22984
857.397	22896
857.53	22740
857.664	22946
857.797	22877
857.931	22911
858.064	22736
858.197	22987
858.331	22740
858.464	22828
858.597	22713
858.731	22801
858.864	22782
858.997	22694
859.13	22672
859.263	22790
859.396	22930
859.529	22691
859.662	22679
859.795	22683
859.928	22839
860.061	22980
860.194	22991
860.327	22790
860.46	22816
860.592	22919
860.725	22862
860.858	22953
860.99	22752
861.123	22694
861.256	22691
861.388	22755
861.521	23490
861.653	22573
861.786	22603
861.918	22668
862.05	22675
862.183	22645
862.315	22637
862.447	22816
862.58	22630
862.712	22538
862.844	22375
862.976	22550
863.108	22592
863.24	22915
863.372	22531
863.504	22557
863.636	22565
863.768	22531
863.9	22550
864.032	22462
864.164	22398
864.296	22516
864.428	22489
864.559	22611
864.691	22565
864.823	22508
864.954	22485
865.086	22306
865.217	22413
865.349	22299
865.48	22413
865.612	22291
865.743	22447
865.875	22314
866.006	22303
866.137	22428
866.269	22371
866.4	22371
866.531	22268
866.662	22265
866.793	22306
866.924	22291
867.055	22310
867.186	22436
867.317	22226
867.448	22162
867.579	22223
867.71	22249
867.841	22287
867.972	22253
868.103	22325
868.233	22162
868.364	22303
868.495	22424
868.625	22516
868.756	22599
868.886	22519
869.017	22390
869.147	22729
869.278	22603
869.408	22611
869.539	22481
869.669	22683
869.799	22580
869.929	22649
870.06	22816
870.19	22759
870.32	22805
870.45	22972
870.58	22965
870.71	22942
870.84	23006
870.97	22965
871.1	22934
871.23	23155
871.36	23064
871.489	22892
871.619	23117
871.749	23159
871.879	23117
872.008	23235
872.138	23151
872.267	23197
872.397	23064
872.526	22987
872.656	23006
872.785	23006
872.915	23079
873.044	23261
873.173	23220
873.303	23178
873.432	23197
873.561	23246
873.69	23235
873.819	23200
873.948	23239
874.077	23143
874.206	23102
874.335	23109
874.464	23303
874.593	23558
874.722	23368
874.851	23421
874.979	23311
875.108	23455
875.237	23311
875.365	23277
875.494	23471
875.623	23406
875.751	23398
875.88	23440
876.008	23482
876.136	23592
876.265	23745
876.393	23805
876.521	23783
876.65	23882
876.778	23840
876.906	23745
877.034	23794
877.162	23771
877.29	23832
877.418	23646
877.546	23726
877.674	23813
877.802	23779
877.93	23505
878.058	23634
878.185	23551
878.313	23695
878.441	23680
878.568	23554
878.696	23695
878.824	23821
878.951	23908
879.079	23927
879.206	24007
879.333	24003
879.461	23821
879.588	23828
879.715	23828
879.842	24022
879.97	23756
880.097	23589
880.224	23619
880.351	23551
880.478	23459
880.605	23353
880.732	23531
880.859	23802
880.986	23558
881.112	23570
881.239	23391
881.366	23299
881.493	23117
881.619	23060
881.746	23090
881.872	23204
881.999	23140
882.125	23079
882.252	23064
882.378	23075
882.505	23223
882.631	22995
882.757	22824
882.883	22980
883.01	22862
883.136	22778
883.262	22759
883.388	22641
883.514	22790
883.64	22820
883.766	22771
883.892	22557
884.018	22588
884.143	22786
884.269	22691
884.395	22535
884.52	22447
884.646	22428
884.772	22360
884.897	22310
885.023	22436
885.148	22580
885.274	22462
885.399	22550
885.524	22398
885.65	22424
885.775	22466
885.9	22344
886.025	22485
886.15	22421
886.275	22428
886.4	22390
886.525	22356
886.65	22318
886.775	22325
886.9	22390
887.025	22569
887.149	22295
887.274	22242
887.399	22135
887.523	22143
887.648	22013
887.773	22150
887.897	22150
888.021	22268
888.146	22181
888.27	22196
888.395	22185
888.519	22207
888.643	22188
888.767	22177
888.891	22059
889.015	21953
889.139	22105
889.263	22002
889.387	22135
889.511	22211
889.635	22055
889.759	21915
889.883	21949
890.006	21991
890.13	22109
890.254	21793
890.377	21812
890.501	21800
890.624	21580
890.748	21720
890.871	21629
890.995	21538
891.118	21439
891.241	21428
891.364	21599
891.488	21583
891.611	21534
891.734	21454
891.857	21591
891.98	21477
892.103	21523
892.226	21420
892.349	21344
892.471	21321
892.594	21447
892.717	21412
892.839	21397
892.962	21450
893.085	21393
893.207	21439
893.33	21222
893.452	21287
893.575	21431
893.697	21370
893.819	21614
893.941	21580
894.064	21500
894.186	21256
894.308	21306
894.43	21393
894.552	21583
894.674	21469
894.796	21275
894.918	21199
895.04	21275
895.161	21439
895.283	21370
895.405	21317
895.526	21389
895.648	21291
895.769	21378
895.891	21359
896.012	21458
896.134	21370
896.255	21435
896.376	21264
896.498	21306
896.619	21268
896.74	21249
896.861	21332
896.982	21675
897.103	21747
897.224	21629
897.345	21523
897.466	21428
897.587	21709
897.708	21770
897.828	21637
897.949	21397
898.07	21359
898.19	21393
898.311	21507
898.431	21466
898.552	21450
898.672	21587
898.792	21557
898.913	21500
899.033	21447
899.153	21325
899.273	21214
899.393	21245
899.513	21336
899.633	21245
899.753	21275
899.873	21169
899.993	21241
900.113	21116
900.232	21211
900.352	21180
900.472	21176
900.591	21036
900.711	21173
900.83	20990
900.95	21146
901.069	21112
901.189	20967
901.308	20648
901.427	20526
901.546	20541
901.665	20609
901.784	20579
901.904	20518
902.023	20396
902.141	20244
902.26	20278
902.379	20309
902.498	20195
902.617	19989
902.735	20065
902.854	20027
902.973	19944
903.091	19723
903.21	19708
903.328	19818
903.446	19651
903.565	19643
903.683	19491
903.801	19434
903.919	19533
904.038	19476
904.156	19426
904.274	19422
904.392	19289
904.51	19304
904.627	19304
904.745	19335
904.863	19388
904.981	19095
905.098	18901
905.216	19012
905.334	19031
905.451	18996
905.569	18817
905.686	18924
905.803	18985
905.921	18745
906.038	18833
906.155	18764
906.272	18654
906.389	18627
906.506	18441
906.623	18471
906.74	18677
906.857	18327
906.974	18342
907.091	18540
907.208	18696
907.324	18498
907.441	18479
907.557	18273
907.674	18239
907.79	18007
907.907	18117
908.023	18220
908.139	18102
908.256	18171
908.372	17958
908.488	18079
908.604	17954
908.72	17843
908.836	18007
908.952	17847
909.068	17885
909.184	17927
909.3	17950
909.415	17882
909.531	17935
909.647	17585
909.762	17687
909.878	17509
909.993	17589
910.108	17528
910.224	17611
910.339	17585
910.454	17505
910.57	17330
910.685	17372
910.8	17589
910.915	17551
911.03	17383
911.145	17280
911.259	17102
911.374	17140
911.489	17056
911.604	17060
911.718	16980
911.833	17014
911.947	16839
912.062	16782
912.176	17022
912.291	16987
912.405	16900
912.519	17170
912.633	17121
912.748	16900
912.862	16927
912.976	16782
913.09	16637
913.204	16694
913.318	16774
913.431	16816
913.545	16854
913.659	16763
913.772	16683
913.886	16615
914	16626
914.113	16569
914.226	16535
914.34	16607
914.453	16348
914.566	16546
914.68	16485
914.793	16337
914.906	16150
915.019	16124
915.132	16074
915.245	16109
915.358	16154
915.47	16044
915.583	16143
915.696	16150
915.809	16299
915.921	16154
916.034	16082
916.146	15983
916.259	15968
916.371	16116
916.483	16040
916.595	15884
916.708	15972
916.82	15876
916.932	15781
917.044	15793
917.156	15899
917.268	15698
917.38	15751
917.491	15656
917.603	15606
917.715	15854
917.826	15736
917.938	15679
918.049	15610
918.161	15637
918.272	15709
918.384	15759
918.495	15644
918.606	15481
918.717	15405
918.828	15450
918.939	15439
919.05	15294
919.161	15412
919.272	15306
919.383	15313
919.494	15462
919.604	15572
919.715	15496
919.826	15313
919.936	15340
920.047	15488
920.157	15359
920.267	15542
920.378	15382
920.488	15344
920.598	15500
920.708	15610
920.818	15458
920.928	15526
921.038	15637
921.148	15580
921.258	15313
921.368	15294
921.477	15154
921.587	15017
921.697	15001
921.806	15013
921.916	14906
922.025	14853
922.134	14750
922.244	14724
922.353	14735
922.462	14598
922.571	14568
922.68	14412
922.789	14343
922.898	14469
923.007	14248
923.116	14423
923.224	14362
923.333	14347
923.442	14195
923.55	14107
923.659	14252
923.767	14221
923.876	14138
923.984	14199
924.092	13955
924.201	14100
924.309	14065
924.417	14043
924.525	14039
924.633	13993
924.741	14944
924.849	13841
924.956	13986
925.064	13784
925.172	13712
925.279	13776
925.387	13753
925.494	13712
925.602	13814
925.709	13845
925.816	13639
925.924	13658
926.031	13677
926.138	13693
926.245	13765
926.352	13556
926.459	13658
926.566	13761
926.673	13556
926.779	13472
926.886	13449
926.993	13343
927.099	13293
927.206	13217
927.312	13190
927.419	13377
927.525	13255
927.631	13316
927.737	13126
927.843	13129
927.95	12909
928.056	13118
928.162	13114
928.267	13225
928.373	13689
928.479	13160
928.585	12897
928.69	13031
928.796	13084
928.901	12958
929.007	12749
929.112	12989
929.218	12954
929.323	12749
929.428	12722
929.533	12890
929.638	12764
929.743	12719
929.848	12741
929.953	12715
930.058	12715
930.163	12452
930.267	12521
930.372	12563
930.477	12437
930.581	12681
930.685	12467
930.79	12319
930.894	12258
930.998	12289
931.103	12433
931.207	12053
931.311	11939
931.415	11874
931.519	11707
931.623	11714
