Data from test_V78500241_571.txt Node
Date: Fri Mar 25 15:45:45 CST 2022
User: usil
Spectrometer: V785-0024
Trigger mode: 0
Integration Time (sec): 4.000000E-1
Scans to average: 1
Nonlinearity correction enabled: false
Boxcar width: 0
Storing dark spectrum: false
XAxis mode: Wavelengths
Number of Pixels in Spectrum: 1024
>>>>>Begin Spectral Data<<<<<
801.071	27679
801.214	27462
801.356	27237
801.499	27237
801.641	27062
801.783	27169
801.926	27104
802.068	27013
802.211	26990
802.353	26765
802.496	26712
802.638	26777
802.78	26613
802.923	26473
803.065	26686
803.208	26568
803.35	26587
803.492	26849
803.635	26800
803.777	26613
803.919	26754
804.061	27119
804.204	26796
804.346	26758
804.488	26815
804.63	26693
804.773	26625
804.915	26693
805.057	26853
805.199	26834
805.341	26857
805.483	27020
805.626	26891
805.768	26853
805.91	26857
806.052	26842
806.194	26937
806.336	27123
806.478	26887
806.62	26899
806.762	26967
806.904	27226
807.046	27679
807.188	27488
807.33	27355
807.472	27568
807.614	27332
807.756	27279
807.898	27230
808.04	27203
808.182	27176
808.324	27192
808.465	27176
808.607	27416
808.749	27568
808.891	27759
809.033	27633
809.174	27713
809.316	27587
809.458	27538
809.6	27629
809.741	27739
809.883	27724
810.025	27880
810.166	27747
810.308	27778
810.45	27766
810.591	27797
810.733	27622
810.875	27564
811.016	27431
811.158	27500
811.299	27622
811.441	27781
811.582	27660
811.724	27511
811.865	27450
812.007	27526
812.148	27519
812.29	27583
812.431	27800
812.573	27876
812.714	28010
812.855	28006
812.997	28211
813.138	28253
813.279	28215
813.421	28196
813.562	28139
813.703	27975
813.845	27739
813.986	27321
814.127	27226
814.268	27169
814.41	27245
814.551	27207
814.692	27355
814.833	27230
814.974	27188
815.115	27306
815.256	27241
815.397	26967
815.539	27062
815.68	26982
815.821	26948
815.962	26895
816.103	27089
816.244	26887
816.385	26845
816.526	26746
816.666	26648
816.807	26473
816.948	26636
817.089	26693
817.23	26587
817.371	26537
817.512	26537
817.653	26465
817.793	26476
817.934	26434
818.075	26412
818.216	26400
818.356	26453
818.497	26377
818.638	26195
818.778	26377
818.919	26278
819.06	26168
819.2	26465
819.341	26313
819.481	26423
819.622	26568
819.762	26701
819.903	26708
820.043	26796
820.184	26598
820.324	26442
820.465	26708
820.605	26583
820.746	26571
820.886	26339
821.026	26556
821.167	26537
821.307	26651
821.447	26526
821.588	26214
821.728	26355
821.868	26130
822.008	25860
822.149	26043
822.289	26058
822.429	25651
822.569	25826
822.709	25510
822.849	25388
822.99	25388
823.13	25411
823.27	25407
823.41	25285
823.55	25194
823.69	25346
823.83	25278
823.97	25434
824.11	25152
824.25	25034
824.389	25107
824.529	25156
824.669	25221
824.809	25194
824.949	25206
825.089	25179
825.228	24985
825.368	24951
825.508	25000
825.648	25084
825.787	24943
825.927	25099
826.067	24829
826.206	24966
826.346	25050
826.485	24947
826.625	24943
826.765	25000
826.904	25053
827.044	24734
827.183	24696
827.323	24612
827.462	24795
827.601	24654
827.741	24700
827.88	24639
828.02	24536
828.159	24582
828.298	24749
828.437	24734
828.577	24738
828.716	24776
828.855	24642
828.994	24445
829.134	24365
829.273	24365
829.412	24437
829.551	24285
829.69	24277
829.829	24494
829.968	24505
830.107	24494
830.246	24380
830.385	24315
830.524	24315
830.663	24106
830.802	23969
830.941	23942
831.08	23775
831.219	23889
831.357	23946
831.496	24178
831.635	23999
831.774	23779
831.913	23794
832.051	23726
832.19	23760
832.329	23786
832.467	23642
832.606	23524
832.744	23592
832.883	23634
833.022	23554
833.16	23726
833.299	23672
833.437	23710
833.576	23661
833.714	23775
833.852	23771
833.991	23737
834.129	23832
834.267	23710
834.406	23707
834.544	23703
834.682	23653
834.821	23687
834.959	23809
835.097	23623
835.235	23726
835.373	23646
835.511	23558
835.65	23478
835.788	23668
835.926	23421
836.064	23478
836.202	23353
836.34	23554
836.478	23592
836.615	23459
836.753	23604
836.891	23528
837.029	23520
837.167	23592
837.305	23288
837.443	23376
837.58	23395
837.718	23349
837.856	23528
837.993	23372
838.131	23337
838.269	23250
838.406	23181
838.544	23223
838.681	23025
838.819	22961
838.956	22759
839.094	22858
839.231	22862
839.369	23010
839.506	23197
839.643	23181
839.781	22850
839.918	22809
840.055	22881
840.193	22820
840.33	22778
840.467	22729
840.604	22809
840.742	23010
840.879	22672
841.016	22641
841.153	22664
841.29	22900
841.427	22790
841.564	22782
841.701	22797
841.838	22672
841.975	22710
842.112	22630
842.249	22599
842.385	22478
842.522	22748
842.659	22573
842.796	22478
842.933	22531
843.069	22455
843.206	22538
843.343	22478
843.479	22447
843.616	22497
843.752	22344
843.889	22417
844.025	22367
844.162	22192
844.298	22398
844.435	22188
844.571	22348
844.708	22268
844.844	22428
844.98	22497
845.117	22481
845.253	22166
845.389	22135
845.525	22154
845.661	22116
845.798	22150
845.934	22135
846.07	22063
846.206	22154
846.342	22120
846.478	22051
846.614	21888
846.75	21679
846.886	21816
847.022	21785
847.158	21915
847.294	21713
847.429	21827
847.565	21766
847.701	21922
847.837	21473
847.972	21458
848.108	21538
848.244	21580
848.379	21401
848.515	21473
848.65	21199
848.786	21439
848.921	21370
849.057	21481
849.192	21420
849.328	21344
849.463	21420
849.598	21329
849.734	21348
849.869	21131
850.004	21135
850.14	21123
850.275	21108
850.41	21062
850.545	20998
850.68	21154
850.815	21047
850.95	21089
851.085	21287
851.22	21344
851.355	21089
851.49	20990
851.625	21085
851.76	21104
851.895	21020
852.03	21047
852.165	21169
852.299	21077
852.434	21188
852.569	21142
852.703	21226
852.838	21150
852.973	21351
853.107	21260
853.242	21093
853.376	21036
853.511	20842
853.645	20948
853.78	21036
853.914	21127
854.048	20842
854.183	20899
854.317	21028
854.451	21165
854.585	20952
854.72	20941
854.854	21020
854.988	20800
855.122	21005
855.256	20754
855.39	20933
855.524	20967
855.658	21081
855.792	21089
855.926	20986
856.06	21039
856.194	21039
856.327	20956
856.461	21001
856.595	20967
856.729	20998
856.862	20982
856.996	21005
857.13	20986
857.263	21051
857.397	21039
857.53	20929
857.664	21020
857.797	20960
857.931	21119
858.064	20982
858.197	21062
858.331	20948
858.464	20944
858.597	20853
858.731	20826
858.864	20937
858.997	20960
859.13	20883
859.263	20986
859.396	20952
859.529	21005
859.662	20895
859.795	20906
859.928	21013
860.061	21119
860.194	21260
860.327	21058
860.46	21028
860.592	21093
860.725	21169
860.858	21070
860.99	21074
861.123	20864
861.256	20944
861.388	20975
861.521	21599
861.653	20967
861.786	20762
861.918	20819
862.05	20819
862.183	20895
862.315	20849
862.447	20979
862.58	20925
862.712	20648
862.844	20594
862.976	20769
863.108	20701
863.24	21211
863.372	20530
863.504	20636
863.636	20568
863.768	20712
863.9	20693
864.032	20697
864.164	20609
864.296	20670
864.428	20811
864.559	20689
864.691	20853
864.823	20670
864.954	20777
865.086	20609
865.217	20636
865.349	20514
865.48	20606
865.612	20590
865.743	20716
865.875	20648
866.006	20545
866.137	20636
866.269	20621
866.4	20609
866.531	20636
866.662	20431
866.793	20454
866.924	20461
867.055	20568
867.186	20427
867.317	20590
867.448	20450
867.579	20552
867.71	20434
867.841	20370
867.972	20476
868.103	20480
868.233	20446
868.364	20495
868.495	20503
868.625	20594
868.756	20568
868.886	20720
869.017	20724
869.147	20800
869.278	20963
869.408	20826
869.539	20724
869.669	20853
869.799	20792
869.929	20868
870.06	20876
870.19	21074
870.32	21154
870.45	21127
870.58	21123
870.71	21317
870.84	21294
870.97	21100
871.1	21291
871.23	21374
871.36	21260
871.489	21256
871.619	21420
871.749	21382
871.879	21329
872.008	21340
872.138	21408
872.267	21302
872.397	21188
872.526	21272
872.656	21169
872.785	21154
872.915	21397
873.044	21408
873.173	21272
873.303	21424
873.432	21492
873.561	21507
873.69	21249
873.819	21332
873.948	21424
874.077	21386
874.206	21405
874.335	21348
874.464	21530
874.593	21599
874.722	21519
874.851	21557
874.979	21568
875.108	21660
875.237	21553
875.365	21504
875.494	21469
875.623	21671
875.751	21431
875.88	21717
876.008	21698
876.136	21812
876.265	21964
876.393	22143
876.521	22112
876.65	22120
876.778	22112
876.906	21991
877.034	21911
877.162	21998
877.29	21895
877.418	21926
877.546	22002
877.674	22044
877.802	21949
877.93	21945
878.058	21861
878.185	21899
878.313	21915
878.441	21968
878.568	21610
878.696	21987
878.824	21945
878.951	22010
879.079	22242
879.206	22337
879.333	22116
879.461	21979
879.588	22078
879.715	22177
879.842	22261
879.97	22124
880.097	21835
880.224	21736
880.351	21808
880.478	21812
880.605	21842
880.732	21656
880.859	21964
880.986	21766
881.112	21819
881.239	21591
881.366	21583
881.493	21538
881.619	21329
881.746	21496
881.872	21344
881.999	21306
882.125	21348
882.252	21416
882.378	21348
882.505	21507
882.631	21268
882.757	21077
882.883	21180
883.01	21116
883.136	20921
883.262	20918
883.388	20921
883.514	20990
883.64	21093
883.766	21017
883.892	20864
884.018	20853
884.143	20887
884.269	21039
884.395	20777
884.52	20701
884.646	20693
884.772	20674
884.897	20537
885.023	20811
885.148	20895
885.274	20800
885.399	20845
885.524	20678
885.65	20712
885.775	20693
885.9	20712
886.025	20750
886.15	20765
886.275	20708
886.4	20606
886.525	20739
886.65	20583
886.775	20640
886.9	20800
887.025	20921
887.149	20743
887.274	20568
887.399	20415
887.523	20488
887.648	20374
887.773	20332
887.897	20556
888.021	20469
888.146	20324
888.27	20629
888.395	20621
888.519	20461
888.643	20533
888.767	20454
888.891	20336
889.015	20202
889.139	20328
889.263	20317
889.387	20271
889.511	20434
889.635	20404
889.759	20351
889.883	20168
890.006	20267
890.13	20469
890.254	20199
890.377	20263
890.501	20115
890.624	20062
890.748	20039
890.871	19883
890.995	19860
891.118	19830
891.241	19856
891.364	19803
891.488	19837
891.611	19883
891.734	19780
891.857	19955
891.98	19837
892.103	19928
892.226	19879
892.349	19795
892.471	19780
892.594	19746
892.717	19750
892.839	19734
892.962	19769
893.085	19852
893.207	19803
893.33	19693
893.452	19696
893.575	19845
893.697	19753
893.819	19807
893.941	19951
894.064	19890
894.186	19887
894.308	19632
894.43	19970
894.552	19906
894.674	19875
894.796	19647
894.918	19647
895.04	19689
895.161	19913
895.283	19818
895.405	19780
895.526	19704
895.648	19784
895.769	19685
895.891	19772
896.012	19826
896.134	19849
896.255	19788
896.376	19788
896.498	19784
896.619	19811
896.74	19818
896.861	19898
896.982	20054
897.103	20233
897.224	19997
897.345	19993
897.466	19890
897.587	19959
897.708	20214
897.828	20054
897.949	19982
898.07	19769
898.19	20062
898.311	20081
898.431	20050
898.552	20039
898.672	20065
898.792	20039
898.913	20069
899.033	19993
899.153	19879
899.273	19635
899.393	19761
899.513	19830
899.633	19811
899.753	19731
899.873	19860
899.993	19803
900.113	19594
900.232	19887
900.352	19677
900.472	19556
900.591	19510
900.711	19586
900.83	19476
900.95	19639
901.069	19662
901.189	19476
901.308	19304
901.427	19107
901.546	19152
901.665	19126
901.784	19156
901.904	19061
902.023	18863
902.141	18711
902.26	18738
902.379	18650
902.498	18658
902.617	18684
902.735	18677
902.854	18677
902.973	18540
903.091	18353
903.21	18342
903.328	18338
903.446	18235
903.565	18098
903.683	18228
903.801	17866
903.919	18114
904.038	18068
904.156	17969
904.274	17942
904.392	17961
904.51	17885
904.627	17885
904.745	17870
904.863	18049
904.981	17775
905.098	17562
905.216	17566
905.334	17558
905.451	17646
905.569	17577
905.686	17524
905.803	17608
905.921	17303
906.038	17433
906.155	17410
906.272	17223
906.389	17189
906.506	17113
906.623	17193
906.74	17105
906.857	16930
906.974	17083
907.091	17060
907.208	17204
907.324	17121
907.441	16923
907.557	16885
907.674	16809
907.79	16748
907.907	16831
908.023	16771
908.139	16706
908.256	16831
908.372	16782
908.488	16725
908.604	16607
908.72	16538
908.836	16497
908.952	16599
909.068	16535
909.184	16626
909.3	16519
909.415	16558
909.531	16542
909.647	16428
909.762	16207
909.878	16238
909.993	16246
910.108	16143
910.224	16242
910.339	16230
910.454	16162
910.57	16048
910.685	16025
910.8	16314
910.915	16230
911.03	16048
911.145	15835
911.259	15926
911.374	15937
911.489	15770
911.604	15793
911.718	15679
911.833	15656
911.947	15431
912.062	15450
912.176	15542
912.291	15622
912.405	15637
912.519	15785
912.633	15793
912.748	15679
912.862	15591
912.976	15557
913.09	15351
913.204	15443
913.318	15367
913.431	15580
913.545	15454
913.659	15454
913.772	15351
913.886	15233
914	15192
914.113	15348
914.226	15374
914.34	15332
914.453	15108
914.566	15260
914.68	15036
914.793	15112
914.906	14918
915.019	14941
915.132	14811
915.245	14883
915.358	14929
915.47	14849
915.583	14910
915.696	14883
915.809	14994
915.921	14952
916.034	14895
916.146	14777
916.259	14640
916.371	14773
916.483	14758
916.595	14739
916.708	14689
916.82	14663
916.932	14587
917.044	14705
917.156	14587
917.268	14533
917.38	14564
917.491	14434
917.603	14518
917.715	14564
917.826	14621
917.938	14526
918.049	14389
918.161	14530
918.272	14560
918.384	14549
918.495	14434
918.606	14275
918.717	14183
918.828	14324
918.939	14366
919.05	14248
919.161	14278
919.272	14077
919.383	14195
919.494	14301
919.604	14507
919.715	14309
919.826	14225
919.936	14161
920.047	14309
920.157	14256
920.267	14503
920.378	14168
920.488	14282
920.598	14412
920.708	14495
920.818	14419
920.928	14313
921.038	14533
921.148	14480
921.258	14210
921.368	14172
921.477	14005
921.587	13967
921.697	13879
921.806	14130
921.916	13860
922.025	13765
922.134	13639
922.244	13620
922.353	13670
922.462	13567
922.571	13502
922.68	13396
922.789	13312
922.898	13316
923.007	13285
923.116	13304
923.224	13244
923.333	13175
923.442	13175
923.55	13171
923.659	13156
923.767	13228
923.876	13088
923.984	13076
924.092	13080
924.201	12985
924.309	13023
924.417	13061
924.525	12924
924.633	12954
924.741	13864
924.849	12738
924.956	12844
925.064	12802
925.172	12582
925.279	12665
925.387	12688
925.494	12730
925.602	12802
925.709	12760
925.816	12601
925.924	12646
926.031	12738
926.138	12639
926.245	12677
926.352	12612
926.459	12749
926.566	12757
926.673	12601
926.779	12540
926.886	12464
926.993	12353
927.099	12319
927.206	12319
927.312	12235
927.419	12388
927.525	12346
927.631	12384
927.737	12182
927.843	12117
927.95	12034
928.056	12167
928.162	12110
928.267	12133
928.373	12703
928.479	12148
928.585	11912
928.69	12102
928.796	12163
928.901	12026
929.007	11813
929.112	11996
929.218	11958
929.323	11958
929.428	11901
929.533	11980
929.638	11760
929.743	11805
929.848	11859
929.953	11878
930.058	11779
930.163	11471
930.267	11566
930.372	11672
930.477	11539
930.581	11851
930.685	11657
930.79	11417
930.894	11520
930.998	11364
931.103	11516
931.207	11197
931.311	11079
931.415	11014
931.519	10847
931.623	10771
