Data from test_V78500241_2040.txt Node
Date: Fri Mar 25 15:55:55 CST 2022
User: usil
Spectrometer: V785-0024
Trigger mode: 0
Integration Time (sec): 4.000000E-1
Scans to average: 1
Nonlinearity correction enabled: false
Boxcar width: 0
Storing dark spectrum: false
XAxis mode: Wavelengths
Number of Pixels in Spectrum: 1024
>>>>>Begin Spectral Data<<<<<
801.071	28873
801.214	28847
801.356	28679
801.499	28626
801.641	28398
801.783	28493
801.926	28451
802.068	28443
802.211	28344
802.353	28257
802.496	28166
802.638	28253
802.78	28093
802.923	28063
803.065	27994
803.208	28063
803.35	28230
803.492	28337
803.635	28447
803.777	28226
803.919	28390
804.061	28748
804.204	28538
804.346	28401
804.488	28303
804.63	28405
804.773	28344
804.915	28405
805.057	28546
805.199	28325
805.341	28417
805.483	28706
805.626	28440
805.768	28603
805.91	28618
806.052	28618
806.194	28432
806.336	28786
806.478	28641
806.62	28649
806.762	28584
806.904	28999
807.046	29140
807.188	28858
807.33	29003
807.472	29113
807.614	28877
807.756	29029
807.898	28816
808.04	28790
808.182	28790
808.324	28930
808.465	28987
808.607	29166
808.749	29315
808.891	29353
809.033	29398
809.174	29231
809.316	29208
809.458	29235
809.6	29204
809.741	29334
809.883	29414
810.025	29722
810.166	29581
810.308	29482
810.45	29589
810.591	29433
810.733	29246
810.875	29174
811.016	29155
811.158	29105
811.299	29349
811.441	29490
811.582	29585
811.724	29318
811.865	29284
812.007	29360
812.148	29273
812.29	29349
812.431	29482
812.573	29630
812.714	29627
812.855	29832
812.997	29901
813.138	30091
813.279	29828
813.421	29836
813.562	29840
813.703	29592
813.845	29535
813.986	29334
814.127	29121
814.268	28911
814.41	28995
814.551	28968
814.692	29071
814.833	28938
814.974	28877
815.115	29071
815.256	28869
815.397	28881
815.539	28805
815.68	28763
815.821	28759
815.962	28797
816.103	28927
816.244	28649
816.385	28569
816.526	28698
816.666	28451
816.807	28314
816.948	28306
817.089	28470
817.23	28455
817.371	28272
817.512	28238
817.653	28116
817.793	28188
817.934	28230
818.075	28322
818.216	28249
818.356	28265
818.497	28128
818.638	28036
818.778	28002
818.919	28192
819.06	28128
819.2	28131
819.341	28272
819.481	28379
819.622	28535
819.762	28786
819.903	28554
820.043	28630
820.184	28394
820.324	28398
820.465	28668
820.605	28542
820.746	28394
820.886	28280
821.026	28440
821.167	28409
821.307	28466
821.447	28451
821.588	28230
821.728	28109
821.868	27975
822.008	27732
822.149	27838
822.289	27751
822.429	27599
822.569	27466
822.709	27641
822.849	27233
822.99	27416
823.13	27317
823.27	27211
823.41	27150
823.55	26967
823.69	27184
823.83	27131
823.97	27169
824.11	26963
824.25	26982
824.389	26948
824.529	27146
824.669	26975
824.809	27096
824.949	27214
825.089	27104
825.228	27058
825.368	26708
825.508	26800
825.648	26773
825.787	26914
825.927	26883
826.067	26727
826.206	27032
826.346	26891
826.485	27028
826.625	26891
826.765	27043
826.904	26929
827.044	26625
827.183	26609
827.323	26450
827.462	26560
827.601	26533
827.741	26655
827.88	26659
828.02	26533
828.159	26533
828.298	26507
828.437	26522
828.577	26423
828.716	26716
828.855	26438
828.994	26374
829.134	26202
829.273	26256
829.412	26294
829.551	26244
829.69	26214
829.829	26290
829.968	26298
830.107	26484
830.246	26271
830.385	26294
830.524	26092
830.663	26172
830.802	25902
830.941	25871
831.08	25818
831.219	25868
831.357	25814
831.496	26111
831.635	25917
831.774	25681
831.913	25818
832.051	25674
832.19	25723
832.329	25559
832.467	25540
832.606	25495
832.744	25491
832.883	25419
833.022	25472
833.16	25590
833.299	25605
833.437	25468
833.576	25597
833.714	25605
833.852	25712
833.991	25483
834.129	25693
834.267	25556
834.406	25563
834.544	25586
834.682	25540
834.821	25537
834.959	25757
835.097	25487
835.235	25430
835.373	25563
835.511	25571
835.65	25487
835.788	25457
835.926	25324
836.064	25228
836.202	25171
836.34	25441
836.478	25441
836.615	25419
836.753	25384
836.891	25518
837.029	25438
837.167	25343
837.305	25289
837.443	25274
837.58	25266
837.718	25282
837.856	25316
837.993	25042
838.131	25145
838.269	25099
838.406	25107
838.544	25072
838.681	24844
838.819	24875
838.956	24707
839.094	24631
839.231	24738
839.369	24730
839.506	25072
839.643	25065
839.781	24707
839.918	24578
840.055	24616
840.193	24753
840.33	24669
840.467	24757
840.604	24795
840.742	24897
840.879	24513
841.016	24551
841.153	24483
841.29	24601
841.427	24612
841.564	24639
841.701	24547
841.838	24445
841.975	24456
842.112	24467
842.249	24399
842.385	24319
842.522	24559
842.659	24346
842.796	24319
842.933	24338
843.069	24292
843.206	24338
843.343	24334
843.479	24498
843.616	24357
843.752	24194
843.889	24140
844.025	24292
844.162	23999
844.298	24376
844.435	24125
844.571	24129
844.708	24213
844.844	24308
844.98	24224
845.117	24239
845.253	23988
845.389	23977
845.525	24049
845.661	24026
845.798	23771
845.934	23878
846.07	23764
846.206	23813
846.342	24015
846.478	23741
846.614	23570
846.75	23493
846.886	23615
847.022	23547
847.158	23665
847.294	23611
847.429	23676
847.565	23554
847.701	23794
847.837	23379
847.972	23231
848.108	23425
848.244	23398
848.379	23193
848.515	23147
848.65	23159
848.786	23242
848.921	23159
849.057	23269
849.192	23235
849.328	23235
849.463	23056
849.598	23098
849.734	23022
849.869	23006
850.004	22892
850.14	22934
850.275	22881
850.41	22850
850.545	22892
850.68	22938
850.815	22946
850.95	22835
851.085	23128
851.22	22991
851.355	22923
851.49	22965
851.625	22923
851.76	22999
851.895	22843
852.03	22831
852.165	22999
852.299	23014
852.434	23025
852.569	23010
852.703	22976
852.838	22968
852.973	23041
853.107	23064
853.242	22843
853.376	22736
853.511	22584
853.645	22702
853.78	22881
853.914	22828
854.048	22744
854.183	22850
854.317	22725
854.451	23102
854.585	22858
854.72	22713
854.854	22797
854.988	22710
855.122	22675
855.256	22626
855.39	22767
855.524	22839
855.658	22778
855.792	22824
855.926	22793
856.06	22862
856.194	22904
856.327	22767
856.461	22664
856.595	22702
856.729	22771
856.862	22858
856.996	22911
857.13	22835
857.263	22866
857.397	22809
857.53	22660
857.664	22702
857.797	22755
857.931	22843
858.064	22866
858.197	22820
858.331	22592
858.464	22672
858.597	22660
858.731	22641
858.864	22691
858.997	22759
859.13	22831
859.263	22729
859.396	22793
859.529	22736
859.662	22752
859.795	22668
859.928	22721
860.061	22866
860.194	23006
860.327	22786
860.46	22733
860.592	22873
860.725	22927
860.858	22881
860.99	22740
861.123	22793
861.256	22649
861.388	22698
861.521	23459
861.653	22565
861.786	22451
861.918	22531
862.05	22542
862.183	22592
862.315	22656
862.447	22755
862.58	22653
862.712	22360
862.844	22474
862.976	22451
863.108	22512
863.24	22927
863.372	22310
863.504	22455
863.636	22531
863.768	22557
863.9	22337
864.032	22363
864.164	22291
864.296	22440
864.428	22679
864.559	22432
864.691	22569
864.823	22405
864.954	22504
865.086	22409
865.217	22466
865.349	22192
865.48	22211
865.612	22265
865.743	22421
865.875	22325
866.006	22325
866.137	22325
866.269	22303
866.4	22322
866.531	22291
866.662	22207
866.793	22166
866.924	22230
867.055	22375
867.186	22215
867.317	22238
867.448	22325
867.579	22226
867.71	22044
867.841	22181
867.972	22116
868.103	22181
868.233	22169
868.364	22147
868.495	22413
868.625	22451
868.756	22580
868.886	22375
869.017	22459
869.147	22592
869.278	22637
869.408	22428
869.539	22367
869.669	22615
869.799	22516
869.929	22573
870.06	22656
870.19	22911
870.32	22782
870.45	22908
870.58	22908
870.71	22889
870.84	22976
870.97	22915
871.1	22961
871.23	23018
871.36	23083
871.489	22953
871.619	23025
871.749	23086
871.879	23086
872.008	23311
872.138	23003
872.267	23071
872.397	22984
872.526	22889
872.656	22828
872.785	22843
872.915	23143
873.044	23132
873.173	23136
873.303	23155
873.432	23086
873.561	23220
873.69	23151
873.819	23033
873.948	23170
874.077	23006
874.206	23136
874.335	23060
874.464	23124
874.593	23311
874.722	23223
874.851	23311
874.979	23265
875.108	23299
875.237	23261
875.365	23261
875.494	23265
875.623	23303
875.751	23143
875.88	23372
876.008	23452
876.136	23490
876.265	23764
876.393	23912
876.521	23855
876.65	23813
876.778	23710
876.906	23577
877.034	23684
877.162	23634
877.29	23577
877.418	23661
877.546	23623
877.674	23752
877.802	23558
877.93	23600
878.058	23596
878.185	23330
878.313	23547
878.441	23623
878.568	23360
878.696	23509
878.824	23646
878.951	23680
879.079	23764
879.206	23958
879.333	23889
879.461	23562
879.588	23859
879.715	24003
879.842	23977
879.97	23756
880.097	23490
880.224	23429
880.351	23573
880.478	23520
880.605	23566
880.732	23436
880.859	23661
880.986	23406
881.112	23493
881.239	23299
881.366	23204
881.493	23064
881.619	23025
881.746	23033
881.872	23102
881.999	22923
882.125	22889
882.252	23090
882.378	23071
882.505	23041
882.631	22831
882.757	22706
882.883	22793
883.01	22729
883.136	22653
883.262	22459
883.388	22554
883.514	22580
883.64	22687
883.766	22573
883.892	22428
884.018	22474
884.143	22573
884.269	22790
884.395	22344
884.52	22253
884.646	22299
884.772	22405
884.897	22234
885.023	22238
885.148	22390
885.274	22500
885.399	22379
885.524	22249
885.65	22344
885.775	22265
885.9	22329
886.025	22398
886.15	22386
886.275	22261
886.4	22261
886.525	22280
886.65	22192
886.775	22223
886.9	22421
887.025	22455
887.149	22295
887.274	22143
887.399	22059
887.523	21987
887.648	22029
887.773	22032
887.897	22139
888.021	22169
888.146	22101
888.27	22253
888.395	22070
888.519	22139
888.643	22101
888.767	22040
888.891	22029
889.015	21838
889.139	21979
889.263	21747
889.387	21911
889.511	22021
889.635	21998
889.759	21827
889.883	21876
890.006	21907
890.13	21804
890.254	21720
890.377	21732
890.501	21709
890.624	21542
890.748	21629
890.871	21386
890.995	21359
891.118	21359
891.241	21416
891.364	21405
891.488	21500
891.611	21351
891.734	21416
891.857	21458
891.98	21367
892.103	21500
892.226	21367
892.349	21370
892.471	21123
892.594	21230
892.717	21321
892.839	21306
892.962	21249
893.085	21313
893.207	21431
893.33	21272
893.452	21272
893.575	21317
893.697	21222
893.819	21374
893.941	21507
894.064	21374
894.186	21218
894.308	21192
894.43	21435
894.552	21466
894.674	21386
894.796	21150
894.918	21218
895.04	21374
895.161	21355
895.283	21298
895.405	21207
895.526	21283
895.648	21260
895.769	21325
895.891	21279
896.012	21416
896.134	21310
896.255	21378
896.376	21287
896.498	21298
896.619	21096
896.74	21279
896.861	21355
896.982	21603
897.103	21694
897.224	21534
897.345	21530
897.466	21496
897.587	21519
897.708	21553
897.828	21450
897.949	21374
898.07	21176
898.19	21363
898.311	21515
898.431	21378
898.552	21401
898.672	21488
898.792	21519
898.913	21485
899.033	21329
899.153	21199
899.273	21218
899.393	21302
899.513	21256
899.633	21218
899.753	21317
899.873	21188
899.993	21203
900.113	21024
900.232	21055
900.352	21116
900.472	20921
900.591	20872
900.711	20986
900.83	20895
900.95	21070
901.069	20994
901.189	20765
901.308	20575
901.427	20590
901.546	20415
901.665	20598
901.784	20556
901.904	20336
902.023	20358
902.141	19974
902.26	20054
902.379	20046
902.498	20001
902.617	20020
902.735	19993
902.854	19982
902.973	19852
903.091	19616
903.21	19670
903.328	19586
903.446	19613
903.565	19445
903.683	19468
903.801	19403
903.919	19419
904.038	19392
904.156	19259
904.274	19274
904.392	19171
904.51	19202
904.627	19194
904.745	19358
904.863	19304
904.981	18951
905.098	18962
905.216	18909
905.334	18954
905.451	18928
905.569	18852
905.686	18878
905.803	18886
905.921	18544
906.038	18764
906.155	18696
906.272	18673
906.389	18604
906.506	18384
906.623	18437
906.74	18471
906.857	18243
906.974	18308
907.091	18528
907.208	18570
907.324	18357
907.441	18490
907.557	18049
907.674	18133
907.79	18045
907.907	18152
908.023	18079
908.139	18129
908.256	17988
908.372	18079
908.488	17904
908.604	17798
908.72	17794
908.836	17794
908.952	17805
909.068	17760
909.184	17992
909.3	17866
909.415	17813
909.531	17855
909.647	17452
909.762	17566
909.878	17505
909.993	17539
910.108	17558
910.224	17505
910.339	17528
910.454	17345
910.57	17292
910.685	17292
910.8	17493
910.915	17455
911.03	17417
911.145	17075
911.259	17083
911.374	17045
911.489	17071
911.604	16900
911.718	16763
911.833	16797
911.947	16797
912.062	16691
912.176	16858
912.291	16850
912.405	16839
912.519	17090
912.633	17033
912.748	16938
912.862	16816
912.976	16740
913.09	16675
913.204	16599
913.318	16687
913.431	16744
913.545	16713
913.659	16763
913.772	16577
913.886	16538
914	16481
914.113	16577
914.226	16561
914.34	16573
914.453	16405
914.566	16451
914.68	16284
914.793	16344
914.906	16150
915.019	16082
915.132	16013
915.245	15998
915.358	15983
915.47	16010
915.583	15953
915.696	16071
915.809	16090
915.921	16078
916.034	15964
916.146	15892
916.259	15911
916.371	15991
916.483	15949
916.595	15808
916.708	15835
916.82	15827
916.932	15816
917.044	15823
917.156	15736
917.268	15599
917.38	15694
917.491	15622
917.603	15648
917.715	15747
917.826	15663
917.938	15633
918.049	15439
918.161	15466
918.272	15724
918.384	15675
918.495	15526
918.606	15496
918.717	15359
918.828	15450
918.939	15340
919.05	15302
919.161	15355
919.272	15119
919.383	15195
919.494	15401
919.604	15599
919.715	15416
919.826	15188
919.936	15256
920.047	15473
920.157	15325
920.267	15466
920.378	15287
920.488	15344
920.598	15515
920.708	15549
920.818	15530
920.928	15454
921.038	15511
921.148	15511
921.258	15252
921.368	15066
921.477	15051
921.587	14986
921.697	14941
921.806	14998
921.916	14906
922.025	14739
922.134	14663
922.244	14663
922.353	14735
922.462	14621
922.571	14503
922.68	14290
922.789	14336
922.898	14427
923.007	14282
923.116	14313
923.224	14309
923.333	14244
923.442	14183
923.55	14096
923.659	14149
923.767	14119
923.876	14050
923.984	14138
924.092	14050
924.201	14001
924.309	13955
924.417	13989
924.525	13906
924.633	13841
924.741	14800
924.849	13662
924.956	13833
925.064	13761
925.172	13556
925.279	13651
925.387	13613
925.494	13674
925.602	13868
925.709	13685
925.816	13521
925.924	13616
926.031	13636
926.138	13628
926.245	13590
926.352	13540
926.459	13632
926.566	13662
926.673	13495
926.779	13441
926.886	13289
926.993	13217
927.099	13255
927.206	13209
927.312	13225
927.419	13217
927.525	13285
927.631	13217
927.737	13080
927.843	13053
927.95	12935
928.056	13015
928.162	13008
928.267	12989
928.373	13643
928.479	13126
928.585	12806
928.69	12920
928.796	13031
928.901	12939
929.007	12730
929.112	12859
929.218	12909
929.323	12764
929.428	12688
929.533	12814
929.638	12760
929.743	12650
929.848	12703
929.953	12753
930.058	12597
930.163	12403
930.267	12365
930.372	12544
930.477	12399
930.581	12582
930.685	12361
930.79	12243
930.894	12346
930.998	12254
931.103	12418
931.207	12049
931.311	11889
931.415	11866
931.519	11737
931.623	11592
