Data from test_V78500241_988.txt Node
Date: Fri Mar 25 15:48:38 CST 2022
User: usil
Spectrometer: V785-0024
Trigger mode: 0
Integration Time (sec): 4.000000E-1
Scans to average: 1
Nonlinearity correction enabled: false
Boxcar width: 0
Storing dark spectrum: false
XAxis mode: Wavelengths
Number of Pixels in Spectrum: 1024
>>>>>Begin Spectral Data<<<<<
801.071	28173
801.214	28363
801.356	27922
801.499	27804
801.641	27793
801.783	27717
801.926	27797
802.068	27728
802.211	27846
802.353	27804
802.496	27515
802.638	27523
802.78	27462
802.923	27416
803.065	27378
803.208	27348
803.35	27511
803.492	27576
803.635	27603
803.777	27561
803.919	27603
804.061	28006
804.204	27694
804.346	27549
804.488	27367
804.63	27549
804.773	27641
804.915	27736
805.057	27785
805.199	27660
805.341	27686
805.483	27949
805.626	27926
805.768	27717
805.91	27854
806.052	27831
806.194	27778
806.336	28036
806.478	27926
806.62	27804
806.762	27968
806.904	28131
807.046	28310
807.188	28230
807.33	28253
807.472	28318
807.614	28249
807.756	28360
807.898	28188
808.04	28013
808.182	28112
808.324	28116
808.465	28124
808.607	28284
808.749	28527
808.891	28622
809.033	28831
809.174	28672
809.316	28386
809.458	28413
809.6	28424
809.741	28561
809.883	28759
810.025	28835
810.166	28790
810.308	28835
810.45	28736
810.591	28565
810.733	28592
810.875	28478
811.016	28440
811.158	28409
811.299	28561
811.441	28831
811.582	28641
811.724	28653
811.865	28375
812.007	28523
812.148	28565
812.29	28417
812.431	28763
812.573	28915
812.714	28850
812.855	29102
812.997	29155
813.138	29212
813.279	29181
813.421	29109
813.562	29064
813.703	28809
813.845	28580
813.986	28398
814.127	28295
814.268	28177
814.41	28318
814.551	28200
814.692	28257
814.833	28074
814.974	28059
815.115	28249
815.256	27983
815.397	28040
815.539	28082
815.68	27861
815.821	27903
815.962	28257
816.103	28013
816.244	27876
816.385	27694
816.526	27793
816.666	27557
816.807	27515
816.948	27759
817.089	27591
817.23	27583
817.371	27462
817.512	27553
817.653	27488
817.793	27469
817.934	27424
818.075	27496
818.216	27492
818.356	27603
818.497	27329
818.638	27302
818.778	27241
818.919	27283
819.06	27138
819.2	27507
819.341	27405
819.481	27447
819.622	27599
819.762	27926
819.903	27812
820.043	27633
820.184	27603
820.324	27717
820.465	27633
820.605	27564
820.746	27488
820.886	27481
821.026	27603
821.167	27576
821.307	27633
821.447	27534
821.588	27511
821.728	27199
821.868	27074
822.008	27081
822.149	26944
822.289	26971
822.429	26712
822.569	26655
822.709	26708
822.849	26503
822.99	26461
823.13	26362
823.27	26347
823.41	26434
823.55	26088
823.69	26396
823.83	26267
823.97	26263
824.11	26122
824.25	26176
824.389	26115
824.529	26313
824.669	26218
824.809	26176
824.949	26343
825.089	26248
825.228	26229
825.368	26024
825.508	25864
825.648	25970
825.787	25963
825.927	26062
826.067	26043
826.206	26043
826.346	26111
826.485	26077
826.625	26043
826.765	26065
826.904	25963
827.044	25651
827.183	25864
827.323	25746
827.462	25700
827.601	25799
827.741	25750
827.88	25795
828.02	25704
828.159	25708
828.298	25708
828.437	25704
828.577	25624
828.716	25818
828.855	25685
828.994	25525
829.134	25369
829.273	25460
829.412	25346
829.551	25400
829.69	25373
829.829	25430
829.968	25358
830.107	25533
830.246	25472
830.385	25407
830.524	25282
830.663	25183
830.802	25190
830.941	25168
831.08	24977
831.219	24970
831.357	25057
831.496	25285
831.635	25065
831.774	25061
831.913	24947
832.051	24814
832.19	24798
832.329	24673
832.467	24817
832.606	24661
832.744	24627
832.883	24589
833.022	24658
833.16	24646
833.299	24707
833.437	24806
833.576	24814
833.714	24798
833.852	24791
833.991	24703
834.129	24886
834.267	24871
834.406	24753
834.544	24715
834.682	24730
834.821	24875
834.959	25046
835.097	24741
835.235	24654
835.373	24719
835.511	24722
835.65	24665
835.788	24677
835.926	24369
836.064	24464
836.202	24475
836.34	24589
836.478	24612
836.615	24513
836.753	24505
836.891	24658
837.029	24650
837.167	24441
837.305	24380
837.443	24448
837.58	24311
837.718	24502
837.856	24323
837.993	24361
838.131	24369
838.269	24285
838.406	24270
838.544	24235
838.681	23942
838.819	24125
838.956	23969
839.094	24022
839.231	23851
839.369	24072
839.506	24152
839.643	24121
839.781	23969
839.918	23840
840.055	23874
840.193	23821
840.33	23779
840.467	23828
840.604	23805
840.742	24083
840.879	23707
841.016	23657
841.153	23600
841.29	23912
841.427	23893
841.564	23901
841.701	23764
841.838	23684
841.975	23687
842.112	23703
842.249	23653
842.385	23547
842.522	23745
842.659	23741
842.796	23425
842.933	23516
843.069	23452
843.206	23539
843.343	23528
843.479	23581
843.616	23497
843.752	23258
843.889	23345
844.025	23330
844.162	23433
844.298	23315
844.435	23334
844.571	23273
844.708	23193
844.844	23554
844.98	23379
845.117	23414
845.253	23337
845.389	23189
845.525	23326
845.661	23193
845.798	23132
845.934	23102
846.07	22984
846.206	23067
846.342	23235
846.478	23025
846.614	22843
846.75	22729
846.886	22694
847.022	22824
847.158	22706
847.294	22786
847.429	22778
847.565	22668
847.701	23003
847.837	22493
847.972	22466
848.108	22607
848.244	22679
848.379	22409
848.515	22367
848.65	22341
848.786	22398
848.921	22409
849.057	22523
849.192	22474
849.328	22329
849.463	22299
849.598	22268
849.734	22272
849.869	22063
850.004	22204
850.14	22211
850.275	22204
850.41	21953
850.545	22078
850.68	22078
850.815	22112
850.95	22143
851.085	22303
851.22	22074
851.355	22097
851.49	22036
851.625	22120
851.76	21953
851.895	21918
852.03	22082
852.165	22063
852.299	22219
852.434	22192
852.569	21998
852.703	22181
852.838	22067
852.973	22215
853.107	22238
853.242	22162
853.376	21823
853.511	21797
853.645	21915
853.78	22124
853.914	21895
854.048	21861
854.183	21884
854.317	21869
854.451	22131
854.585	21987
854.72	21816
854.854	22029
854.988	21804
855.122	21918
855.256	21876
855.39	21892
855.524	22078
855.658	22002
855.792	21808
855.926	22029
856.06	21953
856.194	22017
856.327	21960
856.461	21827
856.595	21884
856.729	21857
856.862	21998
856.996	21979
857.13	22051
857.263	22078
857.397	22078
857.53	21854
857.664	21956
857.797	22147
857.931	22128
858.064	21827
858.197	22082
858.331	21873
858.464	21850
858.597	21854
858.731	21937
858.864	21861
858.997	21800
859.13	22017
859.263	22078
859.396	22029
859.529	21945
859.662	21937
859.795	21835
859.928	21831
860.061	22097
860.194	22154
860.327	21911
860.46	21926
860.592	22044
860.725	22116
860.858	22074
860.99	21937
861.123	21850
861.256	21785
861.388	21823
861.521	22531
861.653	21816
861.786	21816
861.918	21759
862.05	21888
862.183	21789
862.315	21842
862.447	21964
862.58	21694
862.712	21606
862.844	21644
862.976	21804
863.108	21785
863.24	22063
863.372	21530
863.504	21675
863.636	21622
863.768	21701
863.9	21629
864.032	21610
864.164	21545
864.296	21713
864.428	21812
864.559	21732
864.691	21724
864.823	21686
864.954	21682
865.086	21587
865.217	21549
865.349	21435
865.48	21443
865.612	21606
865.743	21743
865.875	21663
866.006	21549
866.137	21507
866.269	21405
866.4	21507
866.531	21431
866.662	21557
866.793	21420
866.924	21424
867.055	21564
867.186	21469
867.317	21542
867.448	21389
867.579	21401
867.71	21317
867.841	21275
867.972	21374
868.103	21447
868.233	21431
868.364	21355
868.495	21523
868.625	21663
868.756	21880
868.886	21629
869.017	21823
869.147	21819
869.278	21873
869.408	21846
869.539	21789
869.669	21724
869.799	21743
869.929	21789
870.06	21854
870.19	22048
870.32	22025
870.45	22059
870.58	22116
870.71	22249
870.84	22284
870.97	21953
871.1	22067
871.23	22166
871.36	22284
871.489	22280
871.619	22253
871.749	22325
871.879	22375
872.008	22390
872.138	22265
872.267	22329
872.397	22101
872.526	22166
872.656	22143
872.785	22093
872.915	22291
873.044	22348
873.173	22356
873.303	22402
873.432	22363
873.561	22367
873.69	22371
873.819	22348
873.948	22375
874.077	22230
874.206	22238
874.335	22398
874.464	22356
874.593	22565
874.722	22542
874.851	22748
874.979	22440
875.108	22615
875.237	22459
875.365	22367
875.494	22447
875.623	22596
875.751	22557
875.88	22550
876.008	22687
876.136	22744
876.265	22953
876.393	22984
876.521	22934
876.65	23006
876.778	22896
876.906	22900
877.034	22873
877.162	22942
877.29	22763
877.418	22930
877.546	22847
877.674	22923
877.802	22797
877.93	22782
878.058	22812
878.185	22706
878.313	22862
878.441	22957
878.568	22710
878.696	22850
878.824	22949
878.951	22972
879.079	23170
879.206	23159
879.333	22976
879.461	22991
879.588	22980
879.715	23006
879.842	23086
879.97	22927
880.097	22618
880.224	22607
880.351	22767
880.478	22790
880.605	22622
880.732	22634
880.859	23029
880.986	22637
881.112	22793
881.239	22512
881.366	22462
881.493	22341
881.619	22268
881.746	22310
881.872	22204
881.999	22188
882.125	22246
882.252	22322
882.378	22417
882.505	22363
882.631	22097
882.757	21949
882.883	22044
883.01	22032
883.136	21903
883.262	21884
883.388	21827
883.514	22006
883.64	22029
883.766	21842
883.892	21625
884.018	21667
884.143	21903
884.269	21994
884.395	21663
884.52	21644
884.646	21648
884.772	21511
884.897	21526
885.023	21553
885.148	21698
885.274	21743
885.399	21686
885.524	21515
885.65	21641
885.775	21637
885.9	21572
886.025	21694
886.15	21732
886.275	21530
886.4	21553
886.525	21603
886.65	21454
886.775	21587
886.9	21682
887.025	21854
887.149	21629
887.274	21363
887.399	21325
887.523	21336
887.648	21230
887.773	21264
887.897	21329
888.021	21549
888.146	21317
888.27	21450
888.395	21496
888.519	21458
888.643	21370
888.767	21351
888.891	21291
889.015	21058
889.139	21233
889.263	21028
889.387	21226
889.511	21283
889.635	21199
889.759	21074
889.883	21142
890.006	21104
890.13	21329
890.254	21081
890.377	21161
890.501	20963
890.624	20906
890.748	20826
890.871	20754
890.995	20648
891.118	20625
891.241	20746
891.364	20697
891.488	20811
891.611	20640
891.734	20670
891.857	20838
891.98	20682
892.103	20769
892.226	20640
892.349	20609
892.471	20484
892.594	20503
892.717	20564
892.839	20575
892.962	20682
893.085	20632
893.207	20556
893.33	20495
893.452	20511
893.575	20579
893.697	20484
893.819	20746
893.941	20750
894.064	20674
894.186	20629
894.308	20507
894.43	20697
894.552	20682
894.674	20583
894.796	20488
894.918	20533
895.04	20556
895.161	20598
895.283	20708
895.405	20579
895.526	20545
895.648	20556
895.769	20583
895.891	20617
896.012	20765
896.134	20568
896.255	20655
896.376	20575
896.498	20659
896.619	20594
896.74	20590
896.861	20609
896.982	20902
897.103	20960
897.224	20876
897.345	20743
897.466	20746
897.587	20887
897.708	20899
897.828	20834
897.949	20701
898.07	20575
898.19	20750
898.311	20990
898.431	20689
898.552	20712
898.672	20777
898.792	20857
898.913	20811
899.033	20568
899.153	20537
899.273	20461
899.393	20423
899.513	20583
899.633	20583
899.753	20609
899.873	20480
899.993	20602
900.113	20583
900.232	20549
900.352	20442
900.472	20389
900.591	20286
900.711	20381
900.83	20252
900.95	20404
901.069	20317
901.189	20221
901.308	19951
901.427	19921
901.546	19928
901.665	19967
901.784	19917
901.904	19803
902.023	19643
902.141	19464
902.26	19362
902.379	19540
902.498	19426
902.617	19297
902.735	19358
902.854	19449
902.973	19263
903.091	19164
903.21	19038
903.328	19050
903.446	18909
903.565	18848
903.683	18848
903.801	18833
903.919	18863
904.038	18738
904.156	18715
904.274	18673
904.392	18654
904.51	18661
904.627	18566
904.745	18589
904.863	18791
904.981	18502
905.098	18292
905.216	18304
905.334	18388
905.451	18220
905.569	18323
905.686	18262
905.803	18281
905.921	18159
906.038	18197
906.155	18083
906.272	18003
906.389	17939
906.506	17843
906.623	17855
906.74	17809
906.857	17680
906.974	17798
907.091	17866
907.208	17954
907.324	17836
907.441	17707
907.557	17649
907.674	17539
907.79	17493
907.907	17627
908.023	17440
908.139	17600
908.256	17398
908.372	17505
908.488	17436
908.604	17341
908.72	17239
908.836	17235
908.952	17258
909.068	17242
909.184	17398
909.3	17280
909.415	17299
909.531	17246
909.647	16991
909.762	16976
909.878	16835
909.993	16934
910.108	16961
910.224	16778
910.339	16934
910.454	16835
910.57	16698
910.685	16824
910.8	16976
910.915	16835
911.03	16786
911.145	16592
911.259	16592
911.374	16493
911.489	16462
911.604	16470
911.718	16246
911.833	16337
911.947	16219
912.062	16188
912.176	16276
912.291	16299
912.405	16246
912.519	16436
912.633	16462
912.748	16310
912.862	16207
912.976	16097
913.09	16017
913.204	15975
913.318	16131
913.431	16143
913.545	16105
913.659	16204
913.772	16097
913.886	15968
914	15907
914.113	15945
914.226	15975
914.34	15979
914.453	15808
914.566	15907
914.68	15876
914.793	15751
914.906	15416
915.019	15557
915.132	15420
915.245	15458
915.358	15542
915.47	15450
915.583	15408
915.696	15584
915.809	15614
915.921	15709
916.034	15416
916.146	15405
916.259	15325
916.371	15412
916.483	15481
916.595	15428
916.708	15291
916.82	15298
916.932	15386
917.044	15207
917.156	15279
917.268	15131
917.38	15252
917.491	15161
917.603	15108
917.715	15283
917.826	15245
917.938	15017
918.049	14921
918.161	15081
918.272	15116
918.384	15211
918.495	15146
918.606	14975
918.717	14925
918.828	14861
918.939	14929
919.05	14849
919.161	14902
919.272	14727
919.383	14697
919.494	14899
919.604	15131
919.715	14830
919.826	14670
919.936	14743
920.047	14883
920.157	14762
920.267	15043
920.378	14857
920.488	14853
920.598	14998
920.708	15138
920.818	15009
920.928	14895
921.038	15157
921.148	15108
921.258	14708
921.368	14727
921.477	14587
921.587	14568
921.697	14408
921.806	14636
921.916	14381
922.025	14183
922.134	14214
922.244	14145
922.353	14362
922.462	14016
922.571	13974
922.68	13856
922.789	13818
922.898	13845
923.007	13807
923.116	13833
923.224	13761
923.333	13818
923.442	13708
923.55	13655
923.659	13647
923.767	13715
923.876	13651
923.984	13753
924.092	13514
924.201	13624
924.309	13521
924.417	13537
924.525	13453
924.633	13521
924.741	14446
924.849	13320
924.956	13438
925.064	13316
925.172	13263
925.279	13282
925.387	13263
925.494	13168
925.602	13316
925.709	13350
925.816	13137
925.924	13187
926.031	13274
926.138	13213
926.245	13198
926.352	13061
926.459	13149
926.566	13232
926.673	13152
926.779	13012
926.886	12954
926.993	12848
927.099	12837
927.206	12730
927.312	12779
927.419	12772
927.525	12856
927.631	12681
927.737	12669
927.843	12639
927.95	12528
928.056	12563
928.162	12601
928.267	12620
928.373	13149
928.479	12734
928.585	12365
928.69	12589
928.796	12570
928.901	12486
929.007	12304
929.112	12372
929.218	12471
929.323	12410
929.428	12407
929.533	12467
929.638	12216
929.743	12224
929.848	12369
929.953	12292
930.058	12144
930.163	12117
930.267	11950
930.372	12220
930.477	11950
930.581	12171
930.685	12015
930.79	11870
930.894	11973
930.998	11832
931.103	12060
931.207	11520
931.311	11623
931.415	11482
931.519	11231
931.623	11269
