Data from test_V78500241_2389.txt Node
Date: Fri Mar 25 15:58:21 CST 2022
User: usil
Spectrometer: V785-0024
Trigger mode: 0
Integration Time (sec): 4.000000E-1
Scans to average: 1
Nonlinearity correction enabled: false
Boxcar width: 0
Storing dark spectrum: false
XAxis mode: Wavelengths
Number of Pixels in Spectrum: 1024
>>>>>Begin Spectral Data<<<<<
801.071	28748
801.214	28694
801.356	28512
801.499	28485
801.641	28459
801.783	28325
801.926	28447
802.068	28249
802.211	28177
802.353	28295
802.496	28040
802.638	28013
802.78	27892
802.923	27816
803.065	27960
803.208	27747
803.35	27983
803.492	28192
803.635	28128
803.777	28063
803.919	28204
804.061	28565
804.204	28177
804.346	28067
804.488	28223
804.63	28219
804.773	28169
804.915	28249
805.057	28557
805.199	28356
805.341	28371
805.483	28382
805.626	28497
805.768	28360
805.91	28523
806.052	28470
806.194	28421
806.336	28577
806.478	28436
806.62	28344
806.762	28523
806.904	28683
807.046	29010
807.188	28877
807.33	28805
807.472	28831
807.614	28847
807.756	28820
807.898	28782
808.04	28634
808.182	28691
808.324	28672
808.465	28702
808.607	28930
808.749	28999
808.891	29143
809.033	29280
809.174	29208
809.316	29086
809.458	28949
809.6	29064
809.741	29178
809.883	29208
810.025	29395
810.166	29356
810.308	29372
810.45	29246
810.591	29292
810.733	29056
810.875	29140
811.016	28927
811.158	29117
811.299	29345
811.441	29250
811.582	29311
811.724	29048
811.865	29170
812.007	29102
812.148	29079
812.29	29029
812.431	29375
812.573	29375
812.714	29448
812.855	29448
812.997	29665
813.138	29611
813.279	29779
813.421	29630
813.562	29573
813.703	29467
813.845	29273
813.986	29056
814.127	29060
814.268	28736
814.41	28828
814.551	28767
814.692	28839
814.833	28736
814.974	28801
815.115	28987
815.256	28683
815.397	28755
815.539	28793
815.68	28649
815.821	28531
815.962	28611
816.103	28675
816.244	28386
816.385	28424
816.526	28371
816.666	28234
816.807	28169
816.948	28310
817.089	28230
817.23	28059
817.371	28093
817.512	28207
817.653	28169
817.793	28109
817.934	28116
818.075	28120
818.216	28093
818.356	28158
818.497	27964
818.638	27831
818.778	27975
818.919	27953
819.06	28078
819.2	28116
819.341	28154
819.481	28211
819.622	28276
819.762	28462
819.903	28341
820.043	28519
820.184	28306
820.324	28341
820.465	28242
820.605	28169
820.746	28234
820.886	28139
821.026	28246
821.167	28223
821.307	28341
821.447	28154
821.588	27979
821.728	28070
821.868	27698
822.008	27610
822.149	27549
822.289	27549
822.429	27283
822.569	27496
822.709	27230
822.849	27146
822.99	27260
823.13	27135
823.27	27188
823.41	26948
823.55	26689
823.69	27017
823.83	26990
823.97	26967
824.11	26773
824.25	26727
824.389	26792
824.529	26701
824.669	26765
824.809	26864
824.949	26933
825.089	26804
825.228	26883
825.368	26640
825.508	26594
825.648	26587
825.787	26560
825.927	26625
826.067	26571
826.206	26663
826.346	26674
826.485	26716
826.625	26613
826.765	26644
826.904	26594
827.044	26541
827.183	26457
827.323	26396
827.462	26469
827.601	26469
827.741	26446
827.88	26282
828.02	26301
828.159	26278
828.298	26461
828.437	26450
828.577	26263
828.716	26438
828.855	26301
828.994	26069
829.134	26039
829.273	26073
829.412	25921
829.551	25993
829.69	26138
829.829	26092
829.968	26145
830.107	26142
830.246	26153
830.385	25936
830.524	25982
830.663	25940
830.802	25814
830.941	25658
831.08	25674
831.219	25651
831.357	25704
831.496	25826
831.635	25685
831.774	25521
831.913	25438
832.051	25400
832.19	25453
832.329	25468
832.467	25331
832.606	25426
832.744	25110
832.883	25339
833.022	25354
833.16	25346
833.299	25327
833.437	25354
833.576	25320
833.714	25263
833.852	25426
833.991	25365
834.129	25548
834.267	25559
834.406	25377
834.544	25445
834.682	25441
834.821	25308
834.959	25445
835.097	25304
835.235	25247
835.373	25278
835.511	25365
835.65	25190
835.788	25175
835.926	25099
836.064	24992
836.202	25038
836.34	25145
836.478	25301
836.615	25023
836.753	25278
836.891	25266
837.029	25251
837.167	25171
837.305	25069
837.443	25042
837.58	24970
837.718	25133
837.856	25008
837.993	24943
838.131	25000
838.269	24890
838.406	25000
838.544	24856
838.681	24627
838.819	24635
838.956	24544
839.094	24410
839.231	24589
839.369	24639
839.506	24852
839.643	24681
839.781	24445
839.918	24464
840.055	24452
840.193	24365
840.33	24353
840.467	24441
840.604	24467
840.742	24700
840.879	24247
841.016	24228
841.153	24254
841.29	24612
841.427	24334
841.564	24422
841.701	24456
841.838	24330
841.975	24292
842.112	24334
842.249	24235
842.385	24083
842.522	24277
842.659	24239
842.796	23958
842.933	24136
843.069	24015
843.206	24007
843.343	24224
843.479	24232
843.616	24129
843.752	23923
843.889	23889
844.025	24148
844.162	24057
844.298	24030
844.435	23904
844.571	23832
844.708	24060
844.844	24076
844.98	24110
845.117	24030
845.253	23923
845.389	23661
845.525	23847
845.661	23726
845.798	23668
845.934	23726
846.07	23726
846.206	23687
846.342	23707
846.478	23551
846.614	23440
846.75	23379
846.886	23277
847.022	23490
847.158	23452
847.294	23531
847.429	23429
847.565	23421
847.701	23646
847.837	23178
847.972	23147
848.108	23315
848.244	23174
848.379	23083
848.515	22957
848.65	22778
848.786	22839
848.921	22938
849.057	23018
849.192	23060
849.328	23018
849.463	22961
849.598	22949
849.734	22847
849.869	22824
850.004	22660
850.14	22774
850.275	22698
850.41	22759
850.545	22668
850.68	22687
850.815	22755
850.95	22694
851.085	22900
851.22	22854
851.355	22706
851.49	22733
851.625	22664
851.76	22733
851.895	22698
852.03	22744
852.165	22721
852.299	22801
852.434	22786
852.569	22725
852.703	22774
852.838	22824
852.973	22774
853.107	22923
853.242	22672
853.376	22660
853.511	22497
853.645	22569
853.78	22577
853.914	22584
854.048	22584
854.183	22417
854.317	22660
854.451	22717
854.585	22653
854.72	22569
854.854	22592
854.988	22474
855.122	22523
855.256	22428
855.39	22550
855.524	22615
855.658	22523
855.792	22459
855.926	22710
856.06	22634
856.194	22664
856.327	22523
856.461	22535
856.595	22577
856.729	22390
856.862	22683
856.996	22478
857.13	22637
857.263	22660
857.397	22569
857.53	22546
857.664	22561
857.797	22626
857.931	22691
858.064	22694
858.197	22668
858.331	22584
858.464	22485
858.597	22424
858.731	22565
858.864	22516
858.997	22462
859.13	22656
859.263	22565
859.396	22573
859.529	22508
859.662	22546
859.795	22451
859.928	22531
860.061	22683
860.194	22634
860.327	22500
860.46	22516
860.592	22710
860.725	22698
860.858	22615
860.99	22588
861.123	22561
861.256	22481
861.388	22615
861.521	23360
861.653	22436
861.786	22333
861.918	22360
862.05	22363
862.183	22432
862.315	22554
862.447	22466
862.58	22478
862.712	22287
862.844	22280
862.976	22295
863.108	22352
863.24	22740
863.372	22181
863.504	22238
863.636	22291
863.768	22303
863.9	22196
864.032	22215
864.164	22325
864.296	22139
864.428	22242
864.559	22329
864.691	22386
864.823	22379
864.954	22265
865.086	22261
865.217	22048
865.349	22036
865.48	22188
865.612	22139
865.743	22306
865.875	22090
866.006	22059
866.137	22150
866.269	22124
866.4	22074
866.531	22048
866.662	21979
866.793	21979
866.924	22082
867.055	22029
867.186	22070
867.317	21972
867.448	22101
867.579	21991
867.71	21930
867.841	21926
867.972	22002
868.103	22059
868.233	22006
868.364	22078
868.495	22215
868.625	22268
868.756	22447
868.886	22272
869.017	22375
869.147	22379
869.278	22341
869.408	22329
869.539	22287
869.669	22318
869.799	22386
869.929	22299
870.06	22371
870.19	22713
870.32	22626
870.45	22721
870.58	22630
870.71	22877
870.84	22706
870.97	22687
871.1	22622
871.23	22991
871.36	22938
871.489	22885
871.619	22915
871.749	22923
871.879	22889
872.008	23079
872.138	22984
872.267	22900
872.397	22869
872.526	22759
872.656	22782
872.785	22611
872.915	22938
873.044	22968
873.173	22862
873.303	23033
873.432	22949
873.561	22965
873.69	22904
873.819	22919
873.948	22972
874.077	22953
874.206	22812
874.335	22965
874.464	22968
874.593	23048
874.722	23147
874.851	23277
874.979	23178
875.108	23094
875.237	23014
875.365	23094
875.494	23048
875.623	23128
875.751	23136
875.88	23162
876.008	23360
876.136	23254
876.265	23547
876.393	23726
876.521	23474
876.65	23615
876.778	23463
876.906	23448
877.034	23455
877.162	23547
877.29	23501
877.418	23334
877.546	23478
877.674	23410
877.802	23516
877.93	23402
878.058	23277
878.185	23398
878.313	23486
878.441	23478
878.568	23280
878.696	23372
878.824	23486
878.951	23482
879.079	23573
879.206	23710
879.333	23771
879.461	23482
879.588	23691
879.715	23646
879.842	23646
879.97	23463
880.097	23212
880.224	23345
880.351	23315
880.478	23204
880.605	23227
880.732	23223
880.859	23539
880.986	23242
881.112	23269
881.239	23067
881.366	23136
881.493	22850
881.619	22828
881.746	22831
881.872	22869
881.999	22774
882.125	22793
882.252	22797
882.378	22736
882.505	22923
882.631	22755
882.757	22516
882.883	22759
883.01	22584
883.136	22386
883.262	22375
883.388	22360
883.514	22561
883.64	22489
883.766	22527
883.892	22207
884.018	22299
884.143	22363
884.269	22512
884.395	22375
884.52	22128
884.646	22090
884.772	22051
884.897	22013
885.023	22116
885.148	22253
885.274	22306
885.399	22253
885.524	22242
885.65	22124
885.775	22147
885.9	22192
886.025	22230
886.15	22329
886.275	22036
886.4	22032
886.525	22010
886.65	22063
886.775	21991
886.9	22204
887.025	22265
887.149	22124
887.274	21983
887.399	21892
887.523	21949
887.648	21850
887.773	21823
887.897	21911
888.021	21979
888.146	21892
888.27	21915
888.395	21956
888.519	21953
888.643	21949
888.767	21972
888.891	21762
889.015	21686
889.139	21755
889.263	21671
889.387	21808
889.511	21953
889.635	21816
889.759	21686
889.883	21736
890.006	21694
890.13	21755
890.254	21583
890.377	21755
890.501	21469
890.624	21340
890.748	21496
890.871	21302
890.995	21260
891.118	21252
891.241	21325
891.364	21176
891.488	21272
891.611	21298
891.734	21260
891.857	21424
891.98	21313
892.103	21218
892.226	21313
892.349	21226
892.471	21100
892.594	21161
892.717	21165
892.839	21161
892.962	21135
893.085	21131
893.207	21176
893.33	21036
893.452	21039
893.575	21157
893.697	21081
893.819	21268
893.941	21340
894.064	21348
894.186	20944
894.308	21096
894.43	21313
894.552	21294
894.674	21218
894.796	21100
894.918	21135
895.04	21157
895.161	21214
895.283	21123
895.405	21135
895.526	21089
895.648	21070
895.769	21085
895.891	21161
896.012	21184
896.134	21233
896.255	21036
896.376	21013
896.498	21157
896.619	21096
896.74	21074
896.861	21100
896.982	21329
897.103	21591
897.224	21393
897.345	21119
897.466	21203
897.587	21256
897.708	21378
897.828	21310
897.949	21351
898.07	21104
898.19	21218
898.311	21424
898.431	21161
898.552	21256
898.672	21306
898.792	21401
898.913	21237
899.033	21150
899.153	21096
899.273	20872
899.393	21001
899.513	21089
899.633	20963
899.753	21104
899.873	21108
899.993	20967
900.113	20971
900.232	21077
900.352	20887
900.472	20861
900.591	20941
900.711	20796
900.83	20815
900.95	20777
901.069	20788
901.189	20823
901.308	20492
901.427	20412
901.546	20419
901.665	20442
901.784	20499
901.904	20240
902.023	20240
902.141	20031
902.26	19871
902.379	19906
902.498	19951
902.617	19837
902.735	19944
902.854	19822
902.973	19727
903.091	19540
903.21	19533
903.328	19544
903.446	19518
903.565	19304
903.683	19358
903.801	19228
903.919	19301
904.038	19198
904.156	19175
904.274	19228
904.392	19183
904.51	19126
904.627	19122
904.745	19065
904.863	19263
904.981	18890
905.098	18791
905.216	18814
905.334	18783
905.451	18738
905.569	18627
905.686	18650
905.803	18802
905.921	18509
906.038	18597
906.155	18604
906.272	18448
906.389	18475
906.506	18213
906.623	18357
906.74	18304
906.857	18136
906.974	18121
907.091	18311
907.208	18426
907.324	18243
907.441	18159
907.557	18019
907.674	17866
907.79	17863
907.907	17821
908.023	18060
908.139	17950
908.256	17836
908.372	17813
908.488	17908
908.604	17824
908.72	17699
908.836	17707
908.952	17672
909.068	17729
909.184	17828
909.3	17642
909.415	17680
909.531	17695
909.647	17425
909.762	17379
909.878	17356
909.993	17421
910.108	17326
910.224	17372
910.339	17334
910.454	17227
910.57	17235
910.685	17147
910.8	17383
910.915	17311
911.03	17185
911.145	16984
911.259	17006
911.374	17018
911.489	16942
911.604	16866
911.718	16698
911.833	16805
911.947	16668
912.062	16542
912.176	16683
912.291	16649
912.405	16767
912.519	16892
912.633	16831
912.748	16706
912.862	16607
912.976	16546
913.09	16341
913.204	16474
913.318	16653
913.431	16599
913.545	16687
913.659	16615
913.772	16409
913.886	16424
914	16344
914.113	16329
914.226	16367
914.34	16432
914.453	16128
914.566	16204
914.68	16143
914.793	16169
914.906	16002
915.019	15983
915.132	15831
915.245	15861
915.358	15892
915.47	15964
915.583	15819
915.696	15968
915.809	15884
915.921	16067
916.034	15800
916.146	15717
916.259	15846
916.371	15861
916.483	15728
916.595	15751
916.708	15656
916.82	15701
916.932	15663
917.044	15641
917.156	15561
917.268	15447
917.38	15599
917.491	15519
917.603	15488
917.715	15549
917.826	15698
917.938	15469
918.049	15306
918.161	15424
918.272	15481
918.384	15526
918.495	15454
918.606	15192
918.717	15199
918.828	15332
918.939	15264
919.05	15161
919.161	15230
919.272	15024
919.383	15108
919.494	15256
919.604	15431
919.715	15348
919.826	15138
919.936	15226
920.047	15306
920.157	15222
920.267	15351
920.378	15272
920.488	15199
920.598	15477
920.708	15466
920.818	15370
920.928	15230
921.038	15443
921.148	15389
921.258	15135
921.368	14960
921.477	14933
921.587	14880
921.697	14815
921.806	14990
921.916	14682
922.025	14644
922.134	14575
922.244	14511
922.353	14518
922.462	14522
922.571	14400
922.68	14218
922.789	14267
922.898	14126
923.007	14225
923.116	14225
923.224	14176
923.333	14103
923.442	14031
923.55	14096
923.659	14111
923.767	14134
923.876	13982
923.984	14043
924.092	13887
924.201	13955
924.309	14005
924.417	13902
924.525	13902
924.633	13860
924.741	14788
924.849	13597
924.956	13769
925.064	13655
925.172	13407
925.279	13480
925.387	13590
925.494	13537
925.602	13674
925.709	13495
925.816	13506
925.924	13575
926.031	13609
926.138	13529
926.245	13506
926.352	13373
926.459	13544
926.566	13453
926.673	13320
926.779	13282
926.886	13365
926.993	13095
927.099	13141
927.206	13072
927.312	13110
927.419	13141
927.525	13145
927.631	13103
927.737	12875
927.843	12985
927.95	12829
928.056	12947
928.162	12913
928.267	12981
928.373	13544
928.479	12973
928.585	12696
928.69	12878
928.796	12867
928.901	12833
929.007	12646
929.112	12825
929.218	12806
929.323	12574
929.428	12601
929.533	12844
929.638	12559
929.743	12620
929.848	12642
929.953	12646
930.058	12498
930.163	12300
930.267	12369
930.372	12544
930.477	12228
930.581	12464
930.685	12410
930.79	12216
930.894	12186
930.998	12201
931.103	12273
931.207	11935
931.311	11954
931.415	11771
931.519	11642
931.623	11554
