Data from test_V78500241_3707.txt Node
Date: Fri Mar 25 16:07:28 CST 2022
User: usil
Spectrometer: V785-0024
Trigger mode: 0
Integration Time (sec): 4.000000E-1
Scans to average: 1
Nonlinearity correction enabled: false
Boxcar width: 0
Storing dark spectrum: false
XAxis mode: Wavelengths
Number of Pixels in Spectrum: 1024
>>>>>Begin Spectral Data<<<<<
801.071	28405
801.214	28459
801.356	28173
801.499	28154
801.641	28029
801.783	27930
801.926	28017
802.068	27956
802.211	27831
802.353	27846
802.496	27694
802.638	27679
802.78	27641
802.923	27534
803.065	27424
803.208	27698
803.35	27770
803.492	27842
803.635	27991
803.777	27797
803.919	27892
804.061	28147
804.204	28055
804.346	27747
804.488	27778
804.63	27838
804.773	27717
804.915	27949
805.057	28116
805.199	27918
805.341	27865
805.483	28036
805.626	27945
805.768	27873
805.91	27842
806.052	28128
806.194	28128
806.336	28204
806.478	28059
806.62	28078
806.762	28105
806.904	28432
807.046	28508
807.188	28485
807.33	28489
807.472	28493
807.614	28466
807.756	28550
807.898	28211
808.04	28173
808.182	28363
808.324	28459
808.465	28413
808.607	28466
808.749	28759
808.891	28786
809.033	28961
809.174	28831
809.316	28759
809.458	28805
809.6	28618
809.741	28698
809.883	28866
810.025	28873
810.166	28995
810.308	29128
810.45	29018
810.591	28908
810.733	28881
810.875	28774
811.016	28729
811.158	28580
811.299	28831
811.441	28946
811.582	28843
811.724	28850
811.865	28653
812.007	28790
812.148	28755
812.29	28854
812.431	29018
812.573	28991
812.714	29250
812.855	29242
812.997	29337
813.138	29509
813.279	29364
813.421	29337
813.562	29071
813.703	29006
813.845	28919
813.986	28611
814.127	28523
814.268	28481
814.41	28401
814.551	28413
814.692	28531
814.833	28348
814.974	28352
815.115	28470
815.256	28215
815.397	28363
815.539	28348
815.68	28215
815.821	28135
815.962	28234
816.103	28234
816.244	28067
816.385	27895
816.526	27998
816.666	27838
816.807	27720
816.948	27755
817.089	27774
817.23	27816
817.371	27671
817.512	27713
817.653	27755
817.793	27728
817.934	27770
818.075	27595
818.216	27793
818.356	27656
818.497	27618
818.638	27439
818.778	27458
818.919	27599
819.06	27549
819.2	27523
819.341	27808
819.481	27747
819.622	27823
819.762	28166
819.903	28032
820.043	27934
820.184	27797
820.324	27914
820.465	27911
820.605	27907
820.746	27831
820.886	27709
821.026	27778
821.167	27614
821.307	27922
821.447	27873
821.588	27713
821.728	27568
821.868	27378
822.008	27268
822.149	27291
822.289	27199
822.429	27081
822.569	26895
822.709	26956
822.849	26853
822.99	26655
823.13	26785
823.27	26857
823.41	26564
823.55	26453
823.69	26560
823.83	26678
823.97	26419
824.11	26358
824.25	26328
824.389	26362
824.529	26400
824.669	26355
824.809	26336
824.949	26446
825.089	26423
825.228	26507
825.368	26259
825.508	26339
825.648	26309
825.787	26153
825.927	26237
826.067	26366
826.206	26195
826.346	26244
826.485	26290
826.625	26267
826.765	26313
826.904	26320
827.044	26024
827.183	26008
827.323	25959
827.462	25997
827.601	26142
827.741	26012
827.88	26035
828.02	25993
828.159	25917
828.298	25909
828.437	26008
828.577	25856
828.716	26016
828.855	25909
828.994	25696
829.134	25685
829.273	25734
829.412	25647
829.551	25616
829.69	25715
829.829	25715
829.968	25826
830.107	25685
830.246	25635
830.385	25632
830.524	25605
830.663	25411
830.802	25396
830.941	25209
831.08	25247
831.219	25400
831.357	25415
831.496	25346
831.635	25324
831.774	25259
831.913	25266
832.051	25110
832.19	25141
832.329	25137
832.467	25015
832.606	24890
832.744	25038
832.883	25065
833.022	24970
833.16	25019
833.299	25015
833.437	25114
833.576	24985
833.714	25065
833.852	25202
833.991	25126
834.129	25099
834.267	25232
834.406	25031
834.544	24905
834.682	25133
834.821	24954
834.959	25217
835.097	25012
835.235	25164
835.373	24951
835.511	25091
835.65	24886
835.788	24966
835.926	24764
836.064	24700
836.202	24726
836.34	24863
836.478	24973
836.615	24749
836.753	24905
836.891	24878
837.029	24745
837.167	24863
837.305	24814
837.443	24669
837.58	24646
837.718	24852
837.856	24749
837.993	24661
838.131	24715
838.269	24410
838.406	24669
838.544	24437
838.681	24357
838.819	24376
838.956	24129
839.094	24213
839.231	24159
839.369	24418
839.506	24547
839.643	24266
839.781	24216
839.918	24068
840.055	24068
840.193	24095
840.33	24076
840.467	23980
840.604	24110
840.742	24266
840.879	23790
841.016	24114
841.153	23973
841.29	24102
841.427	24026
841.564	23999
841.701	24045
841.838	23950
841.975	24030
842.112	23965
842.249	23889
842.385	23851
842.522	24064
842.659	23885
842.796	23847
842.933	23859
843.069	23802
843.206	23722
843.343	23965
843.479	23779
843.616	23882
843.752	23642
843.889	23630
844.025	23745
844.162	23657
844.298	23710
844.435	23676
844.571	23505
844.708	23775
844.844	23684
844.98	23707
845.117	23649
845.253	23505
845.389	23368
845.525	23448
845.661	23482
845.798	23471
845.934	23360
846.07	23315
846.206	23421
846.342	23444
846.478	23395
846.614	23083
846.75	22949
846.886	23113
847.022	23231
847.158	23102
847.294	23083
847.429	23033
847.565	23029
847.701	23269
847.837	22904
847.972	22729
848.108	22782
848.244	22771
848.379	22744
848.515	22554
848.65	22713
848.786	22588
848.921	22744
849.057	22835
849.192	22656
849.328	22599
849.463	22672
849.598	22611
849.734	22497
849.869	22527
850.004	22440
850.14	22531
850.275	22409
850.41	22299
850.545	22459
850.68	22318
850.815	22390
850.95	22440
851.085	22592
851.22	22489
851.355	22443
851.49	22409
851.625	22451
851.76	22367
851.895	22337
852.03	22314
852.165	22451
852.299	22428
852.434	22417
852.569	22428
852.703	22375
852.838	22421
852.973	22557
853.107	22405
853.242	22344
853.376	22257
853.511	22101
853.645	22234
853.78	22363
853.914	22291
854.048	22356
854.183	22299
854.317	22291
854.451	22481
854.585	22318
854.72	22230
854.854	22211
854.988	22215
855.122	22223
855.256	22112
855.39	22185
855.524	22363
855.658	22253
855.792	22219
855.926	22181
856.06	22379
856.194	22276
856.327	22173
856.461	22253
856.595	22226
856.729	22109
856.862	22375
856.996	22284
857.13	22314
857.263	22436
857.397	22295
857.53	22299
857.664	22291
857.797	22280
857.931	22303
858.064	22268
858.197	22310
858.331	22215
858.464	22101
858.597	22048
858.731	22147
858.864	22181
858.997	22230
859.13	22185
859.263	22344
859.396	22177
859.529	22242
859.662	22200
859.795	22192
859.928	22169
860.061	22398
860.194	22596
860.327	22405
860.46	22238
860.592	22432
860.725	22413
860.858	22481
860.99	22177
861.123	22204
861.256	22299
861.388	22242
861.521	22919
861.653	22139
861.786	21911
861.918	22013
862.05	22017
862.183	22135
862.315	22257
862.447	22371
862.58	22074
862.712	21918
862.844	21918
862.976	21930
863.108	22021
863.24	22440
863.372	21941
863.504	21987
863.636	21945
863.768	22105
863.9	21998
864.032	21937
864.164	21987
864.296	21998
864.428	22036
864.559	22021
864.691	21994
864.823	22116
864.954	21895
865.086	21873
865.217	21743
865.349	21751
865.48	21850
865.612	21804
865.743	22002
865.875	21911
866.006	21804
866.137	21781
866.269	21827
866.4	21816
866.531	21816
866.662	21701
866.793	21717
866.924	21755
867.055	21785
867.186	21778
867.317	21701
867.448	21816
867.579	21686
867.71	21717
867.841	21644
867.972	21808
868.103	21667
868.233	21701
868.364	21743
868.495	21793
868.625	21994
868.756	22067
868.886	21861
869.017	21975
869.147	22006
869.278	22101
869.408	22070
869.539	22040
869.669	22044
869.799	22036
869.929	22166
870.06	22101
870.19	22238
870.32	22341
870.45	22257
870.58	22386
870.71	22550
870.84	22519
870.97	22493
871.1	22409
871.23	22535
871.36	22512
871.489	22485
871.619	22466
871.749	22592
871.879	22622
872.008	22615
872.138	22592
872.267	22618
872.397	22565
872.526	22382
872.656	22466
872.785	22451
872.915	22588
873.044	22702
873.173	22588
873.303	22561
873.432	22637
873.561	22733
873.69	22645
873.819	22675
873.948	22713
874.077	22664
874.206	22546
874.335	22557
874.464	22797
874.593	22759
874.722	22786
874.851	22919
874.979	22869
875.108	22862
875.237	22729
875.365	22755
875.494	22877
875.623	22953
875.751	22873
875.88	22843
876.008	23037
876.136	23033
876.265	23204
876.393	23368
876.521	23258
876.65	23353
876.778	23204
876.906	23231
877.034	23060
877.162	23128
877.29	23155
877.418	23239
877.546	23117
877.674	23162
877.802	23235
877.93	23155
878.058	23105
878.185	23155
878.313	23166
878.441	23162
878.568	22911
878.696	23155
878.824	23360
878.951	23151
879.079	23303
879.206	23539
879.333	23269
879.461	23231
879.588	23280
879.715	23311
879.842	23478
879.97	23261
880.097	22987
880.224	23064
880.351	23102
880.478	23044
880.605	23010
880.732	23060
880.859	23140
880.986	23067
881.112	22980
881.239	22892
881.366	22725
881.493	22782
881.619	22561
881.746	22649
881.872	22615
881.999	22455
882.125	22466
882.252	22580
882.378	22497
882.505	22569
882.631	22386
882.757	22188
882.883	22329
883.01	22196
883.136	22246
883.262	22177
883.388	22051
883.514	22272
883.64	22299
883.766	22147
883.892	21991
884.018	22082
884.143	22101
884.269	22257
884.395	21842
884.52	21797
884.646	21979
884.772	21800
884.897	21895
885.023	21759
885.148	22032
885.274	21991
885.399	22040
885.524	21854
885.65	21812
885.775	21953
885.9	21850
886.025	22006
886.15	22051
886.275	21797
886.4	21701
886.525	21827
886.65	21762
886.775	21781
886.9	22055
887.025	22032
887.149	21857
887.274	21736
887.399	21751
887.523	21663
887.648	21500
887.773	21500
887.897	21823
888.021	21774
888.146	21606
888.27	21778
888.395	21751
888.519	21663
888.643	21705
888.767	21671
888.891	21614
889.015	21450
889.139	21507
889.263	21283
889.387	21408
889.511	21606
889.635	21663
889.759	21488
889.883	21424
890.006	21477
890.13	21477
890.254	21363
890.377	21389
890.501	21150
890.624	21096
890.748	21146
890.871	21017
890.995	20982
891.118	20887
891.241	21028
891.364	20914
891.488	21176
891.611	20967
891.734	20925
891.857	21066
891.98	20967
892.103	20998
892.226	20990
892.349	20944
892.471	20682
892.594	20864
892.717	20921
892.839	20914
892.962	20975
893.085	21058
893.207	20941
893.33	20765
893.452	20796
893.575	20887
893.697	20800
893.819	21085
893.941	21032
894.064	21074
894.186	20765
894.308	20842
894.43	20963
894.552	20982
894.674	21024
894.796	20838
894.918	20842
895.04	20979
895.161	20883
895.283	20887
895.405	20754
895.526	20785
895.648	20804
895.769	20925
895.891	20781
896.012	20906
896.134	20941
896.255	20842
896.376	20876
896.498	20849
896.619	20781
896.74	20735
896.861	20956
896.982	21161
897.103	21291
897.224	21173
897.345	21157
897.466	20971
897.587	21062
897.708	21150
897.828	21024
897.949	20948
898.07	20944
898.19	21055
898.311	21093
898.431	21055
898.552	21074
898.672	21116
898.792	21032
898.913	20986
899.033	20941
899.153	20849
899.273	20670
899.393	20872
899.513	20796
899.633	20864
899.753	20838
899.873	20689
899.993	20815
900.113	20648
900.232	20731
900.352	20625
900.472	20579
900.591	20583
900.711	20533
900.83	20419
900.95	20549
901.069	20613
901.189	20450
901.308	20271
901.427	20180
901.546	20062
901.665	20073
901.784	20134
901.904	19947
902.023	19959
902.141	19738
902.26	19647
902.379	19746
902.498	19620
902.617	19681
902.735	19635
902.854	19632
902.973	19510
903.091	19293
903.21	19255
903.328	19335
903.446	19194
903.565	19031
903.683	19274
903.801	19129
903.919	19080
904.038	19008
904.156	18928
904.274	18871
904.392	18920
904.51	18863
904.627	18886
904.745	18993
904.863	18913
904.981	18741
905.098	18593
905.216	18532
905.334	18532
905.451	18479
905.569	18494
905.686	18559
905.803	18563
905.921	18403
906.038	18521
906.155	18399
906.272	18194
906.389	18251
906.506	18140
906.623	18083
906.74	18171
906.857	17965
906.974	18038
907.091	18079
907.208	18140
907.324	18064
907.441	17980
907.557	17851
907.674	17802
907.79	17779
907.907	17752
908.023	17802
908.139	17836
908.256	17687
908.372	17722
908.488	17691
908.604	17615
908.72	17471
908.836	17539
908.952	17528
909.068	17505
909.184	17653
909.3	17509
909.415	17573
909.531	17562
909.647	17356
909.762	17299
909.878	17208
909.993	17356
910.108	17277
910.224	17261
910.339	17098
910.454	17143
910.57	17037
910.685	16949
910.8	17166
910.915	17117
911.03	16908
911.145	16820
911.259	16698
911.374	16847
911.489	16748
911.604	16691
911.718	16512
911.833	16596
911.947	16519
912.062	16493
912.176	16535
912.291	16489
912.405	16565
912.519	16725
912.633	16694
912.748	16577
912.862	16508
912.976	16409
913.09	16131
913.204	16333
913.318	16405
913.431	16478
913.545	16459
913.659	16424
913.772	16261
913.886	16185
914	16116
914.113	16177
914.226	16280
914.34	16166
914.453	16055
914.566	16036
914.68	15998
914.793	15983
914.906	15785
915.019	15747
915.132	15587
915.245	15755
915.358	15633
915.47	15671
915.583	15739
915.696	15778
915.809	15903
915.921	15816
916.034	15595
916.146	15625
916.259	15561
916.371	15736
916.483	15549
916.595	15595
916.708	15568
916.82	15595
916.932	15526
917.044	15443
917.156	15363
917.268	15378
917.38	15344
917.491	15443
917.603	15340
917.715	15355
917.826	15458
917.938	15325
918.049	15165
918.161	15367
918.272	15431
918.384	15378
918.495	15313
918.606	15154
918.717	15097
918.828	15062
918.939	15161
919.05	14941
919.161	14994
919.272	14929
919.383	14880
919.494	15028
919.604	15370
919.715	15001
919.826	14933
919.936	15055
920.047	15020
920.157	15055
920.267	15127
920.378	15017
920.488	15009
920.598	15272
920.708	15370
920.818	15157
920.928	15214
921.038	15313
921.148	15252
921.258	15093
921.368	14807
921.477	14777
921.587	14823
921.697	14606
921.806	14750
921.916	14583
922.025	14518
922.134	14431
922.244	14317
922.353	14431
922.462	14278
922.571	14248
922.68	14096
922.789	14062
922.898	14020
923.007	13932
923.116	14054
923.224	13970
923.333	14001
923.442	13898
923.55	13833
923.659	13909
923.767	13909
923.876	13769
923.984	13906
924.092	13799
924.201	13898
924.309	13784
924.417	13761
924.525	13734
924.633	13704
924.741	14465
924.849	13491
924.956	13685
925.064	13563
925.172	13320
925.279	13438
925.387	13518
925.494	13491
925.602	13521
925.709	13407
925.816	13358
925.924	13407
926.031	13457
926.138	13381
926.245	13438
926.352	13244
926.459	13453
926.566	13411
926.673	13289
926.779	13202
926.886	13202
926.993	13031
927.099	13031
927.206	12894
927.312	12947
927.419	12981
927.525	12977
927.631	12947
927.737	12844
927.843	12829
927.95	12722
928.056	12871
928.162	12871
928.267	12886
928.373	13430
928.479	12943
928.585	12658
928.69	12772
928.796	12734
928.901	12669
929.007	12639
929.112	12669
929.218	12612
929.323	12547
929.428	12502
929.533	12620
929.638	12395
929.743	12483
929.848	12551
929.953	12399
930.058	12353
930.163	12178
930.267	12254
930.372	12350
930.477	12216
930.581	12365
930.685	12258
930.79	12049
930.894	12034
930.998	12072
931.103	12136
931.207	11904
931.311	11748
931.415	11699
931.519	11425
931.623	11452
