Data from test_V78500241_1560.txt Node
Date: Fri Mar 25 15:52:36 CST 2022
User: usil
Spectrometer: V785-0024
Trigger mode: 0
Integration Time (sec): 4.000000E-1
Scans to average: 1
Nonlinearity correction enabled: false
Boxcar width: 0
Storing dark spectrum: false
XAxis mode: Wavelengths
Number of Pixels in Spectrum: 1024
>>>>>Begin Spectral Data<<<<<
801.071	28063
801.214	28029
801.356	27835
801.499	27816
801.641	27625
801.783	27610
801.926	27652
802.068	27542
802.211	27454
802.353	27523
802.496	27302
802.638	27245
802.78	27165
802.923	27222
803.065	27199
803.208	27123
803.35	27218
803.492	27401
803.635	27500
803.777	27310
803.919	27310
804.061	27717
804.204	27420
804.346	27549
804.488	27378
804.63	27363
804.773	27260
804.915	27355
805.057	27606
805.199	27500
805.341	27667
805.483	27660
805.626	27682
805.768	27504
805.91	27652
806.052	27580
806.194	27667
806.336	27854
806.478	27686
806.62	27679
806.762	27819
806.904	27911
807.046	28131
807.188	28021
807.33	28036
807.472	28063
807.614	28055
807.756	28109
807.898	27994
808.04	27861
808.182	27717
808.324	27918
808.465	27937
808.607	28177
808.749	28207
808.891	28356
809.033	28356
809.174	28352
809.316	28310
809.458	28131
809.6	28173
809.741	28409
809.883	28413
810.025	28622
810.166	28649
810.308	28550
810.45	28641
810.591	28489
810.733	28329
810.875	28177
811.016	28154
811.158	28143
811.299	28367
811.441	28375
811.582	28413
811.724	28287
811.865	28318
812.007	28253
812.148	28329
812.29	28390
812.431	28478
812.573	28481
812.714	28611
812.855	28672
812.997	28888
813.138	28972
813.279	28869
813.421	28873
813.562	28675
813.703	28611
813.845	28352
813.986	28249
814.127	28109
814.268	27998
814.41	27972
814.551	27861
814.692	28059
814.833	27892
814.974	28021
815.115	28067
815.256	27831
815.397	27857
815.539	27785
815.68	27728
815.821	27641
815.962	27789
816.103	27762
816.244	27667
816.385	27477
816.526	27591
816.666	27317
816.807	27230
816.948	27317
817.089	27306
817.23	27279
817.371	27154
817.512	27272
817.653	27310
817.793	27329
817.934	27230
818.075	27340
818.216	27268
818.356	27218
818.497	27173
818.638	26960
818.778	27074
818.919	26967
819.06	27058
819.2	27104
819.341	27203
819.481	27188
819.622	27424
819.762	27595
819.903	27382
820.043	27397
820.184	27382
820.324	27313
820.465	27283
820.605	27447
820.746	27340
820.886	27283
821.026	27268
821.167	27317
821.307	27302
821.447	27260
821.588	27100
821.728	27188
821.868	26788
822.008	26826
822.149	26727
822.289	26693
822.429	26461
822.569	26396
822.709	26427
822.849	26286
822.99	26278
823.13	26275
823.27	26206
823.41	26069
823.55	25982
823.69	26046
823.83	26046
823.97	26005
824.11	25993
824.25	25864
824.389	25784
824.529	25951
824.669	25715
824.809	26024
824.949	26077
825.089	25986
825.228	25894
825.368	25681
825.508	25776
825.648	25837
825.787	25704
825.927	25902
826.067	25639
826.206	25791
826.346	25830
826.485	25807
826.625	25708
826.765	25803
826.904	25753
827.044	25609
827.183	25586
827.323	25453
827.462	25495
827.601	25510
827.741	25324
827.88	25453
828.02	25415
828.159	25419
828.298	25460
828.437	25540
828.577	25483
828.716	25567
828.855	25304
828.994	25213
829.134	25274
829.273	25148
829.412	25137
829.551	25069
829.69	25198
829.829	25236
829.968	25293
830.107	25350
830.246	25190
830.385	25179
830.524	25061
830.663	24954
830.802	24882
830.941	24852
831.08	24840
831.219	24856
831.357	24798
831.496	25012
831.635	24757
831.774	24593
831.913	24570
832.051	24570
832.19	24334
832.329	24722
832.467	24627
832.606	24399
832.744	24521
832.883	24490
833.022	24372
833.16	24505
833.299	24536
833.437	24407
833.576	24623
833.714	24642
833.852	24585
833.991	24563
834.129	24612
834.267	24635
834.406	24540
834.544	24471
834.682	24467
834.821	24441
834.959	24696
835.097	24540
835.235	24604
835.373	24441
835.511	24365
835.65	24399
835.788	24350
835.926	24346
836.064	24201
836.202	24334
836.34	24334
836.478	24471
836.615	24281
836.753	24334
836.891	24498
837.029	24346
837.167	24399
837.305	24414
837.443	24197
837.58	24281
837.718	24167
837.856	24117
837.993	24171
838.131	24167
838.269	24114
838.406	24140
838.544	23958
838.681	23935
838.819	23840
838.956	23551
839.094	23642
839.231	23764
839.369	23794
839.506	24057
839.643	23859
839.781	23638
839.918	23547
840.055	23695
840.193	23589
840.33	23570
840.467	23604
840.604	23657
840.742	23786
840.879	23509
841.016	23486
841.153	23474
841.29	23737
841.427	23566
841.564	23566
841.701	23547
841.838	23452
841.975	23406
842.112	23452
842.249	23330
842.385	23368
842.522	23474
842.659	23372
842.796	23254
842.933	23273
843.069	23250
843.206	23318
843.343	23516
843.479	23337
843.616	23273
843.752	23102
843.889	23098
844.025	23231
844.162	22984
844.298	23181
844.435	23102
844.571	23124
844.708	23025
844.844	23284
844.98	23239
845.117	23223
845.253	23067
845.389	22980
845.525	23048
845.661	22999
845.798	22896
845.934	22889
846.07	22949
846.206	22759
846.342	22839
846.478	22854
846.614	22687
846.75	22573
846.886	22523
847.022	22729
847.158	22565
847.294	22668
847.429	22702
847.565	22497
847.701	22668
847.837	22230
847.972	22207
848.108	22211
848.244	22322
848.379	22223
848.515	22200
848.65	22169
848.786	22116
848.921	22272
849.057	22333
849.192	22215
849.328	22215
849.463	22249
849.598	22124
849.734	21918
849.869	22025
850.004	21945
850.14	21960
850.275	21861
850.41	21850
850.545	21876
850.68	21865
850.815	21972
850.95	21797
851.085	22093
851.22	22059
851.355	22048
851.49	21953
851.625	21922
851.76	21972
851.895	21797
852.03	21816
852.165	21926
852.299	21865
852.434	21857
852.569	21842
852.703	21895
852.838	21964
852.973	22025
853.107	22074
853.242	21865
853.376	21785
853.511	21648
853.645	21583
853.78	21831
853.914	21755
854.048	21705
854.183	21747
854.317	21698
854.451	21930
854.585	21694
854.72	21816
854.854	21846
854.988	21595
855.122	21785
855.256	21564
855.39	21709
855.524	21793
855.658	21835
855.792	21789
855.926	21679
856.06	21800
856.194	21850
856.327	21709
856.461	21686
856.595	21663
856.729	21751
856.862	21850
856.996	21755
857.13	21774
857.263	21804
857.397	21899
857.53	21823
857.664	21591
857.797	21876
857.931	21915
858.064	21823
858.197	21884
858.331	21679
858.464	21743
858.597	21663
858.731	21572
858.864	21694
858.997	21698
859.13	21679
859.263	21778
859.396	21701
859.529	21724
859.662	21816
859.795	21785
859.928	21743
860.061	21949
860.194	21850
860.327	21762
860.46	21800
860.592	21903
860.725	21842
860.858	21861
860.99	21838
861.123	21690
861.256	21797
861.388	21759
861.521	22257
861.653	21583
861.786	21481
861.918	21690
862.05	21698
862.183	21667
862.315	21694
862.447	21686
862.58	21690
862.712	21447
862.844	21439
862.976	21553
863.108	21496
863.24	21907
863.372	21428
863.504	21416
863.636	21416
863.768	21519
863.9	21526
864.032	21485
864.164	21336
864.296	21382
864.428	21553
864.559	21622
864.691	21473
864.823	21420
864.954	21416
865.086	21454
865.217	21382
865.349	21264
865.48	21264
865.612	21378
865.743	21511
865.875	21428
866.006	21321
866.137	21340
866.269	21439
866.4	21298
866.531	21256
866.662	21401
866.793	21256
866.924	21218
867.055	21313
867.186	21302
867.317	21321
867.448	21150
867.579	21329
867.71	21161
867.841	21161
867.972	21195
868.103	21291
868.233	21294
868.364	21256
868.495	21462
868.625	21447
868.756	21610
868.886	21439
869.017	21591
869.147	21603
869.278	21671
869.408	21576
869.539	21587
869.669	21701
869.799	21595
869.929	21587
870.06	21523
870.19	21751
870.32	21827
870.45	21797
870.58	21812
870.71	22090
870.84	21991
870.97	21808
871.1	21888
871.23	22063
871.36	22093
871.489	21983
871.619	21968
871.749	22097
871.879	22192
872.008	22196
872.138	22097
872.267	22101
872.397	21838
872.526	21911
872.656	21922
872.785	21949
872.915	22116
873.044	22253
873.173	22093
873.303	22150
873.432	22074
873.561	22299
873.69	22124
873.819	22017
873.948	22135
874.077	22150
874.206	22074
874.335	22158
874.464	22093
874.593	22379
874.722	22329
874.851	22394
874.979	22352
875.108	22417
875.237	22398
875.365	22196
875.494	22287
875.623	22447
875.751	22253
875.88	22287
876.008	22447
876.136	22409
876.265	22873
876.393	22816
876.521	22771
876.65	22843
876.778	22755
876.906	22668
877.034	22713
877.162	22694
877.29	22691
877.418	22683
877.546	22664
877.674	22660
877.802	22637
877.93	22763
878.058	22622
878.185	22599
878.313	22656
878.441	22596
878.568	22432
878.696	22508
878.824	22801
878.951	22759
879.079	22816
879.206	23041
879.333	22892
879.461	22698
879.588	22797
879.715	22881
879.842	22869
879.97	22759
880.097	22295
880.224	22481
880.351	22611
880.478	22630
880.605	22405
880.732	22493
880.859	22767
880.986	22489
881.112	22573
881.239	22390
881.366	22226
881.493	22230
881.619	22070
881.746	22177
881.872	21994
881.999	22059
882.125	22063
882.252	22013
882.378	21994
882.505	22230
882.631	22044
882.757	21880
882.883	21827
883.01	21774
883.136	21778
883.262	21705
883.388	21557
883.514	21774
883.64	21880
883.766	21671
883.892	21561
884.018	21599
884.143	21660
884.269	21861
884.395	21561
884.52	21348
884.646	21481
884.772	21252
884.897	21408
885.023	21542
885.148	21504
885.274	21591
885.399	21507
885.524	21431
885.65	21401
885.775	21477
885.9	21302
886.025	21576
886.15	21496
886.275	21439
886.4	21313
886.525	21317
886.65	21310
886.775	21351
886.9	21504
887.025	21641
887.149	21332
887.274	21192
887.399	21157
887.523	21119
887.648	21108
887.773	21005
887.897	21096
888.021	21317
888.146	21055
888.27	21291
888.395	21264
888.519	21237
888.643	21184
888.767	21226
888.891	21051
889.015	21013
889.139	21024
889.263	20975
889.387	21039
889.511	21230
889.635	21161
889.759	20891
889.883	20956
890.006	20944
890.13	20986
890.254	20815
890.377	20792
890.501	20640
890.624	20693
890.748	20796
890.871	20655
890.995	20552
891.118	20480
891.241	20457
891.364	20473
891.488	20606
891.611	20545
891.734	20560
891.857	20705
891.98	20556
892.103	20598
892.226	20667
892.349	20575
892.471	20343
892.594	20461
892.717	20503
892.839	20473
892.962	20434
893.085	20507
893.207	20492
893.33	20454
893.452	20362
893.575	20442
893.697	20419
893.819	20514
893.941	20598
894.064	20629
894.186	20301
894.308	20298
894.43	20514
894.552	20606
894.674	20587
894.796	20275
894.918	20362
895.04	20446
895.161	20427
895.283	20514
895.405	20434
895.526	20454
895.648	20324
895.769	20454
895.891	20431
896.012	20545
896.134	20389
896.255	20298
896.376	20355
896.498	20476
896.619	20461
896.74	20461
896.861	20503
896.982	20765
897.103	20883
897.224	20724
897.345	20579
897.466	20606
897.587	20678
897.708	20864
897.828	20689
897.949	20590
898.07	20579
898.19	20636
898.311	20697
898.431	20568
898.552	20590
898.672	20613
898.792	20651
898.913	20568
899.033	20427
899.153	20434
899.273	20305
899.393	20328
899.513	20358
899.633	20518
899.753	20377
899.873	20271
899.993	20389
900.113	20427
900.232	20358
900.352	20320
900.472	20294
900.591	20100
900.711	20062
900.83	20172
900.95	20199
901.069	20225
901.189	20100
901.308	19803
901.427	19795
901.546	19681
901.665	19833
901.784	19791
901.904	19613
902.023	19563
902.141	19274
902.26	19259
902.379	19324
902.498	19206
902.617	19190
902.735	19221
902.854	19137
902.973	19232
903.091	19000
903.21	18947
903.328	18935
903.446	18844
903.565	18776
903.683	18810
903.801	18601
903.919	18665
904.038	18684
904.156	18471
904.274	18604
904.392	18422
904.51	18403
904.627	18448
904.745	18441
904.863	18521
904.981	18270
905.098	18167
905.216	18213
905.334	18129
905.451	18038
905.569	18228
905.686	18209
905.803	18136
905.921	17939
906.038	18102
906.155	17908
906.272	17828
906.389	17882
906.506	17802
906.623	17764
906.74	17756
906.857	17604
906.974	17543
907.091	17779
907.208	17680
907.324	17611
907.441	17661
907.557	17421
907.674	17345
907.79	17379
907.907	17341
908.023	17395
908.139	17414
908.256	17318
908.372	17265
908.488	17227
908.604	17064
908.72	16976
908.836	17124
908.952	17060
909.068	17143
909.184	17208
909.3	17071
909.415	17090
909.531	17071
909.647	16858
909.762	16854
909.878	16824
909.993	16755
910.108	16778
910.224	16824
910.339	16763
910.454	16752
910.57	16649
910.685	16565
910.8	16896
910.915	16664
911.03	16603
911.145	16417
911.259	16421
911.374	16348
911.489	16322
911.604	16303
911.718	16082
911.833	16185
911.947	16097
912.062	16017
912.176	16158
912.291	16188
912.405	16097
912.519	16306
912.633	16424
912.748	16246
912.862	16128
912.976	16032
913.09	15869
913.204	15945
913.318	16002
913.431	16059
913.545	16059
913.659	16040
913.772	15869
913.886	15911
914	15812
914.113	15778
914.226	15899
914.34	15751
914.453	15747
914.566	15789
914.68	15698
914.793	15572
914.906	15408
915.019	15348
915.132	15302
915.245	15359
915.358	15374
915.47	15374
915.583	15439
915.696	15405
915.809	15473
915.921	15523
916.034	15294
916.146	15203
916.259	15298
916.371	15336
916.483	15245
916.595	15119
916.708	15184
916.82	15112
916.932	15180
917.044	15211
917.156	15024
917.268	15066
917.38	15032
917.491	14998
917.603	15032
917.715	15074
917.826	15066
917.938	14925
918.049	14849
918.161	14956
918.272	15097
918.384	15085
918.495	14948
918.606	14697
918.717	14701
918.828	14735
918.939	14724
919.05	14746
919.161	14819
919.272	14499
919.383	14720
919.494	14815
919.604	14963
919.715	14739
919.826	14655
919.936	14682
920.047	14705
920.157	14724
920.267	14990
920.378	14735
920.488	14697
920.598	14929
920.708	14929
920.818	14815
920.928	14765
921.038	14963
921.148	14925
921.258	14663
921.368	14583
921.477	14450
921.587	14408
921.697	14259
921.806	14476
921.916	14332
922.025	14153
922.134	13993
922.244	14073
922.353	14149
922.462	14001
922.571	13993
922.68	13731
922.789	13734
922.898	13738
923.007	13696
923.116	13799
923.224	13681
923.333	13647
923.442	13514
923.55	13548
923.659	13609
923.767	13613
923.876	13499
923.984	13616
924.092	13483
924.201	13441
924.309	13537
924.417	13518
924.525	13419
924.633	13388
924.741	14237
924.849	13133
924.956	13228
925.064	13137
925.172	13065
925.279	13209
925.387	13194
925.494	13072
925.602	13274
925.709	13194
925.816	13023
925.924	13027
926.031	13171
926.138	13042
926.245	13107
926.352	12977
926.459	13095
926.566	13099
926.673	12977
926.779	12939
926.886	12810
926.993	12700
927.099	12768
927.206	12719
927.312	12642
927.419	12711
927.525	12764
927.631	12734
927.737	12662
927.843	12525
927.95	12380
928.056	12464
928.162	12540
928.267	12616
928.373	13156
928.479	12635
928.585	12445
928.69	12498
928.796	12532
928.901	12365
929.007	12152
929.112	12296
929.218	12315
929.323	12273
929.428	12136
929.533	12429
929.638	12232
929.743	12167
929.848	12129
929.953	12243
930.058	12129
930.163	11901
930.267	12003
930.372	12068
930.477	11923
930.581	12072
930.685	11908
930.79	11794
930.894	11847
930.998	11817
931.103	11847
931.207	11623
931.311	11417
931.415	11440
931.519	11178
931.623	11140
