Data from test_V78500241_1467.txt Node
Date: Fri Mar 25 15:51:57 CST 2022
User: usil
Spectrometer: V785-0024
Trigger mode: 0
Integration Time (sec): 4.000000E-1
Scans to average: 1
Nonlinearity correction enabled: false
Boxcar width: 0
Storing dark spectrum: false
XAxis mode: Wavelengths
Number of Pixels in Spectrum: 1024
>>>>>Begin Spectral Data<<<<<
801.071	28017
801.214	28013
801.356	27857
801.499	27606
801.641	27477
801.783	27572
801.926	27690
802.068	27549
802.211	27382
802.353	27443
802.496	27298
802.638	27165
802.78	27233
802.923	27192
803.065	27017
803.208	27207
803.35	27096
803.492	27405
803.635	27363
803.777	27340
803.919	27302
804.061	27736
804.204	27336
804.346	27256
804.488	27321
804.63	27397
804.773	27435
804.915	27523
805.057	27580
805.199	27294
805.341	27420
805.483	27530
805.626	27568
805.768	27466
805.91	27515
806.052	27603
806.194	27370
806.336	27717
806.478	27542
806.62	27549
806.762	27629
806.904	27736
807.046	28109
807.188	27994
807.33	28021
807.472	27956
807.614	27876
807.756	27914
807.898	27736
808.04	27762
808.182	27770
808.324	27781
808.465	27861
808.607	28082
808.749	28116
808.891	28207
809.033	28371
809.174	28207
809.316	28139
809.458	28166
809.6	28029
809.741	28246
809.883	28398
810.025	28314
810.166	28371
810.308	28459
810.45	28417
810.591	28379
810.733	28169
810.875	28124
811.016	27975
811.158	27960
811.299	28276
811.441	28291
811.582	28318
811.724	28135
811.865	28162
812.007	27930
812.148	28090
812.29	28246
812.431	28443
812.573	28348
812.714	28497
812.855	28561
812.997	28679
813.138	28980
813.279	28668
813.421	28649
813.562	28630
813.703	28462
813.845	28265
813.986	28207
814.127	27876
814.268	27816
814.41	27941
814.551	27804
814.692	27812
814.833	27835
814.974	27766
815.115	27922
815.256	27766
815.397	27561
815.539	27690
815.68	27728
815.821	27603
815.962	27778
816.103	27701
816.244	27523
816.385	27462
816.526	27332
816.666	27192
816.807	27062
816.948	27367
817.089	27283
817.23	27096
817.371	27192
817.512	27218
817.653	27112
817.793	27089
817.934	27104
818.075	27237
818.216	27100
818.356	27081
818.497	27028
818.638	26792
818.778	26986
818.919	26891
819.06	26929
819.2	26986
819.341	27195
819.481	27146
819.622	27272
819.762	27496
819.903	27336
820.043	27321
820.184	27272
820.324	27127
820.465	27260
820.605	27260
820.746	27165
820.886	27036
821.026	27192
821.167	27116
821.307	27348
821.447	27176
821.588	26960
821.728	26956
821.868	26788
822.008	26788
822.149	26686
822.289	26530
822.429	26431
822.569	26339
822.709	26237
822.849	26122
822.99	26115
823.13	26035
823.27	25966
823.41	25852
823.55	25784
823.69	25902
823.83	26039
823.97	25795
824.11	25769
824.25	25723
824.389	25738
824.529	25826
824.669	25693
824.809	25772
824.949	25841
825.089	25898
825.228	25887
825.368	25674
825.508	25677
825.648	25693
825.787	25662
825.927	25635
826.067	25727
826.206	25544
826.346	25753
826.485	25552
826.625	25567
826.765	25670
826.904	25655
827.044	25422
827.183	25377
827.323	25297
827.462	25400
827.601	25377
827.741	25263
827.88	25278
828.02	25240
828.159	25244
828.298	25441
828.437	25502
828.577	25126
828.716	25381
828.855	25171
828.994	25076
829.134	25061
829.273	25004
829.412	25072
829.551	24924
829.69	24920
829.829	25095
829.968	25061
830.107	25034
830.246	24992
830.385	24817
830.524	24977
830.663	24840
830.802	24764
830.941	24616
831.08	24585
831.219	24776
831.357	24776
831.496	24753
831.635	24612
831.774	24650
831.913	24494
832.051	24357
832.19	24350
832.329	24426
832.467	24285
832.606	24350
832.744	24346
832.883	24121
833.022	24224
833.16	24365
833.299	24384
833.437	24311
833.576	24479
833.714	24437
833.852	24330
833.991	24388
834.129	24460
834.267	24422
834.406	24391
834.544	24410
834.682	24403
834.821	24220
834.959	24563
835.097	24319
835.235	24338
835.373	24323
835.511	24289
835.65	24194
835.788	24144
835.926	24003
836.064	24038
836.202	24011
836.34	24197
836.478	24220
836.615	24106
836.753	24117
836.891	24300
837.029	24300
837.167	24060
837.305	24102
837.443	23965
837.58	24007
837.718	24068
837.856	23977
837.993	23961
838.131	23958
838.269	23958
838.406	23939
838.544	23904
838.681	23680
838.819	23539
838.956	23471
839.094	23543
839.231	23589
839.369	23798
839.506	23840
839.643	23741
839.781	23535
839.918	23425
840.055	23360
840.193	23440
840.33	23440
840.467	23486
840.604	23509
840.742	23710
840.879	23315
841.016	23402
841.153	23337
841.29	23558
841.427	23429
841.564	23395
841.701	23421
841.838	23509
841.975	23391
842.112	23311
842.249	23197
842.385	23231
842.522	23364
842.659	23265
842.796	23136
842.933	23128
843.069	23014
843.206	23170
843.343	23277
843.479	23105
843.616	23090
843.752	22904
843.889	23014
844.025	23094
844.162	22961
844.298	22965
844.435	22938
844.571	22930
844.708	22919
844.844	23044
844.98	23086
845.117	23022
845.253	22957
845.389	22767
845.525	22759
845.661	22778
845.798	22592
845.934	22733
846.07	22580
846.206	22668
846.342	22797
846.478	22675
846.614	22455
846.75	22440
846.886	22424
847.022	22462
847.158	22360
847.294	22341
847.429	22421
847.565	22424
847.701	22672
847.837	22135
847.972	22143
848.108	22188
848.244	22067
848.379	21850
848.515	21987
848.65	22032
848.786	22017
848.921	22055
849.057	22048
849.192	22109
849.328	22017
849.463	22029
849.598	21915
849.734	21861
849.869	21831
850.004	21831
850.14	21789
850.275	21781
850.41	21576
850.545	21667
850.68	21724
850.815	21800
850.95	21675
851.085	21983
851.22	21911
851.355	21751
851.49	21701
851.625	21732
851.76	21717
851.895	21568
852.03	21660
852.165	21701
852.299	21892
852.434	21899
852.569	21755
852.703	21648
852.838	21876
852.973	21934
853.107	21842
853.242	21614
853.376	21583
853.511	21454
853.645	21515
853.78	21751
853.914	21671
854.048	21485
854.183	21526
854.317	21576
854.451	21682
854.585	21553
854.72	21553
854.854	21629
854.988	21526
855.122	21557
855.256	21466
855.39	21564
855.524	21717
855.658	21622
855.792	21530
855.926	21557
856.06	21652
856.194	21736
856.327	21625
856.461	21587
856.595	21568
856.729	21416
856.862	21720
856.996	21614
857.13	21599
857.263	21622
857.397	21610
857.53	21568
857.664	21728
857.797	21686
857.931	21709
858.064	21583
858.197	21690
858.331	21511
858.464	21504
858.597	21443
858.731	21367
858.864	21447
858.997	21454
859.13	21542
859.263	21644
859.396	21629
859.529	21545
859.662	21462
859.795	21553
859.928	21610
860.061	21675
860.194	21903
860.327	21618
860.46	21462
860.592	21694
860.725	21717
860.858	21762
860.99	21576
861.123	21492
861.256	21485
861.388	21583
861.521	22299
861.653	21492
861.786	21355
861.918	21447
862.05	21401
862.183	21504
862.315	21393
862.447	21553
862.58	21424
862.712	21310
862.844	21272
862.976	21226
863.108	21291
863.24	21690
863.372	21306
863.504	21306
863.636	21443
863.768	21325
863.9	21279
864.032	21154
864.164	21226
864.296	21317
864.428	21279
864.559	21237
864.691	21252
864.823	21329
864.954	21310
865.086	21279
865.217	21287
865.349	21127
865.48	21287
865.612	21195
865.743	21344
865.875	21199
866.006	21142
866.137	21093
866.269	21066
866.4	21093
866.531	21173
866.662	20979
866.793	21108
866.924	21142
867.055	21146
867.186	21218
867.317	21142
867.448	20925
867.579	21077
867.71	21017
867.841	21085
867.972	21146
868.103	21024
868.233	21055
868.364	21096
868.495	21161
868.625	21306
868.756	21439
868.886	21287
869.017	21370
869.147	21511
869.278	21473
869.408	21447
869.539	21317
869.669	21416
869.799	21370
869.929	21405
870.06	21481
870.19	21660
870.32	21568
870.45	21606
870.58	21720
870.71	21842
870.84	21797
870.97	21739
871.1	21766
871.23	21922
871.36	21842
871.489	21861
871.619	21876
871.749	21926
871.879	21956
872.008	21994
872.138	22010
872.267	21922
872.397	21838
872.526	21781
872.656	21903
872.785	21804
872.915	21918
873.044	22017
873.173	21918
873.303	21987
873.432	22097
873.561	21979
873.69	21937
873.819	21930
873.948	21994
874.077	21968
874.206	22067
874.335	22006
874.464	21998
874.593	22242
874.722	22253
874.851	22215
874.979	22166
875.108	22226
875.237	22253
875.365	22101
875.494	22249
875.623	22131
875.751	22234
875.88	22253
876.008	22356
876.136	22386
876.265	22493
876.393	22679
876.521	22660
876.65	22565
876.778	22493
876.906	22474
877.034	22470
877.162	22580
877.29	22462
877.418	22535
877.546	22580
877.674	22542
877.802	22596
877.93	22649
878.058	22424
878.185	22440
878.313	22531
878.441	22440
878.568	22451
878.696	22622
878.824	22508
878.951	22630
879.079	22725
879.206	22793
879.333	22668
879.461	22615
879.588	22691
879.715	22733
879.842	22892
879.97	22664
880.097	22398
880.224	22303
880.351	22417
880.478	22443
880.605	22344
880.732	22402
880.859	22637
880.986	22398
881.112	22379
881.239	22329
881.366	22093
881.493	21968
881.619	21953
881.746	21956
881.872	21994
881.999	21964
882.125	21903
882.252	21918
882.378	21937
882.505	21998
882.631	21736
882.757	21587
882.883	21709
883.01	21663
883.136	21641
883.262	21576
883.388	21405
883.514	21572
883.64	21671
883.766	21553
883.892	21500
884.018	21412
884.143	21576
884.269	21637
884.395	21298
884.52	21275
884.646	21412
884.772	21150
884.897	21169
885.023	21180
885.148	21264
885.274	21450
885.399	21367
885.524	21302
885.65	21279
885.775	21306
885.9	21241
886.025	21359
886.15	21408
886.275	21131
886.4	21218
886.525	21123
886.65	21123
886.775	21138
886.9	21389
887.025	21439
887.149	21279
887.274	21032
887.399	21028
887.523	21032
887.648	21032
887.773	21001
887.897	21066
888.021	21051
888.146	21062
888.27	21188
888.395	21100
888.519	21135
888.643	21104
888.767	21077
888.891	20960
889.015	20929
889.139	20941
889.263	20777
889.387	20910
889.511	21085
889.635	20864
889.759	20758
889.883	20861
890.006	20773
890.13	20956
890.254	20807
890.377	20758
890.501	20609
890.624	20568
890.748	20560
890.871	20457
890.995	20355
891.118	20408
891.241	20347
891.364	20412
891.488	20549
891.611	20347
891.734	20396
891.857	20446
891.98	20415
892.103	20454
892.226	20385
892.349	20469
892.471	20210
892.594	20313
892.717	20377
892.839	20332
892.962	20240
893.085	20404
893.207	20317
893.33	20225
893.452	20259
893.575	20336
893.697	20229
893.819	20465
893.941	20469
894.064	20431
894.186	20180
894.308	20233
894.43	20294
894.552	20503
894.674	20358
894.796	20164
894.918	20267
895.04	20339
895.161	20210
895.283	20317
895.405	20259
895.526	20229
895.648	20282
895.769	20332
895.891	20336
896.012	20381
896.134	20415
896.255	20263
896.376	20362
896.498	20370
896.619	20377
896.74	20237
896.861	20320
896.982	20705
897.103	20724
897.224	20636
897.345	20549
897.466	20339
897.587	20393
897.708	20613
897.828	20575
897.949	20362
898.07	20362
898.19	20438
898.311	20636
898.431	20507
898.552	20609
898.672	20667
898.792	20530
898.913	20549
899.033	20465
899.153	20431
899.273	20202
899.393	20271
899.513	20282
899.633	20237
899.753	20237
899.873	20233
899.993	20351
900.113	20183
900.232	20233
900.352	20187
900.472	20092
900.591	20126
900.711	20130
900.83	19928
900.95	20161
901.069	20138
901.189	19974
901.308	19757
901.427	19575
901.546	19624
901.665	19632
901.784	19578
901.904	19441
902.023	19324
902.141	19259
902.26	19103
902.379	19209
902.498	19160
902.617	19034
902.735	19137
902.854	19050
902.973	19046
903.091	18932
903.21	18859
903.328	18798
903.446	18585
903.565	18620
903.683	18555
903.801	18448
903.919	18544
904.038	18490
904.156	18380
904.274	18384
904.392	18380
904.51	18350
904.627	18178
904.745	18494
904.863	18334
904.981	18262
905.098	18060
905.216	17996
905.334	18110
905.451	18019
905.569	18034
905.686	18110
905.803	17958
905.921	17866
906.038	17946
906.155	17836
906.272	17718
906.389	17687
906.506	17596
906.623	17596
906.74	17589
906.857	17482
906.974	17505
907.091	17691
907.208	17676
907.324	17630
907.441	17539
907.557	17254
907.674	17303
907.79	17212
907.907	17254
908.023	17307
908.139	17288
908.256	17220
908.372	17178
908.488	17197
908.604	17151
908.72	16987
908.836	17022
908.952	16980
909.068	16976
909.184	16987
909.3	16961
909.415	16965
909.531	16972
909.647	16733
909.762	16752
909.878	16694
909.993	16820
910.108	16645
910.224	16653
910.339	16626
910.454	16580
910.57	16592
910.685	16413
910.8	16790
910.915	16615
911.03	16481
911.145	16314
911.259	16246
911.374	16379
911.489	16257
911.604	16185
911.718	16135
911.833	15975
911.947	15953
912.062	15975
912.176	16090
912.291	16120
912.405	16196
912.519	16246
912.633	16238
912.748	15983
912.862	16036
912.976	15869
913.09	15739
913.204	15816
913.318	15789
913.431	15918
913.545	15831
913.659	15964
913.772	15800
913.886	15698
914	15694
914.113	15576
914.226	15648
914.34	15633
914.453	15504
914.566	15701
914.68	15523
914.793	15553
914.906	15291
915.019	15249
915.132	15184
915.245	15302
915.358	15279
915.47	15230
915.583	15340
915.696	15310
915.809	15386
915.921	15306
916.034	15260
916.146	15127
916.259	15123
916.371	15180
916.483	15211
916.595	15135
916.708	15161
916.82	14994
916.932	15005
917.044	15051
917.156	15074
917.268	14899
917.38	14906
917.491	14990
917.603	14864
917.715	14914
917.826	15058
917.938	14883
918.049	14750
918.161	14853
918.272	15017
918.384	14887
918.495	14724
918.606	14583
918.717	14625
918.828	14697
918.939	14712
919.05	14571
919.161	14621
919.272	14434
919.383	14526
919.494	14667
919.604	14785
919.715	14575
919.826	14533
919.936	14621
920.047	14610
920.157	14552
920.267	14796
920.378	14735
920.488	14545
920.598	14804
920.708	14925
920.818	14769
920.928	14853
921.038	14937
921.148	14929
921.258	14602
921.368	14503
921.477	14267
921.587	14317
921.697	14180
921.806	14320
921.916	14225
922.025	14043
922.134	14027
922.244	13890
922.353	13940
922.462	13822
922.571	13875
922.68	13727
922.789	13620
922.898	13559
923.007	13540
923.116	13639
923.224	13647
923.333	13715
923.442	13544
923.55	13472
923.659	13483
923.767	13525
923.876	13407
923.984	13468
924.092	13369
924.201	13407
924.309	13327
924.417	13324
924.525	13316
924.633	13255
924.741	14081
924.849	13053
924.956	13236
925.064	13076
925.172	13031
925.279	13080
925.387	13168
925.494	13057
925.602	13206
925.709	13133
925.816	13069
925.924	13129
926.031	13061
926.138	13000
926.245	13069
926.352	12867
926.459	12928
926.566	13080
926.673	12981
926.779	12772
926.886	12753
926.993	12677
927.099	12677
927.206	12631
927.312	12574
927.419	12578
927.525	12612
927.631	12608
927.737	12486
927.843	12422
927.95	12311
928.056	12395
928.162	12426
928.267	12448
928.373	13061
928.479	12528
928.585	12296
928.69	12350
928.796	12471
928.901	12323
929.007	12125
929.112	12224
929.218	12186
929.323	12235
929.428	12152
929.533	12304
929.638	12072
929.743	12110
929.848	12136
929.953	12175
930.058	12015
930.163	11870
930.267	11783
930.372	11996
930.477	11843
930.581	12079
930.685	11923
930.79	11707
930.894	11657
930.998	11653
931.103	11843
931.207	11493
931.311	11383
931.415	11349
931.519	11067
931.623	11136
