Data from test_V78500241_2907.txt Node
Date: Fri Mar 25 16:01:56 CST 2022
User: usil
Spectrometer: V785-0024
Trigger mode: 0
Integration Time (sec): 4.000000E-1
Scans to average: 1
Nonlinearity correction enabled: false
Boxcar width: 0
Storing dark spectrum: false
XAxis mode: Wavelengths
Number of Pixels in Spectrum: 1024
>>>>>Begin Spectral Data<<<<<
801.071	28557
801.214	28341
801.356	28249
801.499	28284
801.641	28143
801.783	28105
801.926	28063
802.068	28158
802.211	27983
802.353	28048
802.496	27827
802.638	27743
802.78	27652
802.923	27724
803.065	27694
803.208	27606
803.35	27781
803.492	27941
803.635	27888
803.777	27983
803.919	28063
804.061	28226
804.204	27926
804.346	28051
804.488	27968
804.63	28101
804.773	27873
804.915	28093
805.057	28124
805.199	28078
805.341	28128
805.483	28147
805.626	28234
805.768	28025
805.91	28154
806.052	28120
806.194	28086
806.336	28299
806.478	28166
806.62	28169
806.762	28341
806.904	28599
807.046	28691
807.188	28569
807.33	28694
807.472	28729
807.614	28569
807.756	28611
807.898	28611
808.04	28474
808.182	28375
808.324	28489
808.465	28519
808.607	28618
808.749	28717
808.891	28866
809.033	28927
809.174	28938
809.316	28778
809.458	28896
809.6	28668
809.741	28866
809.883	28942
810.025	29216
810.166	29044
810.308	29155
810.45	29025
810.591	29018
810.733	28812
810.875	29014
811.016	28691
811.158	28816
811.299	29003
811.441	29075
811.582	28995
811.724	28904
811.865	28995
812.007	29006
812.148	28888
812.29	28881
812.431	29014
812.573	29197
812.714	29307
812.855	29303
812.997	29421
813.138	29581
813.279	29501
813.421	29368
813.562	29246
813.703	29200
813.845	29204
813.986	28763
814.127	28599
814.268	28512
814.41	28538
814.551	28436
814.692	28717
814.833	28508
814.974	28542
815.115	28653
815.256	28348
815.397	28489
815.539	28295
815.68	28440
815.821	28261
815.962	28413
816.103	28268
816.244	28322
816.385	28268
816.526	28204
816.666	27934
816.807	27838
816.948	27926
817.089	28051
817.23	27972
817.371	27827
817.512	27876
817.653	27865
817.793	27846
817.934	27827
818.075	27911
818.216	27797
818.356	27789
818.497	27808
818.638	27545
818.778	27701
818.919	27728
819.06	27739
819.2	27838
819.341	27956
819.481	27861
819.622	28040
819.762	28166
819.903	28310
820.043	28074
820.184	28105
820.324	27979
820.465	28131
820.605	28078
820.746	27994
820.886	27838
821.026	27914
821.167	27895
821.307	28021
821.447	27914
821.588	27827
821.728	27663
821.868	27549
822.008	27420
822.149	27291
822.289	27279
822.429	27066
822.569	26982
822.709	26979
822.849	27013
822.99	26910
823.13	26937
823.27	26739
823.41	26701
823.55	26571
823.69	26686
823.83	26686
823.97	26830
824.11	26423
824.25	26450
824.389	26503
824.529	26568
824.669	26537
824.809	26636
824.949	26640
825.089	26533
825.228	26632
825.368	26362
825.508	26473
825.648	26377
825.787	26480
825.927	26450
826.067	26408
826.206	26366
826.346	26484
826.485	26301
826.625	26404
826.765	26419
826.904	26434
827.044	26195
827.183	26088
827.323	26126
827.462	26183
827.601	26084
827.741	25966
827.88	26054
828.02	25974
828.159	26084
828.298	26119
828.437	26214
828.577	25974
828.716	26096
828.855	25974
828.994	25879
829.134	25879
829.273	25765
829.412	25712
829.551	25807
829.69	25791
829.829	25727
829.968	25966
830.107	25826
830.246	25875
830.385	25879
830.524	25788
830.663	25594
830.802	25548
830.941	25362
831.08	25320
831.219	25499
831.357	25594
831.496	25708
831.635	25476
831.774	25293
831.913	25312
832.051	25209
832.19	25198
832.329	25183
832.467	25145
832.606	25110
832.744	25053
832.883	25069
833.022	25122
833.16	24962
833.299	25038
833.437	25103
833.576	25228
833.714	25179
833.852	25297
833.991	25270
834.129	25107
834.267	25145
834.406	25110
834.544	25202
834.682	25107
834.821	25107
834.959	25293
835.097	25050
835.235	25183
835.373	25038
835.511	25088
835.65	25046
835.788	24894
835.926	24863
836.064	24814
836.202	24814
836.34	25008
836.478	24989
836.615	24871
836.753	24837
836.891	24878
837.029	24932
837.167	24871
837.305	24787
837.443	24810
837.58	24848
837.718	24939
837.856	24932
837.993	24760
838.131	24688
838.269	24635
838.406	24722
838.544	24627
838.681	24357
838.819	24505
838.956	24357
839.094	24254
839.231	24369
839.369	24384
839.506	24555
839.643	24456
839.781	24159
839.918	24239
840.055	24285
840.193	24213
840.33	24216
840.467	24163
840.604	24121
840.742	24418
840.879	23977
841.016	24129
841.153	24007
841.29	24327
841.427	24095
841.564	24136
841.701	24095
841.838	24117
841.975	24026
842.112	24140
842.249	24194
842.385	23965
842.522	24144
842.659	24079
842.796	23828
842.933	23988
843.069	23916
843.206	23859
843.343	24015
843.479	23958
843.616	23889
843.752	23756
843.889	23737
844.025	23889
844.162	23661
844.298	23707
844.435	23680
844.571	23649
844.708	23680
844.844	23775
844.98	23760
845.117	23798
845.253	23672
845.389	23516
845.525	23714
845.661	23615
845.798	23356
845.934	23505
846.07	23417
846.206	23554
846.342	23436
846.478	23330
846.614	23193
846.75	23220
846.886	23105
847.022	23288
847.158	23071
847.294	23193
847.429	23231
847.565	23326
847.701	23250
847.837	22854
847.972	22938
848.108	23056
848.244	23014
848.379	22889
848.515	22771
848.65	22683
848.786	22797
848.921	22774
849.057	22892
849.192	22866
849.328	22710
849.463	22801
849.598	22729
849.734	22634
849.869	22672
850.004	22538
850.14	22508
850.275	22455
850.41	22424
850.545	22527
850.68	22519
850.815	22561
850.95	22527
851.085	22778
851.22	22656
851.355	22596
851.49	22478
851.625	22489
851.76	22474
851.895	22367
852.03	22299
852.165	22478
852.299	22386
852.434	22554
852.569	22672
852.703	22542
852.838	22573
852.973	22466
853.107	22584
853.242	22451
853.376	22375
853.511	22356
853.645	22314
853.78	22363
853.914	22402
854.048	22390
854.183	22295
854.317	22265
854.451	22497
854.585	22470
854.72	22379
854.854	22348
854.988	22291
855.122	22451
855.256	22204
855.39	22325
855.524	22371
855.658	22344
855.792	22451
855.926	22356
856.06	22356
856.194	22455
856.327	22280
856.461	22325
856.595	22287
856.729	22337
856.862	22459
856.996	22436
857.13	22466
857.263	22436
857.397	22455
857.53	22280
857.664	22280
857.797	22428
857.931	22538
858.064	22386
858.197	22386
858.331	22287
858.464	22284
858.597	22154
858.731	22299
858.864	22295
858.997	22318
859.13	22295
859.263	22363
859.396	22447
859.529	22303
859.662	22291
859.795	22291
859.928	22226
860.061	22504
860.194	22508
860.327	22508
860.46	22348
860.592	22474
860.725	22481
860.858	22432
860.99	22402
861.123	22204
861.256	22181
861.388	22257
861.521	23117
861.653	22105
861.786	22143
861.918	22158
862.05	22207
862.183	22276
862.315	22341
862.447	22348
862.58	22284
862.712	22109
862.844	22090
862.976	22139
863.108	22215
863.24	22508
863.372	22078
863.504	21998
863.636	22048
863.768	22029
863.9	22116
864.032	22063
864.164	21994
864.296	22090
864.428	22086
864.559	22044
864.691	22230
864.823	22093
864.954	22002
865.086	21983
865.217	21983
865.349	22029
865.48	22074
865.612	21949
865.743	21956
865.875	21941
866.006	21827
866.137	21937
866.269	21930
866.4	21979
866.531	21930
866.662	21873
866.793	21838
866.924	21937
867.055	21903
867.186	21781
867.317	21846
867.448	21770
867.579	21759
867.71	21789
867.841	21804
867.972	22021
868.103	21960
868.233	21785
868.364	21804
868.495	22078
868.625	22070
868.756	22177
868.886	22070
869.017	22082
869.147	22215
869.278	22173
869.408	22226
869.539	22120
869.669	22185
869.799	22238
869.929	22135
870.06	22325
870.19	22424
870.32	22466
870.45	22276
870.58	22519
870.71	22687
870.84	22607
870.97	22584
871.1	22432
871.23	22630
871.36	22672
871.489	22736
871.619	22668
871.749	22626
871.879	22850
872.008	22801
872.138	22615
872.267	22683
872.397	22668
872.526	22500
872.656	22561
872.785	22660
872.915	22797
873.044	22812
873.173	22767
873.303	22843
873.432	22828
873.561	22786
873.69	22721
873.819	22679
873.948	22869
874.077	22774
874.206	22782
874.335	22721
874.464	22953
874.593	22927
874.722	22869
874.851	23025
874.979	22900
875.108	22972
875.237	22816
875.365	22976
875.494	22892
875.623	22976
875.751	22881
875.88	22942
876.008	23018
876.136	23121
876.265	23254
876.393	23474
876.521	23402
876.65	23463
876.778	23353
876.906	23387
877.034	23261
877.162	23307
877.29	23216
877.418	23318
877.546	23296
877.674	23170
877.802	23277
877.93	23372
878.058	23239
878.185	23185
878.313	23174
878.441	23315
878.568	23147
878.696	23216
878.824	23242
878.951	23334
879.079	23539
879.206	23649
879.333	23547
879.461	23326
879.588	23330
879.715	23520
879.842	23634
879.97	23322
880.097	23178
880.224	23105
880.351	23239
880.478	23204
880.605	23079
880.732	22972
880.859	23330
880.986	23098
881.112	23185
881.239	22881
881.366	22968
881.493	22687
881.619	22729
881.746	22626
881.872	22691
881.999	22744
882.125	22679
882.252	22630
882.378	22774
882.505	22683
882.631	22550
882.757	22356
882.883	22432
883.01	22462
883.136	22341
883.262	22154
883.388	22234
883.514	22379
883.64	22432
883.766	22246
883.892	22230
884.018	22162
884.143	22291
884.269	22489
884.395	22204
884.52	22021
884.646	22010
884.772	21918
884.897	22040
885.023	21934
885.148	22147
885.274	22173
885.399	22044
885.524	22063
885.65	22006
885.775	21930
885.9	21842
886.025	21975
886.15	22139
886.275	21857
886.4	21941
886.525	21903
886.65	21869
886.775	21789
886.9	22025
887.025	22150
887.149	21918
887.274	21762
887.399	21743
887.523	21641
887.648	21743
887.773	21652
887.897	21835
888.021	21819
888.146	21534
888.27	21781
888.395	21842
888.519	21709
888.643	21762
888.767	21785
888.891	21656
889.015	21557
889.139	21656
889.263	21511
889.387	21660
889.511	21671
889.635	21599
889.759	21515
889.883	21431
890.006	21481
890.13	21583
890.254	21386
890.377	21454
890.501	21218
890.624	21325
890.748	21268
890.871	21157
890.995	21146
891.118	21036
891.241	21142
891.364	21127
891.488	21298
891.611	21165
891.734	21028
891.857	21245
891.98	21070
892.103	20979
892.226	21100
892.349	20906
892.471	20823
892.594	21039
892.717	20956
892.839	21028
892.962	20944
893.085	21089
893.207	21058
893.33	20880
893.452	20819
893.575	21032
893.697	20937
893.819	21275
893.941	21237
894.064	21176
894.186	20838
894.308	20971
894.43	21093
894.552	21093
894.674	21055
894.796	20792
894.918	20998
895.04	20826
895.161	20982
895.283	21001
895.405	20963
895.526	20998
895.648	20975
895.769	20937
895.891	20971
896.012	21089
896.134	21104
896.255	20925
896.376	20895
896.498	20990
896.619	20990
896.74	20990
896.861	20982
896.982	21260
897.103	21405
897.224	21211
897.345	21184
897.466	21195
897.587	21058
897.708	21321
897.828	21112
897.949	21161
898.07	20861
898.19	21142
898.311	21264
898.431	21077
898.552	21291
898.672	21169
898.792	21176
898.913	21230
899.033	21112
899.153	20944
899.273	20853
899.393	20781
899.513	20982
899.633	20876
899.753	20902
899.873	20811
899.993	20899
900.113	20921
900.232	20880
900.352	20834
900.472	20632
900.591	20545
900.711	20731
900.83	20583
900.95	20769
901.069	20819
901.189	20575
901.308	20317
901.427	20103
901.546	20240
901.665	20180
901.784	20210
901.904	19963
902.023	20005
902.141	19841
902.26	19856
902.379	19647
902.498	19696
902.617	19685
902.735	19795
902.854	19704
902.973	19575
903.091	19419
903.21	19384
903.328	19434
903.446	19198
903.565	19255
903.683	19255
903.801	19084
903.919	19103
904.038	19122
904.156	19000
904.274	19027
904.392	19008
904.51	19050
904.627	18852
904.745	19012
904.863	19027
904.981	18772
905.098	18646
905.216	18620
905.334	18688
905.451	18665
905.569	18658
905.686	18673
905.803	18631
905.921	18475
906.038	18486
906.155	18441
906.272	18285
906.389	18399
906.506	18121
906.623	18239
906.74	18186
906.857	18114
906.974	18045
907.091	18243
907.208	18281
907.324	18186
907.441	18178
907.557	17950
907.674	17908
907.79	17779
907.907	17889
908.023	17824
908.139	17988
908.256	17767
908.372	17710
908.488	17767
908.604	17604
908.72	17615
908.836	17638
908.952	17589
909.068	17615
909.184	17729
909.3	17611
909.415	17573
909.531	17554
909.647	17322
909.762	17280
909.878	17193
909.993	17273
910.108	17284
910.224	17212
910.339	17189
910.454	17014
910.57	17083
910.685	17014
910.8	17197
910.915	17216
911.03	16980
911.145	17014
911.259	16866
911.374	16824
911.489	16748
911.604	16702
911.718	16634
911.833	16702
911.947	16565
912.062	16531
912.176	16565
912.291	16512
912.405	16630
912.519	16850
912.633	16721
912.748	16653
912.862	16573
912.976	16466
913.09	16325
913.204	16352
913.318	16424
913.431	16447
913.545	16615
913.659	16432
913.772	16413
913.886	16230
914	16063
914.113	16348
914.226	16303
914.34	16276
914.453	16135
914.566	16109
914.68	16074
914.793	16082
914.906	15842
915.019	15797
915.132	15766
915.245	15766
915.358	15732
915.47	15736
915.583	15728
915.696	15800
915.809	15922
915.921	15876
916.034	15759
916.146	15648
916.259	15728
916.371	15698
916.483	15751
916.595	15682
916.708	15633
916.82	15690
916.932	15557
917.044	15538
917.156	15538
917.268	15401
917.38	15504
917.491	15454
917.603	15336
917.715	15488
917.826	15428
917.938	15447
918.049	15230
918.161	15428
918.272	15511
918.384	15439
918.495	15428
918.606	15283
918.717	15085
918.828	15154
918.939	15275
919.05	15074
919.161	15188
919.272	14876
919.383	14960
919.494	15218
919.604	15393
919.715	15195
919.826	15051
919.936	15108
920.047	15176
920.157	15070
920.267	15302
920.378	15062
920.488	15169
920.598	15283
920.708	15511
920.818	15256
920.928	15245
921.038	15348
921.148	15298
921.258	15123
921.368	14982
921.477	14960
921.587	14800
921.697	14716
921.806	14849
921.916	14651
922.025	14473
922.134	14537
922.244	14503
922.353	14564
922.462	14442
922.571	14320
922.68	14123
922.789	14107
922.898	14161
923.007	13978
923.116	14134
923.224	14107
923.333	14084
923.442	13993
923.55	13974
923.659	13959
923.767	13967
923.876	13875
923.984	14012
924.092	13944
924.201	13833
924.309	13738
924.417	13917
924.525	13753
924.633	13757
924.741	14606
924.849	13586
924.956	13666
925.064	13632
925.172	13407
925.279	13506
925.387	13499
925.494	13495
925.602	13559
925.709	13468
925.816	13388
925.924	13316
926.031	13460
926.138	13419
926.245	13419
926.352	13255
926.459	13502
926.566	13449
926.673	13274
926.779	13202
926.886	13198
926.993	13023
927.099	13053
927.206	12993
927.312	13012
927.419	12970
927.525	12954
927.631	13088
927.737	12852
927.843	12875
927.95	12753
928.056	12886
928.162	12844
928.267	12840
928.373	13540
928.479	12848
928.585	12642
928.69	12745
928.796	12875
928.901	12726
929.007	12525
929.112	12677
929.218	12681
929.323	12601
929.428	12475
929.533	12692
929.638	12429
929.743	12525
929.848	12563
929.953	12597
930.058	12369
930.163	12315
930.267	12308
930.372	12308
930.477	12201
930.581	12513
930.685	12197
930.79	12140
930.894	12133
930.998	12136
931.103	12292
931.207	11920
931.311	11786
931.415	11710
931.519	11505
931.623	11440
