Data from test_V78500241_540.txt Node
Date: Fri Mar 25 15:45:32 CST 2022
User: usil
Spectrometer: V785-0024
Trigger mode: 0
Integration Time (sec): 4.000000E-1
Scans to average: 1
Nonlinearity correction enabled: false
Boxcar width: 0
Storing dark spectrum: false
XAxis mode: Wavelengths
Number of Pixels in Spectrum: 1024
>>>>>Begin Spectral Data<<<<<
801.071	27694
801.214	27739
801.356	27561
801.499	27591
801.641	27408
801.783	27389
801.926	27458
802.068	27427
802.211	27245
802.353	27192
802.496	26994
802.638	27058
802.78	26891
802.923	26819
803.065	27009
803.208	26921
803.35	26929
803.492	27028
803.635	27203
803.777	26918
803.919	27119
804.061	27485
804.204	27131
804.346	27074
804.488	27100
804.63	27066
804.773	27032
804.915	27302
805.057	27256
805.199	27051
805.341	27195
805.483	27245
805.626	27104
805.768	27173
805.91	27180
806.052	27294
806.194	27233
806.336	27439
806.478	27466
806.62	27260
806.762	27374
806.904	27553
807.046	27660
807.188	27633
807.33	27724
807.472	27713
807.614	27701
807.756	27595
807.898	27473
808.04	27481
808.182	27481
808.324	27538
808.465	27610
808.607	27625
808.749	27854
808.891	28032
809.033	28169
809.174	27987
809.316	27918
809.458	27838
809.6	28010
809.741	28017
809.883	28032
810.025	28230
810.166	28188
810.308	28105
810.45	28143
810.591	28139
810.733	27953
810.875	27884
811.016	27846
811.158	27755
811.299	28002
811.441	28124
811.582	28013
811.724	27720
811.865	27918
812.007	27831
812.148	27865
812.29	28002
812.431	28200
812.573	28234
812.714	28310
812.855	28386
812.997	28527
813.138	28649
813.279	28577
813.421	28485
813.562	28401
813.703	28337
813.845	28246
813.986	27762
814.127	27637
814.268	27603
814.41	27534
814.551	27549
814.692	27667
814.833	27637
814.974	27660
815.115	27477
815.256	27424
815.397	27420
815.539	27580
815.68	27420
815.821	27214
815.962	27351
816.103	27431
816.244	27291
816.385	27199
816.526	27074
816.666	26971
816.807	26887
816.948	26868
817.089	27013
817.23	26963
817.371	26891
817.512	26838
817.653	26864
817.793	26807
817.934	26811
818.075	26796
818.216	26910
818.356	26838
818.497	26788
818.638	26503
818.778	26507
818.919	26705
819.06	26678
819.2	26674
819.341	26910
819.481	26902
819.622	27032
819.762	27233
819.903	27214
820.043	27165
820.184	26944
820.324	26883
820.465	27017
820.605	27074
820.746	27081
820.886	26804
821.026	26811
821.167	26990
821.307	27108
821.447	26910
821.588	26750
821.728	26659
821.868	26457
822.008	26434
822.149	26313
822.289	26305
822.429	26088
822.569	25925
822.709	26122
822.849	25890
822.99	25776
823.13	25666
823.27	25685
823.41	25635
823.55	25518
823.69	25597
823.83	25639
823.97	25590
824.11	25479
824.25	25472
824.389	25373
824.529	25613
824.669	25483
824.809	25719
824.949	25559
825.089	25559
825.228	25575
825.368	25270
825.508	25396
825.648	25464
825.787	25453
825.927	25396
826.067	25346
826.206	25369
826.346	25381
826.485	25335
826.625	25213
826.765	25392
826.904	25320
827.044	25031
827.183	25080
827.323	25088
827.462	25213
827.601	25088
827.741	24981
827.88	25015
828.02	25019
828.159	25027
828.298	25148
828.437	25091
828.577	24981
828.716	25107
828.855	24939
828.994	24814
829.134	24764
829.273	24817
829.412	24802
829.551	24673
829.69	24658
829.829	24620
829.968	24757
830.107	24798
830.246	24795
830.385	24798
830.524	24585
830.663	24589
830.802	24563
830.941	24281
831.08	24319
831.219	24372
831.357	24445
831.496	24650
831.635	24429
831.774	24216
831.913	24167
832.051	24144
832.19	24076
832.329	24129
832.467	23996
832.606	24045
832.744	24011
832.883	24064
833.022	23885
833.16	23958
833.299	24167
833.437	24136
833.576	24159
833.714	24064
833.852	24034
833.991	24102
834.129	24163
834.267	23999
834.406	24152
834.544	24152
834.682	24045
834.821	24003
834.959	24197
835.097	24106
835.235	24220
835.373	24057
835.511	24015
835.65	24041
835.788	23946
835.926	23828
836.064	23710
836.202	23771
836.34	23908
836.478	23977
836.615	23733
836.753	24034
836.891	23961
837.029	23927
837.167	23847
837.305	23859
837.443	23836
837.58	23764
837.718	23836
837.856	23748
837.993	23657
838.131	23703
838.269	23695
838.406	23558
838.544	23486
838.681	23417
838.819	23376
838.956	23174
839.094	23208
839.231	23311
839.369	23360
839.506	23619
839.643	23554
839.781	23235
839.918	23166
840.055	23162
840.193	23094
840.33	23250
840.467	23284
840.604	23261
840.742	23421
840.879	23044
841.016	23060
841.153	22961
841.29	23250
841.427	23128
841.564	23010
841.701	23147
841.838	23048
841.975	22995
842.112	23010
842.249	22908
842.385	22843
842.522	23117
842.659	22976
842.796	22938
842.933	22896
843.069	22987
843.206	22744
843.343	23041
843.479	22881
843.616	22953
843.752	22668
843.889	22637
844.025	22778
844.162	22569
844.298	22812
844.435	22660
844.571	22653
844.708	22816
844.844	22812
844.98	22797
845.117	22797
845.253	22664
845.389	22500
845.525	22519
845.661	22645
845.798	22455
845.934	22462
846.07	22440
846.206	22500
846.342	22527
846.478	22497
846.614	22306
846.75	22059
846.886	22090
847.022	22139
847.158	22177
847.294	22181
847.429	22268
847.565	22124
847.701	22363
847.837	21854
847.972	21911
848.108	21861
848.244	21922
848.379	21835
848.515	21743
848.65	21789
848.786	21774
848.921	21793
849.057	21732
849.192	21903
849.328	21812
849.463	21739
849.598	21743
849.734	21717
849.869	21656
850.004	21500
850.14	21530
850.275	21488
850.41	21351
850.545	21538
850.68	21504
850.815	21466
850.95	21561
851.085	21705
851.22	21595
851.355	21492
851.49	21523
851.625	21469
851.76	21370
851.895	21447
852.03	21408
852.165	21473
852.299	21587
852.434	21648
852.569	21572
852.703	21477
852.838	21545
852.973	21633
853.107	21591
853.242	21420
853.376	21355
853.511	21176
853.645	21294
853.78	21481
853.914	21382
854.048	21245
854.183	21298
854.317	21336
854.451	21492
854.585	21389
854.72	21256
854.854	21416
854.988	21165
855.122	21386
855.256	21237
855.39	21420
855.524	21351
855.658	21344
855.792	21408
855.926	21397
856.06	21348
856.194	21458
856.327	21313
856.461	21351
856.595	21256
856.729	21294
856.862	21450
856.996	21393
857.13	21405
857.263	21447
857.397	21359
857.53	21359
857.664	21325
857.797	21325
857.931	21420
858.064	21405
858.197	21397
858.331	21272
858.464	21310
858.597	21294
858.731	21245
858.864	21275
858.997	21408
859.13	21348
859.263	21233
859.396	21408
859.529	21401
859.662	21226
859.795	21249
859.928	21260
860.061	21389
860.194	21492
860.327	21294
860.46	21283
860.592	21587
860.725	21488
860.858	21492
860.99	21374
861.123	21359
861.256	21173
861.388	21348
861.521	21934
861.653	21207
861.786	21024
861.918	21245
862.05	21264
862.183	21294
862.315	21294
862.447	21264
862.58	21207
862.712	21135
862.844	21017
862.976	21161
863.108	21112
863.24	21526
863.372	20960
863.504	21043
863.636	20998
863.768	21081
863.9	21100
864.032	20929
864.164	20967
864.296	21119
864.428	21214
864.559	20990
864.691	21104
864.823	20967
864.954	20982
865.086	20986
865.217	20925
865.349	20804
865.48	20956
865.612	20853
865.743	21173
865.875	21036
866.006	20948
866.137	21017
866.269	20979
866.4	20975
866.531	20838
866.662	20838
866.793	20883
866.924	20876
867.055	20872
867.186	20910
867.317	20800
867.448	20838
867.579	20743
867.71	20712
867.841	20686
867.972	20834
868.103	20906
868.233	20887
868.364	20883
868.495	21005
868.625	21017
868.756	21180
868.886	20952
869.017	21089
869.147	21226
869.278	21192
869.408	21146
869.539	21100
869.669	21195
869.799	21173
869.929	21214
870.06	21260
870.19	21447
870.32	21408
870.45	21443
870.58	21454
870.71	21660
870.84	21603
870.97	21519
871.1	21397
871.23	21648
871.36	21819
871.489	21667
871.619	21755
871.749	21564
871.879	21869
872.008	21850
872.138	21606
872.267	21778
872.397	21500
872.526	21606
872.656	21591
872.785	21633
872.915	21652
873.044	21759
873.173	21785
873.303	21827
873.432	21713
873.561	21903
873.69	21736
873.819	21675
873.948	21827
874.077	21728
874.206	21557
874.335	21759
874.464	21846
874.593	21857
874.722	21915
874.851	21930
874.979	21991
875.108	22017
875.237	21869
875.365	21892
875.494	21873
875.623	22025
875.751	21937
875.88	21979
876.008	22093
876.136	22147
876.265	22360
876.393	22413
876.521	22325
876.65	22565
876.778	22379
876.906	22238
877.034	22287
877.162	22322
877.29	22211
877.418	22257
877.546	22303
877.674	22329
877.802	22276
877.93	22352
878.058	22242
878.185	22223
878.313	22291
878.441	22200
878.568	22169
878.696	22177
878.824	22234
878.951	22421
879.079	22451
879.206	22641
879.333	22489
879.461	22333
879.588	22531
879.715	22421
879.842	22565
879.97	22516
880.097	22051
880.224	22116
880.351	22196
880.478	22025
880.605	22112
880.732	22090
880.859	22489
880.986	22177
881.112	22017
881.239	22063
881.366	21884
881.493	21895
881.619	21759
881.746	21854
881.872	21652
881.999	21633
882.125	21701
882.252	21751
882.378	21606
882.505	21781
882.631	21564
882.757	21412
882.883	21462
883.01	21519
883.136	21294
883.262	21256
883.388	21180
883.514	21435
883.64	21500
883.766	21272
883.892	21142
884.018	21233
884.143	21268
884.269	21386
884.395	21192
884.52	20963
884.646	20929
884.772	20967
884.897	20994
885.023	21024
885.148	21150
885.274	21161
885.399	21100
885.524	21051
885.65	20952
885.775	20956
885.9	20918
886.025	21180
886.15	21093
886.275	21100
886.4	20925
886.525	20998
886.65	20914
886.775	20868
886.9	21154
887.025	21188
887.149	20937
887.274	20769
887.399	20697
887.523	20815
887.648	20788
887.773	20613
887.897	20914
888.021	20914
888.146	20777
888.27	20750
888.395	20887
888.519	20689
888.643	20899
888.767	20815
888.891	20716
889.015	20659
889.139	20632
889.263	20602
889.387	20617
889.511	20861
889.635	20765
889.759	20606
889.883	20594
890.006	20583
890.13	20682
890.254	20442
890.377	20488
890.501	20320
890.624	20362
890.748	20503
890.871	20271
890.995	20062
891.118	20119
891.241	20210
891.364	20256
891.488	20195
891.611	20111
891.734	20275
891.857	20202
891.98	20229
892.103	20183
892.226	20187
892.349	20107
892.471	20031
892.594	20008
892.717	20069
892.839	20024
892.962	20195
893.085	20138
893.207	20031
893.33	19986
893.452	19944
893.575	20202
893.697	19982
893.819	20168
893.941	20218
894.064	20161
894.186	19963
894.308	20039
894.43	20134
894.552	20187
894.674	20103
894.796	19898
894.918	20046
895.04	20008
895.161	20145
895.283	20069
895.405	20054
895.526	20088
895.648	20073
895.769	20115
895.891	20001
896.012	20145
896.134	20214
896.255	20111
896.376	20046
896.498	20202
896.619	20164
896.74	20149
896.861	20100
896.982	20358
897.103	20507
897.224	20339
897.345	20305
897.466	20259
897.587	20336
897.708	20446
897.828	20271
897.949	20214
898.07	20084
898.19	20214
898.311	20309
898.431	20248
898.552	20358
898.672	20438
898.792	20461
898.913	20286
899.033	20328
899.153	20100
899.273	20005
899.393	20088
899.513	20126
899.633	20100
899.753	19963
899.873	19970
899.993	20084
900.113	20073
900.232	19902
900.352	19978
900.472	19849
900.591	19837
900.711	20024
900.83	19799
900.95	19928
901.069	19940
901.189	19776
901.308	19453
901.427	19358
901.546	19495
901.665	19495
901.784	19316
901.904	19301
902.023	19183
902.141	19046
902.26	18989
902.379	18958
902.498	19019
902.617	18856
902.735	19034
902.854	18916
902.973	18859
903.091	18635
903.21	18620
903.328	18642
903.446	18517
903.565	18464
903.683	18452
903.801	18289
903.919	18372
904.038	18391
904.156	18213
904.274	18296
904.392	18133
904.51	18178
904.627	18182
904.745	18220
904.863	18163
904.981	17866
905.098	17779
905.216	17779
905.334	17946
905.451	17935
905.569	17813
905.686	17851
905.803	17817
905.921	17520
906.038	17707
906.155	17707
906.272	17493
906.389	17604
906.506	17478
906.623	17402
906.74	17391
906.857	17315
906.974	17265
907.091	17425
907.208	17444
907.324	17474
907.441	17299
907.557	17128
907.674	17083
907.79	17010
907.907	17037
908.023	17143
908.139	17105
908.256	16949
908.372	17018
908.488	17048
908.604	16854
908.72	16771
908.836	16820
908.952	16892
909.068	16763
909.184	16938
909.3	16774
909.415	16862
909.531	16854
909.647	16607
909.762	16546
909.878	16554
909.993	16493
910.108	16470
910.224	16409
910.339	16489
910.454	16287
910.57	16322
910.685	16207
910.8	16497
910.915	16436
911.03	16238
911.145	16215
911.259	16154
911.374	16029
911.489	16109
911.604	16032
911.718	15907
911.833	15873
911.947	15823
912.062	15675
912.176	15911
912.291	15850
912.405	15945
912.519	16010
912.633	16116
912.748	15823
912.862	15823
912.976	15743
913.09	15557
913.204	15526
913.318	15709
913.431	15831
913.545	15663
913.659	15751
913.772	15629
913.886	15507
914	15458
914.113	15599
914.226	15667
914.34	15466
914.453	15336
914.566	15553
914.68	15340
914.793	15245
914.906	15146
915.019	14986
915.132	15058
915.245	15104
915.358	15100
915.47	15154
915.583	15108
915.696	15036
915.809	15207
915.921	15184
916.034	15013
916.146	15009
916.259	14975
916.371	15043
916.483	14998
916.595	14883
916.708	14986
916.82	14929
916.932	14807
917.044	14819
917.156	14811
917.268	14800
917.38	14754
917.491	14815
917.603	14788
917.715	14815
917.826	14842
917.938	14602
918.049	14621
918.161	14602
918.272	14826
918.384	14842
918.495	14686
918.606	14537
918.717	14469
918.828	14473
918.939	14511
919.05	14408
919.161	14438
919.272	14320
919.383	14347
919.494	14480
919.604	14663
919.715	14503
919.826	14343
919.936	14389
920.047	14514
920.157	14450
920.267	14682
920.378	14476
920.488	14446
920.598	14587
920.708	14815
920.818	14655
920.928	14549
921.038	14750
921.148	14670
921.258	14427
921.368	14324
921.477	14206
921.587	14191
921.697	14065
921.806	14153
921.916	14065
922.025	13989
922.134	13814
922.244	13830
922.353	13811
922.462	13761
922.571	13624
922.68	13460
922.789	13514
922.898	13521
923.007	13354
923.116	13540
923.224	13480
923.333	13434
923.442	13327
923.55	13251
923.659	13263
923.767	13346
923.876	13301
923.984	13282
924.092	13183
924.201	13232
924.309	13141
924.417	13308
924.525	13122
924.633	13194
924.741	13921
924.849	12958
924.956	13038
925.064	12909
925.172	12791
925.279	12837
925.387	12939
925.494	12916
925.602	12985
925.709	12886
925.816	12810
925.924	12840
926.031	12981
926.138	12863
926.245	12890
926.352	12726
926.459	12894
926.566	12901
926.673	12814
926.779	12654
926.886	12612
926.993	12525
927.099	12513
927.206	12486
927.312	12475
927.419	12433
927.525	12369
927.631	12502
927.737	12426
927.843	12323
927.95	12311
928.056	12304
928.162	12380
928.267	12277
928.373	12951
928.479	12422
928.585	12110
928.69	12270
928.796	12315
928.901	12129
929.007	12026
929.112	12121
929.218	12117
929.323	12022
929.428	12117
929.533	12167
929.638	11984
929.743	11958
929.848	12026
929.953	11939
930.058	11908
930.163	11745
930.267	11630
930.372	11817
930.477	11672
930.581	11916
930.685	11767
930.79	11558
930.894	11566
930.998	11581
931.103	11653
931.207	11387
931.311	11330
931.415	11204
931.519	10957
931.623	10957
