Data from test_V78500241_457.txt Node
Date: Fri Mar 25 15:44:58 CST 2022
User: usil
Spectrometer: V785-0024
Trigger mode: 0
Integration Time (sec): 4.000000E-1
Scans to average: 1
Nonlinearity correction enabled: false
Boxcar width: 0
Storing dark spectrum: false
XAxis mode: Wavelengths
Number of Pixels in Spectrum: 1024
>>>>>Begin Spectral Data<<<<<
801.071	27823
801.214	27918
801.356	27561
801.499	27648
801.641	27473
801.783	27526
801.926	27504
802.068	27367
802.211	27374
802.353	27252
802.496	27161
802.638	27138
802.78	27020
802.923	26937
803.065	26998
803.208	27070
803.35	26876
803.492	27154
803.635	27192
803.777	27233
803.919	27249
804.061	27629
804.204	27420
804.346	27169
804.488	27100
804.63	27146
804.773	27169
804.915	27241
805.057	27241
805.199	27157
805.341	27272
805.483	27351
805.626	27283
805.768	27393
805.91	27302
806.052	27291
806.194	27310
806.336	27485
806.478	27329
806.62	27408
806.762	27485
806.904	27549
807.046	27888
807.188	27831
807.33	27850
807.472	27766
807.614	27709
807.756	27675
807.898	27534
808.04	27564
808.182	27526
808.324	27648
808.465	27583
808.607	27690
808.749	27911
808.891	28048
809.033	28101
809.174	28055
809.316	28063
809.458	28173
809.6	28002
809.741	28093
809.883	28063
810.025	28253
810.166	28055
810.308	28295
810.45	28196
810.591	28131
810.733	28086
810.875	27922
811.016	27888
811.158	27983
811.299	28150
811.441	28090
811.582	28139
811.724	27975
811.865	27835
812.007	27873
812.148	27888
812.29	27869
812.431	28086
812.573	28287
812.714	28371
812.855	28459
812.997	28557
813.138	28649
813.279	28672
813.421	28519
813.562	28360
813.703	28230
813.845	28128
813.986	27937
814.127	27561
814.268	27583
814.41	27591
814.551	27564
814.692	27793
814.833	27469
814.974	27458
815.115	27595
815.256	27332
815.397	27427
815.539	27526
815.68	27268
815.821	27237
815.962	27405
816.103	27386
816.244	27279
816.385	27245
816.526	27222
816.666	27039
816.807	26906
816.948	26933
817.089	26952
817.23	26864
817.371	26788
817.512	26880
817.653	26891
817.793	26807
817.934	26872
818.075	26834
818.216	26762
818.356	26750
818.497	26739
818.638	26579
818.778	26537
818.919	26537
819.06	26655
819.2	26743
819.341	26857
819.481	26708
819.622	26956
819.762	27218
819.903	27039
820.043	26979
820.184	26918
820.324	27009
820.465	27127
820.605	26921
820.746	27077
820.886	26701
821.026	26857
821.167	26899
821.307	26921
821.447	26861
821.588	26777
821.728	26602
821.868	26385
822.008	26419
822.149	26328
822.289	26294
822.429	25982
822.569	25955
822.709	25925
822.849	25833
822.99	25841
823.13	25689
823.27	25708
823.41	25559
823.55	25438
823.69	25571
823.83	25693
823.97	25422
824.11	25441
824.25	25449
824.389	25381
824.529	25582
824.669	25400
824.809	25556
824.949	25327
825.089	25529
825.228	25483
825.368	25343
825.508	25232
825.648	25289
825.787	25247
825.927	25327
826.067	25263
826.206	25198
826.346	25308
826.485	25217
826.625	25270
826.765	25464
826.904	25217
827.044	25000
827.183	24951
827.323	24882
827.462	24913
827.601	24977
827.741	24852
827.88	25042
828.02	24760
828.159	24924
828.298	24840
828.437	24932
828.577	24886
828.716	25088
828.855	24791
828.994	24734
829.134	24783
829.273	24703
829.412	24623
829.551	24555
829.69	24623
829.829	24711
829.968	24681
830.107	24859
830.246	24646
830.385	24559
830.524	24418
830.663	24433
830.802	24391
830.941	24330
831.08	24178
831.219	24369
831.357	24216
831.496	24422
831.635	24262
831.774	24106
831.913	24110
832.051	23988
832.19	24098
832.329	23946
832.467	23931
832.606	23885
832.744	23828
832.883	23904
833.022	23923
833.16	23973
833.299	23870
833.437	23916
833.576	24114
833.714	24030
833.852	23939
833.991	24022
834.129	23939
834.267	24026
834.406	23958
834.544	23965
834.682	23912
834.821	23923
834.959	24095
835.097	23828
835.235	24076
835.373	23961
835.511	24087
835.65	23729
835.788	23916
835.926	23676
836.064	23486
836.202	23581
836.34	23847
836.478	23912
836.615	23840
836.753	23684
836.891	23832
837.029	23882
837.167	23741
837.305	23592
837.443	23665
837.58	23570
837.718	23611
837.856	23562
837.993	23566
838.131	23520
838.269	23547
838.406	23672
838.544	23356
838.681	23307
838.819	23269
838.956	23090
839.094	23124
839.231	23151
839.369	23200
839.506	23349
839.643	23128
839.781	23083
839.918	22965
840.055	23090
840.193	22987
840.33	22885
840.467	22953
840.604	23033
840.742	23246
840.879	22744
841.016	22957
841.153	22831
841.29	23075
841.427	22889
841.564	23075
841.701	22908
841.838	22961
841.975	22850
842.112	22816
842.249	22748
842.385	22656
842.522	22889
842.659	22763
842.796	22721
842.933	22702
843.069	22580
843.206	22607
843.343	22805
843.479	22618
843.616	22660
843.752	22516
843.889	22523
844.025	22740
844.162	22409
844.298	22656
844.435	22512
844.571	22413
844.708	22447
844.844	22554
844.98	22607
845.117	22634
845.253	22497
845.389	22500
845.525	22478
845.661	22405
845.798	22295
845.934	22295
846.07	22276
846.206	22329
846.342	22314
846.478	22162
846.614	22086
846.75	21953
846.886	21964
847.022	22029
847.158	21903
847.294	21983
847.429	21956
847.565	22067
847.701	22219
847.837	21542
847.972	21698
848.108	21705
848.244	21865
848.379	21580
848.515	21549
848.65	21545
848.786	21336
848.921	21374
849.057	21469
849.192	21698
849.328	21557
849.463	21603
849.598	21439
849.734	21374
849.869	21367
850.004	21355
850.14	21329
850.275	21279
850.41	21150
850.545	21313
850.68	21275
850.815	21272
850.95	21332
851.085	21583
851.22	21355
851.355	21199
851.49	21252
851.625	21230
851.76	21283
851.895	21173
852.03	21184
852.165	21283
852.299	21252
852.434	21367
852.569	21233
852.703	21226
852.838	21450
852.973	21492
853.107	21397
853.242	21256
853.376	21135
853.511	21017
853.645	21036
853.78	21252
853.914	21096
854.048	21116
854.183	21119
854.317	21116
854.451	21146
854.585	21207
854.72	21036
854.854	21252
854.988	20941
855.122	21051
855.256	20899
855.39	21150
855.524	21100
855.658	21218
855.792	21146
855.926	20956
856.06	21226
856.194	21142
856.327	21218
856.461	20971
856.595	21085
856.729	21051
856.862	21226
856.996	21146
857.13	21089
857.263	21161
857.397	21233
857.53	21070
857.664	21131
857.797	21157
857.931	21161
858.064	21081
858.197	21047
858.331	21165
858.464	20891
858.597	20975
858.731	20952
858.864	21062
858.997	20982
859.13	21009
859.263	21123
859.396	21116
859.529	21058
859.662	21051
859.795	21070
859.928	21062
860.061	21165
860.194	21321
860.327	21032
860.46	20986
860.592	21268
860.725	21241
860.858	21287
860.99	21135
861.123	20887
861.256	20975
861.388	21020
861.521	21591
861.653	20853
861.786	20906
861.918	20906
862.05	20883
862.183	21020
862.315	21055
862.447	21157
862.58	21047
862.712	20785
862.844	20773
862.976	20895
863.108	20796
863.24	21302
863.372	20743
863.504	20830
863.636	20750
863.768	20804
863.9	20804
864.032	20648
864.164	20743
864.296	20853
864.428	20834
864.559	20883
864.691	20899
864.823	20819
864.954	20819
865.086	20785
865.217	20712
865.349	20743
865.48	20632
865.612	20594
865.743	20887
865.875	20823
866.006	20667
866.137	20678
866.269	20773
866.4	20800
866.531	20590
866.662	20670
866.793	20609
866.924	20640
867.055	20701
867.186	20640
867.317	20545
867.448	20431
867.579	20625
867.71	20552
867.841	20461
867.972	20689
868.103	20461
868.233	20648
868.364	20602
868.495	20689
868.625	20876
868.756	20864
868.886	20811
869.017	20887
869.147	20952
869.278	20952
869.408	20960
869.539	20788
869.669	21017
869.799	20845
869.929	20998
870.06	20979
870.19	21176
870.32	21062
870.45	21195
870.58	21348
870.71	21348
870.84	21321
870.97	21260
871.1	21199
871.23	21382
871.36	21454
871.489	21428
871.619	21492
871.749	21393
871.879	21458
872.008	21481
872.138	21435
872.267	21397
872.397	21393
872.526	21226
872.656	21378
872.785	21268
872.915	21504
873.044	21583
873.173	21454
873.303	21618
873.432	21568
873.561	21549
873.69	21564
873.819	21439
873.948	21488
874.077	21488
874.206	21424
874.335	21397
874.464	21625
874.593	21800
874.722	21606
874.851	21751
874.979	21641
875.108	21869
875.237	21622
875.365	21576
875.494	21663
875.623	21690
875.751	21789
875.88	21675
876.008	21960
876.136	21827
876.265	22135
876.393	22223
876.521	22112
876.65	22150
876.778	22032
876.906	22021
877.034	22082
877.162	22040
877.29	21968
877.418	22093
877.546	22181
877.674	22097
877.802	22090
877.93	21972
878.058	22101
878.185	22025
878.313	21915
878.441	21991
878.568	21903
878.696	22074
878.824	22040
878.951	22291
879.079	22325
879.206	22360
879.333	22230
879.461	22040
879.588	22299
879.715	22280
879.842	22310
879.97	22135
880.097	21895
880.224	21831
880.351	21998
880.478	21876
880.605	21770
880.732	21789
880.859	22063
880.986	21876
881.112	21949
881.239	21774
881.366	21492
881.493	21591
881.619	21458
881.746	21477
881.872	21424
881.999	21458
882.125	21412
882.252	21424
882.378	21435
882.505	21568
882.631	21408
882.757	21188
882.883	21344
883.01	21138
883.136	21157
883.262	21039
883.388	21070
883.514	21127
883.64	21077
883.766	21222
883.892	20960
884.018	20914
884.143	21116
884.269	21138
884.395	20960
884.52	20811
884.646	20815
884.772	20819
884.897	20735
885.023	20880
885.148	20944
885.274	20967
885.399	20944
885.524	20861
885.65	20743
885.775	20872
885.9	20754
886.025	20868
886.15	20845
886.275	20823
886.4	20811
886.525	20743
886.65	20724
886.775	20731
886.9	21001
887.025	20998
887.149	20697
887.274	20716
887.399	20659
887.523	20560
887.648	20560
887.773	20480
887.897	20636
888.021	20514
888.146	20454
888.27	20678
888.395	20625
888.519	20602
888.643	20625
888.767	20629
888.891	20469
889.015	20298
889.139	20431
889.263	20393
889.387	20461
889.511	20526
889.635	20537
889.759	20282
889.883	20332
890.006	20396
890.13	20552
890.254	20290
890.377	20301
890.501	20195
890.624	20005
890.748	20206
890.871	20012
890.995	19967
891.118	19875
891.241	19887
891.364	19997
891.488	20031
891.611	19967
891.734	19947
891.857	20016
891.98	20039
892.103	20005
892.226	19925
892.349	19906
892.471	19807
892.594	19830
892.717	19864
892.839	19936
892.962	19841
893.085	19864
893.207	19822
893.33	19871
893.452	19909
893.575	19989
893.697	19902
893.819	19959
893.941	20031
894.064	19993
894.186	19841
894.308	19742
894.43	19909
894.552	19989
894.674	19822
894.796	19860
894.918	19818
895.04	19769
895.161	19925
895.283	19830
895.405	19879
895.526	19856
895.648	19864
895.769	19909
895.891	19826
896.012	19982
896.134	19845
896.255	19902
896.376	19761
896.498	19868
896.619	19963
896.74	19898
896.861	19967
896.982	20138
897.103	20286
897.224	20244
897.345	20096
897.466	19967
897.587	20119
897.708	20275
897.828	20221
897.949	20024
898.07	19928
898.19	20046
898.311	20058
898.431	19986
898.552	20077
898.672	20263
898.792	20149
898.913	20122
899.033	19986
899.153	19902
899.273	19719
899.393	19898
899.513	19860
899.633	19909
899.753	19700
899.873	19784
899.993	19845
900.113	19772
900.232	19818
900.352	19784
900.472	19594
900.591	19594
900.711	19757
900.83	19635
900.95	19757
901.069	19704
901.189	19499
901.308	19312
901.427	19183
901.546	19164
901.665	19145
901.784	19266
901.904	18981
902.023	18951
902.141	18715
902.26	18719
902.379	18734
902.498	18817
902.617	18684
902.735	18875
902.854	18650
902.973	18696
903.091	18350
903.21	18372
903.328	18395
903.446	18220
903.565	18285
903.683	18163
903.801	18102
903.919	18144
904.038	18117
904.156	17920
904.274	17988
904.392	18026
904.51	17988
904.627	18049
904.745	18163
904.863	18041
904.981	17771
905.098	17592
905.216	17474
905.334	17668
905.451	17748
905.569	17638
905.686	17760
905.803	17676
905.921	17421
906.038	17532
906.155	17459
906.272	17398
906.389	17330
906.506	17151
906.623	17140
906.74	17094
906.857	16946
906.974	17090
907.091	17284
907.208	17254
907.324	17067
907.441	17079
907.557	16984
907.674	16911
907.79	16843
907.907	16854
908.023	17006
908.139	16873
908.256	16797
908.372	16721
908.488	16653
908.604	16523
908.72	16497
908.836	16668
908.952	16592
909.068	16489
909.184	16710
909.3	16584
909.415	16615
909.531	16580
909.647	16375
909.762	16402
909.878	16303
909.993	16234
910.108	16337
910.224	16352
910.339	16204
910.454	16093
910.57	16105
910.685	16021
910.8	16295
910.915	16291
911.03	16181
911.145	15880
911.259	15846
911.374	15930
911.489	15888
911.604	15736
911.718	15671
911.833	15713
911.947	15587
912.062	15469
912.176	15663
912.291	15724
912.405	15709
912.519	15884
912.633	15831
912.748	15686
912.862	15644
912.976	15496
913.09	15420
913.204	15515
913.318	15507
913.431	15538
913.545	15462
913.659	15576
913.772	15386
913.886	15275
914	15397
914.113	15340
914.226	15416
914.34	15272
914.453	15226
914.566	15325
914.68	15192
914.793	15184
914.906	14933
915.019	14876
915.132	14902
915.245	14853
915.358	14914
915.47	14868
915.583	14876
915.696	14872
915.809	14975
915.921	14906
916.034	14762
916.146	14842
916.259	14765
916.371	14815
916.483	14792
916.595	14716
916.708	14765
916.82	14781
916.932	14750
917.044	14621
917.156	14632
917.268	14545
917.38	14514
917.491	14625
917.603	14560
917.715	14575
917.826	14731
917.938	14492
918.049	14438
918.161	14438
918.272	14530
918.384	14583
918.495	14404
918.606	14324
918.717	14206
918.828	14271
918.939	14374
919.05	14225
919.161	14221
919.272	14065
919.383	14199
919.494	14332
919.604	14495
919.715	14309
919.826	14221
919.936	14244
920.047	14286
920.157	14381
920.267	14400
920.378	14237
920.488	14161
920.598	14377
920.708	14575
920.818	14438
920.928	14419
921.038	14575
921.148	14533
921.258	14233
921.368	14168
921.477	13967
921.587	14058
921.697	13871
921.806	14062
921.916	13879
922.025	13666
922.134	13677
922.244	13674
922.353	13723
922.462	13590
922.571	13460
922.68	13285
922.789	13297
922.898	13316
923.007	13263
923.116	13358
923.224	13171
923.333	13285
923.442	13118
923.55	13091
923.659	13194
923.767	13232
923.876	13053
923.984	13088
924.092	13065
924.201	13065
924.309	13133
924.417	12993
924.525	13034
924.633	13038
924.741	13700
924.849	12787
924.956	12943
925.064	12821
925.172	12635
925.279	12700
925.387	12859
925.494	12650
925.602	12852
925.709	12734
925.816	12734
925.924	12677
926.031	12817
926.138	12700
926.245	12741
926.352	12547
926.459	12760
926.566	12764
926.673	12658
926.779	12593
926.886	12498
926.993	12388
927.099	12353
927.206	12224
927.312	12266
927.419	12323
927.525	12327
927.631	12292
927.737	12216
927.843	12155
927.95	12049
928.056	12205
928.162	12152
928.267	12270
928.373	12741
928.479	12140
928.585	12038
928.69	12076
928.796	12159
928.901	12015
929.007	11916
929.112	12041
929.218	11999
929.323	12026
929.428	11882
929.533	12072
929.638	11859
929.743	11821
929.848	11882
929.953	11794
930.058	11699
930.163	11646
930.267	11668
930.372	11764
930.477	11524
930.581	11748
930.685	11596
930.79	11463
930.894	11573
930.998	11482
931.103	11615
931.207	11208
931.311	11136
931.415	11121
931.519	10915
931.623	10896
