Data from test_V78500241_179.txt Node
Date: Fri Mar 25 15:43:02 CST 2022
User: usil
Spectrometer: V785-0024
Trigger mode: 0
Integration Time (sec): 4.000000E-1
Scans to average: 1
Nonlinearity correction enabled: false
Boxcar width: 0
Storing dark spectrum: false
XAxis mode: Wavelengths
Number of Pixels in Spectrum: 1024
>>>>>Begin Spectral Data<<<<<
801.071	29467
801.214	29307
801.356	29071
801.499	29174
801.641	28938
801.783	29025
801.926	28885
802.068	28995
802.211	29060
802.353	28877
802.496	28713
802.638	28710
802.78	28596
802.923	28481
803.065	28554
803.208	28508
803.35	28546
803.492	28687
803.635	28759
803.777	28546
803.919	28740
804.061	29022
804.204	28744
804.346	28607
804.488	28645
804.63	28668
804.773	28557
804.915	28702
805.057	28729
805.199	28717
805.341	28809
805.483	28812
805.626	28839
805.768	28645
805.91	28706
806.052	28713
806.194	28847
806.336	28961
806.478	28763
806.62	28839
806.762	29003
806.904	29098
807.046	29231
807.188	29136
807.33	29140
807.472	29155
807.614	29155
807.756	29193
807.898	28987
808.04	28915
808.182	29174
808.324	29098
808.465	28946
808.607	29204
808.749	29231
808.891	29402
809.033	29531
809.174	29448
809.316	29303
809.458	29459
809.6	29185
809.741	29349
809.883	29570
810.025	29493
810.166	29627
810.308	29570
810.45	29535
810.591	29444
810.733	29341
810.875	29395
811.016	29269
811.158	29250
811.299	29455
811.441	29528
811.582	29402
811.724	29185
811.865	29322
812.007	29307
812.148	29288
812.29	29307
812.431	29463
812.573	29581
812.714	29668
812.855	29794
812.997	29756
813.138	29859
813.279	29935
813.421	29775
813.562	29703
813.703	29672
813.845	29490
813.986	29330
814.127	29056
814.268	28965
814.41	28839
814.551	28949
814.692	28923
814.833	28866
814.974	28953
815.115	28888
815.256	28713
815.397	28839
815.539	28683
815.68	28778
815.821	28592
815.962	28615
816.103	28630
816.244	28508
816.385	28440
816.526	28344
816.666	28325
816.807	28048
816.948	28162
817.089	28230
817.23	28204
817.371	28070
817.512	28135
817.653	28154
817.793	27953
817.934	28074
818.075	28204
818.216	28074
818.356	28086
818.497	27975
818.638	27762
818.778	27755
818.919	27804
819.06	27789
819.2	27998
819.341	27949
819.481	27835
819.622	28169
819.762	28253
819.903	28322
820.043	28188
820.184	28109
820.324	28067
820.465	28154
820.605	28112
820.746	28029
820.886	27892
821.026	27998
821.167	28025
821.307	28116
821.447	27884
821.588	27907
821.728	27686
821.868	27686
822.008	27439
822.149	27523
822.289	27462
822.429	27176
822.569	27173
822.709	27127
822.849	26845
822.99	26861
823.13	26876
823.27	26861
823.41	26651
823.55	26606
823.69	26697
823.83	26697
823.97	26575
824.11	26503
824.25	26347
824.389	26362
824.529	26465
824.669	26389
824.809	26518
824.949	26568
825.089	26545
825.228	26511
825.368	26313
825.508	26286
825.648	26332
825.787	26339
825.927	26351
826.067	26256
826.206	26180
826.346	26393
826.485	26473
826.625	26259
826.765	26492
826.904	26336
827.044	25982
827.183	25989
827.323	25932
827.462	26012
827.601	26062
827.741	25947
827.88	25928
828.02	25940
828.159	25917
828.298	25970
828.437	26027
828.577	25852
828.716	26073
828.855	25791
828.994	25731
829.134	25769
829.273	25723
829.412	25571
829.551	25662
829.69	25674
829.829	25609
829.968	25597
830.107	25727
830.246	25559
830.385	25647
830.524	25510
830.663	25438
830.802	25183
830.941	25137
831.08	25175
831.219	25381
831.357	25194
831.496	25339
831.635	25137
831.774	24947
831.913	25137
832.051	24829
832.19	24821
832.329	25031
832.467	24878
832.606	24897
832.744	24730
832.883	24753
833.022	24700
833.16	24757
833.299	24962
833.437	24837
833.576	24909
833.714	24749
833.852	24935
833.991	24966
834.129	24848
834.267	25031
834.406	24757
834.544	24871
834.682	24817
834.821	24703
834.959	24871
835.097	24738
835.235	24871
835.373	24749
835.511	24738
835.65	24726
835.788	24684
835.926	24646
836.064	24475
836.202	24464
836.34	24551
836.478	24734
836.615	24639
836.753	24620
836.891	24798
837.029	24669
837.167	24654
837.305	24635
837.443	24544
837.58	24353
837.718	24563
837.856	24486
837.993	24452
838.131	24536
838.269	24239
838.406	24330
838.544	24273
838.681	24117
838.819	23988
838.956	23851
839.094	23965
839.231	24007
839.369	23977
839.506	24311
839.643	24079
839.781	23832
839.918	23786
840.055	23821
840.193	23798
840.33	23695
840.467	23707
840.604	23866
840.742	24186
840.879	23577
841.016	23619
841.153	23646
841.29	23984
841.427	23726
841.564	23756
841.701	23661
841.838	23726
841.975	23733
842.112	23604
842.249	23615
842.385	23577
842.522	23577
842.659	23528
842.796	23436
842.933	23566
843.069	23368
843.206	23429
843.343	23516
843.479	23562
843.616	23467
843.752	23204
843.889	23231
844.025	23277
844.162	23151
844.298	23220
844.435	23284
844.571	23105
844.708	23220
844.844	23284
844.98	23273
845.117	23376
845.253	23242
845.389	23018
845.525	23181
845.661	23083
845.798	22927
845.934	23022
846.07	22934
846.206	23029
846.342	23006
846.478	22866
846.614	22736
846.75	22622
846.886	22592
847.022	22603
847.158	22691
847.294	22679
847.429	22618
847.565	22637
847.701	22934
847.837	22428
847.972	22280
848.108	22375
848.244	22485
848.379	22253
848.515	22147
848.65	22284
848.786	22131
848.921	22185
849.057	22363
849.192	22314
849.328	22265
849.463	22196
849.598	22074
849.734	22070
849.869	21941
850.004	21930
850.14	21911
850.275	21964
850.41	21850
850.545	21842
850.68	21846
850.815	21823
850.95	21835
851.085	22090
851.22	22017
851.355	21991
851.49	21903
851.625	21869
851.76	21823
851.895	21789
852.03	21732
852.165	21972
852.299	21903
852.434	21975
852.569	21869
852.703	21937
852.838	21907
852.973	21937
853.107	22029
853.242	21846
853.376	21846
853.511	21652
853.645	21652
853.78	21892
853.914	21701
854.048	21644
854.183	21633
854.317	21686
854.451	21789
854.585	21698
854.72	21736
854.854	21656
854.988	21637
855.122	21667
855.256	21637
855.39	21637
855.524	21743
855.658	21682
855.792	21709
855.926	21759
856.06	21774
856.194	21682
856.327	21671
856.461	21682
856.595	21633
856.729	21679
856.862	21732
856.996	21724
857.13	21690
857.263	21682
857.397	21736
857.53	21599
857.664	21701
857.797	21698
857.931	21812
858.064	21720
858.197	21576
858.331	21652
858.464	21553
858.597	21519
858.731	21477
858.864	21595
858.997	21507
859.13	21682
859.263	21576
859.396	21694
859.529	21660
859.662	21477
859.795	21450
859.928	21530
860.061	21857
860.194	21865
860.327	21770
860.46	21667
860.592	21648
860.725	21781
860.858	21724
860.99	21698
861.123	21530
861.256	21618
861.388	21663
861.521	22230
861.653	21485
861.786	21378
861.918	21488
862.05	21454
862.183	21622
862.315	21698
862.447	21641
862.58	21580
862.712	21272
862.844	21332
862.976	21405
863.108	21344
863.24	21724
863.372	21336
863.504	21150
863.636	21260
863.768	21370
863.9	21336
864.032	21203
864.164	21310
864.296	21287
864.428	21317
864.559	21351
864.691	21386
864.823	21321
864.954	21237
865.086	21184
865.217	21214
865.349	21150
865.48	21233
865.612	21138
865.743	21310
865.875	21241
866.006	21317
866.137	21237
866.269	21154
866.4	21249
866.531	21150
866.662	21256
866.793	21142
866.924	21154
867.055	21100
867.186	21036
867.317	21119
867.448	21032
867.579	21005
867.71	21058
867.841	20982
867.972	21226
868.103	21150
868.233	21157
868.364	21070
868.495	21317
868.625	21287
868.756	21553
868.886	21256
869.017	21252
869.147	21488
869.278	21435
869.408	21374
869.539	21306
869.669	21534
869.799	21469
869.929	21519
870.06	21500
870.19	21656
870.32	21614
870.45	21652
870.58	21827
870.71	21823
870.84	21857
870.97	21751
871.1	21709
871.23	21842
871.36	22029
871.489	21823
871.619	21983
871.749	21956
871.879	21987
872.008	22059
872.138	21949
872.267	21876
872.397	21781
872.526	21785
872.656	21736
872.785	21865
872.915	21926
873.044	21979
873.173	22025
873.303	22013
873.432	21930
873.561	21983
873.69	22002
873.819	21975
873.948	22093
874.077	22055
874.206	22029
874.335	21994
874.464	22109
874.593	22272
874.722	22139
874.851	22200
874.979	22268
875.108	22230
875.237	22238
875.365	22025
875.494	22207
875.623	22314
875.751	22188
875.88	22242
876.008	22253
876.136	22440
876.265	22710
876.393	22656
876.521	22744
876.65	22839
876.778	22535
876.906	22577
877.034	22462
877.162	22561
877.29	22580
877.418	22527
877.546	22584
877.674	22603
877.802	22462
877.93	22615
878.058	22660
878.185	22489
878.313	22554
878.441	22500
878.568	22382
878.696	22428
878.824	22622
878.951	22531
879.079	22679
879.206	22801
879.333	22736
879.461	22580
879.588	22717
879.715	22725
879.842	22831
879.97	22508
880.097	22337
880.224	22379
880.351	22459
880.478	22360
880.605	22287
880.732	22337
880.859	22538
880.986	22371
881.112	22322
881.239	22128
881.366	22105
881.493	21998
881.619	21869
881.746	22029
881.872	21975
881.999	21888
882.125	21812
882.252	21934
882.378	21994
882.505	22029
882.631	21781
882.757	21751
882.883	21762
883.01	21759
883.136	21648
883.262	21557
883.388	21485
883.514	21682
883.64	21652
883.766	21625
883.892	21310
884.018	21469
884.143	21610
884.269	21743
884.395	21439
884.52	21214
884.646	21275
884.772	21180
884.897	21165
885.023	21275
885.148	21370
885.274	21458
885.399	21222
885.524	21313
885.65	21454
885.775	21306
885.9	21203
886.025	21370
886.15	21374
886.275	21203
886.4	21180
886.525	21222
886.65	21169
886.775	21165
886.9	21336
887.025	21447
887.149	21226
887.274	21116
887.399	21161
887.523	21096
887.648	20944
887.773	20998
887.897	21207
888.021	21058
888.146	20845
888.27	21039
888.395	21108
888.519	21028
888.643	21089
888.767	21055
888.891	20963
889.015	20902
889.139	20758
889.263	20781
889.387	20899
889.511	21055
889.635	20895
889.759	20887
889.883	20697
890.006	20811
890.13	20921
890.254	20686
890.377	20712
890.501	20598
890.624	20503
890.748	20659
890.871	20469
890.995	20362
891.118	20252
891.241	20313
891.364	20298
891.488	20465
891.611	20370
891.734	20339
891.857	20412
891.98	20362
892.103	20408
892.226	20499
892.349	20320
892.471	20130
892.594	20309
892.717	20290
892.839	20202
892.962	20339
893.085	20480
893.207	20301
893.33	20172
893.452	20218
893.575	20347
893.697	20317
893.819	20431
893.941	20450
894.064	20541
894.186	20199
894.308	20324
894.43	20393
894.552	20549
894.674	20355
894.796	20161
894.918	20263
895.04	20237
895.161	20305
895.283	20282
895.405	20210
895.526	20172
895.648	20195
895.769	20180
895.891	20377
896.012	20404
896.134	20423
896.255	20267
896.376	20252
896.498	20282
896.619	20423
896.74	20332
896.861	20412
896.982	20602
897.103	20788
897.224	20545
897.345	20701
897.466	20507
897.587	20518
897.708	20632
897.828	20511
897.949	20495
898.07	20408
898.19	20492
898.311	20503
898.431	20351
898.552	20492
898.672	20568
898.792	20514
898.913	20431
899.033	20237
899.153	20206
899.273	20126
899.393	20202
899.513	20202
899.633	20130
899.753	20130
899.873	20145
899.993	20161
900.113	20214
900.232	20195
900.352	20065
900.472	20008
900.591	19906
900.711	20035
900.83	19925
900.95	20168
901.069	20020
901.189	19875
901.308	19712
901.427	19499
901.546	19544
901.665	19518
901.784	19590
901.904	19537
902.023	19339
902.141	19148
902.26	19061
902.379	19206
902.498	19057
902.617	19000
902.735	19217
902.854	18993
902.973	18947
903.091	18802
903.21	18597
903.328	18711
903.446	18574
903.565	18559
903.683	18540
903.801	18460
903.919	18369
904.038	18452
904.156	18232
904.274	18327
904.392	18270
904.51	18220
904.627	18437
904.745	18384
904.863	18319
904.981	18148
905.098	17942
905.216	17916
905.334	17977
905.451	18057
905.569	17870
905.686	17950
905.803	17916
905.921	17703
906.038	17870
906.155	17611
906.272	17661
906.389	17611
906.506	17611
906.623	17421
906.74	17395
906.857	17364
906.974	17410
907.091	17505
907.208	17543
907.324	17535
907.441	17322
907.557	17151
907.674	17174
907.79	17094
907.907	17143
908.023	17121
908.139	17204
908.256	16965
908.372	17064
908.488	16991
908.604	16892
908.72	16752
908.836	16797
908.952	16854
909.068	16763
909.184	16980
909.3	16816
909.415	16824
909.531	16759
909.647	16618
909.762	16508
909.878	16497
909.993	16440
910.108	16409
910.224	16451
910.339	16489
910.454	16371
910.57	16265
910.685	16131
910.8	16538
910.915	16462
911.03	16325
911.145	16101
911.259	16109
911.374	16139
911.489	16032
911.604	16002
911.718	15873
911.833	15857
911.947	15835
912.062	15739
912.176	15823
912.291	15842
912.405	15861
912.519	16074
912.633	16059
912.748	15930
912.862	15797
912.976	15755
913.09	15580
913.204	15606
913.318	15720
913.431	15797
913.545	15766
913.659	15762
913.772	15652
913.886	15431
914	15477
914.113	15557
914.226	15656
914.34	15587
914.453	15336
914.566	15424
914.68	15336
914.793	15298
914.906	15150
915.019	14944
915.132	15089
915.245	15020
915.358	15146
915.47	15154
915.583	15005
915.696	15180
915.809	15207
915.921	15279
916.034	14918
916.146	15062
916.259	15089
916.371	15009
916.483	15077
916.595	14956
916.708	14899
916.82	14910
916.932	14838
917.044	14804
917.156	14845
917.268	14773
917.38	14762
917.491	14697
917.603	14686
917.715	14819
917.826	14918
917.938	14716
918.049	14594
918.161	14727
918.272	14777
918.384	14773
918.495	14708
918.606	14473
918.717	14457
918.828	14533
918.939	14571
919.05	14377
919.161	14446
919.272	14229
919.383	14320
919.494	14434
919.604	14682
919.715	14533
919.826	14305
919.936	14450
920.047	14495
920.157	14377
920.267	14575
920.378	14400
920.488	14351
920.598	14606
920.708	14845
920.818	14530
920.928	14438
921.038	14667
921.148	14724
921.258	14271
921.368	14176
921.477	14221
921.587	14206
921.697	13955
921.806	14172
921.916	14012
922.025	13852
922.134	13780
922.244	13704
922.353	13807
922.462	13651
922.571	13601
922.68	13453
922.789	13422
922.898	13369
923.007	13354
923.116	13510
923.224	13350
923.333	13430
923.442	13202
923.55	13164
923.659	13206
923.767	13354
923.876	13206
923.984	13308
924.092	13156
924.201	13263
924.309	13175
924.417	13255
924.525	13114
924.633	13088
924.741	13906
924.849	12837
924.956	13065
925.064	12795
925.172	12814
925.279	12825
925.387	12833
925.494	12814
925.602	12989
925.709	12863
925.816	12810
925.924	12802
926.031	12844
926.138	12741
926.245	12844
926.352	12662
926.459	12871
926.566	12837
926.673	12734
926.779	12563
926.886	12612
926.993	12410
927.099	12464
927.206	12391
927.312	12304
927.419	12460
927.525	12433
927.631	12448
927.737	12323
927.843	12247
927.95	12064
928.056	12224
928.162	12289
928.267	12292
928.373	12856
928.479	12399
928.585	12095
928.69	12136
928.796	12178
928.901	12087
929.007	11965
929.112	12038
929.218	12041
929.323	11958
929.428	11920
929.533	11999
929.638	11946
929.743	11923
929.848	11893
929.953	11874
930.058	11760
930.163	11630
930.267	11695
930.372	11802
930.477	11661
930.581	11767
930.685	11722
930.79	11600
930.894	11562
930.998	11444
931.103	11581
931.207	11212
931.311	11235
931.415	11113
931.519	10934
931.623	10904
