Data from test_V78500241_2667.txt Node
Date: Fri Mar 25 16:00:16 CST 2022
User: usil
Spectrometer: V785-0024
Trigger mode: 0
Integration Time (sec): 4.000000E-1
Scans to average: 1
Nonlinearity correction enabled: false
Boxcar width: 0
Storing dark spectrum: false
XAxis mode: Wavelengths
Number of Pixels in Spectrum: 1024
>>>>>Begin Spectral Data<<<<<
801.071	28892
801.214	28843
801.356	28634
801.499	28691
801.641	28535
801.783	28519
801.926	28611
802.068	28508
802.211	28527
802.353	28451
802.496	28154
802.638	28318
802.78	28306
802.923	28226
803.065	28234
803.208	28097
803.35	28284
803.492	28573
803.635	28497
803.777	28436
803.919	28470
804.061	28828
804.204	28611
804.346	28466
804.488	28375
804.63	28603
804.773	28516
804.915	28577
805.057	28691
805.199	28519
805.341	28641
805.483	28672
805.626	28599
805.768	28592
805.91	28675
806.052	28694
806.194	28622
806.336	28904
806.478	28645
806.62	28713
806.762	28888
806.904	29048
807.046	29159
807.188	29117
807.33	28999
807.472	29231
807.614	29071
807.756	29136
807.898	29003
808.04	28911
808.182	28968
808.324	29075
808.465	29067
808.607	29375
808.749	29448
808.891	29455
809.033	29436
809.174	29539
809.316	29497
809.458	29326
809.6	29463
809.741	29570
809.883	29509
810.025	29668
810.166	29577
810.308	29687
810.45	29638
810.591	29547
810.733	29486
810.875	29516
811.016	29318
811.158	29383
811.299	29531
811.441	29516
811.582	29722
811.724	29482
811.865	29429
812.007	29356
812.148	29661
812.29	29364
812.431	29649
812.573	29653
812.714	29874
812.855	29946
812.997	29999
813.138	30163
813.279	30163
813.421	29977
813.562	29904
813.703	29722
813.845	29748
813.986	29455
814.127	29235
814.268	29132
814.41	29189
814.551	29250
814.692	29330
814.833	29178
814.974	29090
815.115	29098
815.256	29094
815.397	29003
815.539	28923
815.68	28946
815.821	28930
815.962	28934
816.103	28892
816.244	28980
816.385	28706
816.526	28839
816.666	28653
816.807	28421
816.948	28508
817.089	28561
817.23	28561
817.371	28447
817.512	28527
817.653	28466
817.793	28299
817.934	28424
818.075	28348
818.216	28531
818.356	28474
818.497	28261
818.638	28234
818.778	28280
818.919	28333
819.06	28314
819.2	28367
819.341	28405
819.481	28516
819.622	28622
819.762	28839
819.903	28831
820.043	28733
820.184	28523
820.324	28603
820.465	28736
820.605	28523
820.746	28523
820.886	28451
821.026	28656
821.167	28698
821.307	28630
821.447	28481
821.588	28379
821.728	28409
821.868	28211
822.008	27899
822.149	27994
822.289	27861
822.429	27755
822.569	27701
822.709	27728
822.849	27397
822.99	27564
823.13	27462
823.27	27534
823.41	27321
823.55	27173
823.69	27283
823.83	27203
823.97	27260
824.11	27214
824.25	27119
824.389	27096
824.529	27176
824.669	27036
824.809	27351
824.949	27173
825.089	27150
825.228	27283
825.368	26971
825.508	27127
825.648	27062
825.787	26994
825.927	26982
826.067	26986
826.206	26986
826.346	27036
826.485	27058
826.625	27001
826.765	26956
826.904	27108
827.044	26826
827.183	26750
827.323	26864
827.462	26796
827.601	26788
827.741	26746
827.88	26731
828.02	26537
828.159	26724
828.298	26849
828.437	26849
828.577	26697
828.716	26853
828.855	26579
828.994	26442
829.134	26488
829.273	26575
829.412	26343
829.551	26256
829.69	26484
829.829	26480
829.968	26617
830.107	26522
830.246	26324
830.385	26423
830.524	26252
830.663	26138
830.802	26275
830.941	25940
831.08	26107
831.219	26046
831.357	26001
831.496	26100
831.635	26050
831.774	25811
831.913	26103
832.051	25620
832.19	25708
832.329	25845
832.467	25784
832.606	25689
832.744	25693
832.883	25674
833.022	25696
833.16	25719
833.299	25655
833.437	25746
833.576	25826
833.714	25746
833.852	25769
833.991	25734
834.129	25788
834.267	25864
834.406	25780
834.544	25864
834.682	25852
834.821	25875
834.959	25947
835.097	25658
835.235	25887
835.373	25632
835.511	25849
835.65	25712
835.788	25590
835.926	25468
836.064	25426
836.202	25453
836.34	25670
836.478	25674
836.615	25685
836.753	25632
836.891	25620
837.029	25662
837.167	25548
837.305	25582
837.443	25464
837.58	25441
837.718	25369
837.856	25335
837.993	25407
838.131	25434
838.269	25259
838.406	25381
838.544	25263
838.681	25027
838.819	25038
838.956	24981
839.094	24825
839.231	24730
839.369	25065
839.506	25377
839.643	25091
839.781	24905
839.918	24852
840.055	24962
840.193	24897
840.33	24738
840.467	24859
840.604	24852
840.742	25126
840.879	24715
841.016	24757
841.153	24589
841.29	24856
841.427	24745
841.564	24776
841.701	24837
841.838	24688
841.975	24658
842.112	24669
842.249	24608
842.385	24464
842.522	24715
842.659	24601
842.796	24620
842.933	24536
843.069	24456
843.206	24464
843.343	24601
843.479	24502
843.616	24445
843.752	24376
843.889	24292
844.025	24437
844.162	24235
844.298	24467
844.435	24224
844.571	24262
844.708	24388
844.844	24407
844.98	24376
845.117	24494
845.253	24167
845.389	24224
845.525	24251
845.661	24159
845.798	24186
845.934	24110
846.07	23977
846.206	24110
846.342	24026
846.478	24007
846.614	23817
846.75	23695
846.886	23805
847.022	23748
847.158	23821
847.294	23756
847.429	23767
847.565	23741
847.701	24148
847.837	23478
847.972	23509
848.108	23551
848.244	23615
848.379	23345
848.515	23376
848.65	23242
848.786	23360
848.921	23402
849.057	23414
849.192	23531
849.328	23391
849.463	23231
849.598	23474
849.734	23311
849.869	23227
850.004	22976
850.14	23094
850.275	23113
850.41	23056
850.545	23132
850.68	23162
850.815	23212
850.95	23083
851.085	23189
851.22	23155
851.355	23166
851.49	23200
851.625	23041
851.76	23014
851.895	22991
852.03	23010
852.165	23231
852.299	23162
852.434	23162
852.569	23170
852.703	23014
852.838	23121
852.973	23212
853.107	23147
853.242	23079
853.376	23025
853.511	22877
853.645	22942
853.78	23067
853.914	22938
854.048	22919
854.183	22908
854.317	23025
854.451	23128
854.585	22946
854.72	22908
854.854	23037
854.988	22843
855.122	23003
855.256	22733
855.39	22972
855.524	22953
855.658	22923
855.792	22866
855.926	22972
856.06	23033
856.194	23105
856.327	22972
856.461	22934
856.595	22862
856.729	22809
856.862	22881
856.996	22972
857.13	22972
857.263	22965
857.397	23041
857.53	22892
857.664	22949
857.797	22858
857.931	23010
858.064	23014
858.197	23067
858.331	22877
858.464	22900
858.597	22873
858.731	22980
858.864	22885
858.997	22805
859.13	22919
859.263	23018
859.396	23037
859.529	22820
859.662	22919
859.795	22835
859.928	22911
860.061	23105
860.194	23090
860.327	22980
860.46	22889
860.592	23052
860.725	23094
860.858	23159
860.99	23010
861.123	22854
861.256	22908
861.388	22949
861.521	23649
861.653	22778
861.786	22668
861.918	22790
862.05	22790
862.183	22782
862.315	22938
862.447	22949
862.58	22892
862.712	22626
862.844	22668
862.976	22622
863.108	22584
863.24	23075
863.372	22573
863.504	22637
863.636	22630
863.768	22561
863.9	22664
864.032	22519
864.164	22637
864.296	22634
864.428	22828
864.559	22763
864.691	22710
864.823	22664
864.954	22615
865.086	22516
865.217	22599
865.349	22432
865.48	22584
865.612	22459
865.743	22733
865.875	22603
866.006	22516
866.137	22569
866.269	22470
866.4	22462
866.531	22291
866.662	22413
866.793	22356
866.924	22474
867.055	22409
867.186	22363
867.317	22322
867.448	22246
867.579	22398
867.71	22371
867.841	22367
867.972	22497
868.103	22474
868.233	22417
868.364	22497
868.495	22481
868.625	22588
868.756	22713
868.886	22573
869.017	22615
869.147	22759
869.278	22774
869.408	22740
869.539	22706
869.669	22683
869.799	22683
869.929	22854
870.06	22656
870.19	22885
870.32	22835
870.45	23033
870.58	23003
870.71	23136
870.84	23155
870.97	23064
871.1	23010
871.23	23151
871.36	23349
871.489	23143
871.619	23227
871.749	23299
871.879	23356
872.008	23330
872.138	23200
872.267	23212
872.397	23105
872.526	23060
872.656	23155
872.785	22980
872.915	23353
873.044	23208
873.173	23292
873.303	23246
873.432	23417
873.561	23372
873.69	23376
873.819	23189
873.948	23402
874.077	23296
874.206	23288
874.335	23299
874.464	23497
874.593	23562
874.722	23520
874.851	23547
874.979	23452
875.108	23592
875.237	23364
875.365	23425
875.494	23360
875.623	23410
875.751	23421
875.88	23512
876.008	23695
876.136	23642
876.265	23920
876.393	23897
876.521	23912
876.65	23996
876.778	23897
876.906	23904
877.034	23767
877.162	23798
877.29	23756
877.418	23851
877.546	23866
877.674	23764
877.802	23851
877.93	23813
878.058	23790
878.185	23733
878.313	23832
878.441	23771
878.568	23703
878.696	23775
878.824	23840
878.951	23901
879.079	24049
879.206	24026
879.333	24003
879.461	23836
879.588	23904
879.715	23992
879.842	24049
879.97	23965
880.097	23703
880.224	23558
880.351	23726
880.478	23649
880.605	23684
880.732	23634
880.859	23927
880.986	23714
881.112	23756
881.239	23535
881.366	23440
881.493	23311
881.619	23277
881.746	23273
881.872	23128
881.999	23155
882.125	23086
882.252	23181
882.378	23102
882.505	23208
882.631	23006
882.757	22862
882.883	22972
883.01	22877
883.136	22763
883.262	22660
883.388	22660
883.514	22889
883.64	22927
883.766	22774
883.892	22596
884.018	22763
884.143	22873
884.269	22904
884.395	22542
884.52	22443
884.646	22459
884.772	22382
884.897	22363
885.023	22523
885.148	22550
885.274	22573
885.399	22538
885.524	22508
885.65	22428
885.775	22455
885.9	22504
886.025	22542
886.15	22557
886.275	22554
886.4	22402
886.525	22405
886.65	22421
886.775	22481
886.9	22721
887.025	22512
887.149	22375
887.274	22310
887.399	22303
887.523	22249
887.648	22196
887.773	22109
887.897	22276
888.021	22177
888.146	22272
888.27	22314
888.395	22257
888.519	22363
888.643	22226
888.767	22299
888.891	22200
889.015	22109
889.139	22063
889.263	21987
889.387	22162
889.511	22188
889.635	22162
889.759	21994
889.883	21972
890.006	22013
890.13	22169
890.254	21960
890.377	21949
890.501	21728
890.624	21743
890.748	21793
890.871	21599
890.995	21538
891.118	21618
891.241	21572
891.364	21435
891.488	21660
891.611	21564
891.734	21572
891.857	21644
891.98	21587
892.103	21564
892.226	21572
892.349	21542
892.471	21279
892.594	21450
892.717	21473
892.839	21408
892.962	21538
893.085	21568
893.207	21485
893.33	21287
893.452	21435
893.575	21561
893.697	21447
893.819	21690
893.941	21766
894.064	21622
894.186	21454
894.308	21397
894.43	21606
894.552	21572
894.674	21568
894.796	21344
894.918	21473
895.04	21397
895.161	21633
895.283	21496
895.405	21321
895.526	21351
895.648	21564
895.769	21469
895.891	21603
896.012	21561
896.134	21526
896.255	21504
896.376	21310
896.498	21386
896.619	21473
896.74	21462
896.861	21542
896.982	21747
897.103	21895
897.224	21538
897.345	21660
897.466	21641
897.587	21644
897.708	21743
897.828	21663
897.949	21542
898.07	21454
898.19	21507
898.311	21797
898.431	21629
898.552	21622
898.672	21789
898.792	21717
898.913	21633
899.033	21428
899.153	21488
899.273	21397
899.393	21321
899.513	21443
899.633	21397
899.753	21321
899.873	21272
899.993	21359
900.113	21264
900.232	21275
900.352	21264
900.472	21211
900.591	21074
900.711	21169
900.83	21089
900.95	21180
901.069	21294
901.189	21058
901.308	20872
901.427	20739
901.546	20777
901.665	20731
901.784	20636
901.904	20571
902.023	20438
902.141	20221
902.26	20206
902.379	20256
902.498	20218
902.617	20233
902.735	20252
902.854	20195
902.973	20088
903.091	19868
903.21	19837
903.328	19917
903.446	19742
903.565	19761
903.683	19613
903.801	19510
903.919	19590
904.038	19628
904.156	19460
904.274	19476
904.392	19419
904.51	19289
904.627	19449
904.745	19392
904.863	19499
904.981	19350
905.098	19118
905.216	19046
905.334	19069
905.451	19080
905.569	18985
905.686	19118
905.803	19042
905.921	18871
906.038	18977
906.155	18829
906.272	18760
906.389	18722
906.506	18635
906.623	18688
906.74	18578
906.857	18353
906.974	18570
907.091	18654
907.208	18688
907.324	18696
907.441	18460
907.557	18239
907.674	18353
907.79	18262
907.907	18311
908.023	18220
908.139	18228
908.256	18315
908.372	18258
908.488	18152
908.604	18053
908.72	18015
908.836	18026
908.952	17885
909.068	18060
909.184	18083
909.3	17897
909.415	18060
909.531	18102
909.647	17794
909.762	17680
909.878	17771
909.993	17653
910.108	17718
910.224	17532
910.339	17638
910.454	17566
910.57	17592
910.685	17459
910.8	17756
910.915	17665
911.03	17452
911.145	17261
911.259	17193
911.374	17280
911.489	17197
911.604	17174
911.718	17045
911.833	17029
911.947	16889
912.062	16759
912.176	17079
912.291	17006
912.405	17052
912.519	17273
912.633	17265
912.748	17102
912.862	16999
912.976	16957
913.09	16755
913.204	16896
913.318	16793
913.431	16938
913.545	16873
913.659	16778
913.772	16797
913.886	16675
914	16596
914.113	16713
914.226	16763
914.34	16683
914.453	16622
914.566	16653
914.68	16432
914.793	16428
914.906	16363
915.019	16188
915.132	16059
915.245	16063
915.358	16295
915.47	16196
915.583	16242
915.696	16207
915.809	16230
915.921	16280
916.034	16128
916.146	16109
916.259	16051
916.371	16246
916.483	16063
916.595	16002
916.708	15956
916.82	15994
916.932	15903
917.044	15922
917.156	15953
917.268	15880
917.38	15911
917.491	15797
917.603	15732
917.715	15918
917.826	15800
917.938	15770
918.049	15648
918.161	15728
918.272	15835
918.384	15850
918.495	15720
918.606	15641
918.717	15492
918.828	15587
918.939	15488
919.05	15389
919.161	15622
919.272	15279
919.383	15260
919.494	15576
919.604	15770
919.715	15500
919.826	15443
919.936	15450
920.047	15545
920.157	15523
920.267	15599
920.378	15515
920.488	15458
920.598	15675
920.708	15732
920.818	15557
920.928	15584
921.038	15728
921.148	15660
921.258	15389
921.368	15252
921.477	15260
921.587	15298
921.697	15024
921.806	15176
921.916	15024
922.025	14823
922.134	14807
922.244	14750
922.353	14800
922.462	14621
922.571	14644
922.68	14602
922.789	14404
922.898	14404
923.007	14522
923.116	14461
923.224	14503
923.333	14473
923.442	14252
923.55	14206
923.659	14237
923.767	14381
923.876	14237
923.984	14263
924.092	14130
924.201	14191
924.309	14126
924.417	14199
924.525	14081
924.633	14077
924.741	15047
924.849	13974
924.956	14020
925.064	13879
925.172	13814
925.279	13818
925.387	13765
925.494	13814
925.602	13856
925.709	13860
925.816	13765
925.924	13693
926.031	13830
926.138	13681
926.245	13780
926.352	13628
926.459	13769
926.566	13746
926.673	13636
926.779	13521
926.886	13510
926.993	13422
927.099	13331
927.206	13335
927.312	13251
927.419	13476
927.525	13381
927.631	13384
927.737	13301
927.843	13171
927.95	13110
928.056	13217
928.162	13156
928.267	13152
928.373	13746
928.479	13206
928.585	12985
928.69	13141
928.796	13065
928.901	13091
929.007	12814
929.112	13042
929.218	12939
929.323	12928
929.428	12795
929.533	12985
929.638	12787
929.743	12806
929.848	12840
929.953	12833
930.058	12688
930.163	12525
930.267	12559
930.372	12669
930.477	12467
930.581	12768
930.685	12570
930.79	12433
930.894	12372
930.998	12330
931.103	12467
931.207	12117
931.311	12121
931.415	12034
931.519	11840
931.623	11805
