Data from test_V78500241_3201.txt Node
Date: Fri Mar 25 16:03:58 CST 2022
User: usil
Spectrometer: V785-0024
Trigger mode: 0
Integration Time (sec): 4.000000E-1
Scans to average: 1
Nonlinearity correction enabled: false
Boxcar width: 0
Storing dark spectrum: false
XAxis mode: Wavelengths
Number of Pixels in Spectrum: 1024
>>>>>Begin Spectral Data<<<<<
801.071	28679
801.214	28584
801.356	28413
801.499	28421
801.641	28265
801.783	28367
801.926	28280
802.068	28120
802.211	28185
802.353	28192
802.496	28067
802.638	28010
802.78	27922
802.923	27865
803.065	27926
803.208	27854
803.35	27907
803.492	28226
803.635	28329
803.777	28044
803.919	28303
804.061	28466
804.204	28299
804.346	28310
804.488	28097
804.63	28325
804.773	28223
804.915	28242
805.057	28337
805.199	28162
805.341	28295
805.483	28291
805.626	28512
805.768	28375
805.91	28432
806.052	28363
806.194	28318
806.336	28398
806.478	28337
806.62	28417
806.762	28527
806.904	28561
807.046	29010
807.188	28790
807.33	28725
807.472	28927
807.614	28698
807.756	28706
807.898	28588
808.04	28679
808.182	28637
808.324	28675
808.465	28653
808.607	28877
808.749	29052
808.891	29181
809.033	29159
809.174	29261
809.316	29109
809.458	29044
809.6	28953
809.741	29094
809.883	29189
810.025	29326
810.166	29269
810.308	29288
810.45	29414
810.591	29223
810.733	29159
810.875	29067
811.016	29014
811.158	29037
811.299	29090
811.441	29208
811.582	29235
811.724	29098
811.865	28984
812.007	29094
812.148	28999
812.29	29136
812.431	29086
812.573	29440
812.714	29448
812.855	29672
812.997	29714
813.138	29756
813.279	29611
813.421	29619
813.562	29627
813.703	29398
813.845	29322
813.986	29090
814.127	28949
814.268	28736
814.41	28812
814.551	28774
814.692	28767
814.833	28786
814.974	28675
815.115	28713
815.256	28596
815.397	28713
815.539	28683
815.68	28687
815.821	28527
815.962	28550
816.103	28485
816.244	28497
816.385	28485
816.526	28318
816.666	28181
816.807	28002
816.948	28188
817.089	28181
817.23	28021
817.371	28166
817.512	28078
817.653	28006
817.793	28006
817.934	28185
818.075	28135
818.216	28177
818.356	28143
818.497	28051
818.638	27880
818.778	27964
818.919	27899
819.06	27941
819.2	28063
819.341	28029
819.481	28070
819.622	28341
819.762	28519
819.903	28497
820.043	28405
820.184	28238
820.324	28249
820.465	28185
820.605	28200
820.746	28139
820.886	28017
821.026	28158
821.167	28196
821.307	28246
821.447	28048
821.588	28082
821.728	27861
821.868	27591
822.008	27667
822.149	27667
822.289	27561
822.429	27355
822.569	27302
822.709	27306
822.849	27287
822.99	27123
823.13	27039
823.27	27058
823.41	26963
823.55	26864
823.69	27020
823.83	26998
823.97	26868
824.11	26575
824.25	26594
824.389	26686
824.529	26781
824.669	26659
824.809	26963
824.949	26899
825.089	26857
825.228	26765
825.368	26598
825.508	26545
825.648	26560
825.787	26533
825.927	26743
826.067	26606
826.206	26644
826.346	26659
826.485	26537
826.625	26564
826.765	26678
826.904	26727
827.044	26339
827.183	26377
827.323	26221
827.462	26355
827.601	26385
827.741	26320
827.88	26476
828.02	26202
828.159	26263
828.298	26377
828.437	26309
828.577	26252
828.716	26374
828.855	26176
828.994	26035
829.134	26084
829.273	26122
829.412	26065
829.551	25883
829.69	25966
829.829	25986
829.968	26077
830.107	25989
830.246	26111
830.385	26069
830.524	25921
830.663	25883
830.802	25742
830.941	25723
831.08	25620
831.219	25750
831.357	25822
831.496	25864
831.635	25677
831.774	25510
831.913	25430
832.051	25384
832.19	25403
832.329	25438
832.467	25228
832.606	25316
832.744	25384
832.883	25381
833.022	25228
833.16	25118
833.299	25377
833.437	25198
833.576	25362
833.714	25335
833.852	25457
833.991	25377
834.129	25495
834.267	25578
834.406	25441
834.544	25266
834.682	25430
834.821	25381
834.959	25533
835.097	25304
835.235	25510
835.373	25266
835.511	25373
835.65	25152
835.788	25179
835.926	25190
836.064	24981
836.202	24981
836.34	25187
836.478	25057
836.615	25217
836.753	25183
836.891	25160
837.029	25110
837.167	25103
837.305	25057
837.443	25072
837.58	24932
837.718	24996
837.856	24943
837.993	24882
838.131	24996
838.269	24981
838.406	24856
838.544	24833
838.681	24749
838.819	24658
838.956	24467
839.094	24490
839.231	24441
839.369	24681
839.506	24859
839.643	24738
839.781	24528
839.918	24467
840.055	24448
840.193	24353
840.33	24403
840.467	24502
840.604	24369
840.742	24665
840.879	24258
841.016	24319
841.153	24304
841.29	24399
841.427	24304
841.564	24563
841.701	24403
841.838	24437
841.975	24292
842.112	24372
842.249	24232
842.385	24121
842.522	24270
842.659	24224
842.796	24186
842.933	24186
843.069	24038
843.206	24060
843.343	24182
843.479	24106
843.616	24007
843.752	23882
843.889	23950
844.025	24091
844.162	23882
844.298	23893
844.435	23836
844.571	23859
844.708	23920
844.844	24159
844.98	24076
845.117	23923
845.253	23904
845.389	23684
845.525	23954
845.661	23710
845.798	23676
845.934	23737
846.07	23611
846.206	23630
846.342	23843
846.478	23729
846.614	23509
846.75	23288
846.886	23379
847.022	23379
847.158	23474
847.294	23376
847.429	23429
847.565	23376
847.701	23512
847.837	23235
847.972	23109
848.108	23113
848.244	23227
848.379	22991
848.515	22930
848.65	22946
848.786	22877
848.921	23006
849.057	23071
849.192	23121
849.328	23003
849.463	22987
849.598	22938
849.734	22759
849.869	22713
850.004	22805
850.14	22919
850.275	22679
850.41	22618
850.545	22660
850.68	22630
850.815	22771
850.95	22694
851.085	22911
851.22	22873
851.355	22771
851.49	22713
851.625	22664
851.76	22771
851.895	22660
852.03	22759
852.165	22634
852.299	22645
852.434	22809
852.569	22790
852.703	22706
852.838	22782
852.973	22820
853.107	22904
853.242	22470
853.376	22645
853.511	22405
853.645	22489
853.78	22641
853.914	22462
854.048	22466
854.183	22489
854.317	22592
854.451	22771
854.585	22618
854.72	22523
854.854	22615
854.988	22474
855.122	22504
855.256	22402
855.39	22478
855.524	22649
855.658	22649
855.792	22485
855.926	22519
856.06	22455
856.194	22706
856.327	22421
856.461	22440
856.595	22519
856.729	22409
856.862	22577
856.996	22565
857.13	22519
857.263	22691
857.397	22675
857.53	22459
857.664	22580
857.797	22599
857.931	22698
858.064	22649
858.197	22634
858.331	22500
858.464	22481
858.597	22535
858.731	22508
858.864	22565
858.997	22478
859.13	22504
859.263	22618
859.396	22698
859.529	22649
859.662	22538
859.795	22394
859.928	22660
860.061	22596
860.194	22748
860.327	22611
860.46	22622
860.592	22447
860.725	22687
860.858	22698
860.99	22535
861.123	22519
861.256	22554
861.388	22546
861.521	23174
861.653	22432
861.786	22428
861.918	22451
862.05	22478
862.183	22432
862.315	22550
862.447	22519
862.58	22466
862.712	22265
862.844	22211
862.976	22398
863.108	22352
863.24	22599
863.372	22242
863.504	22295
863.636	22303
863.768	22322
863.9	22204
864.032	22139
864.164	22200
864.296	22238
864.428	22440
864.559	22291
864.691	22280
864.823	22226
864.954	22135
865.086	22265
865.217	22211
865.349	21941
865.48	22086
865.612	22147
865.743	22257
865.875	22211
866.006	22318
866.137	22116
866.269	22147
866.4	22128
866.531	22097
866.662	22044
866.793	22101
866.924	22162
867.055	22177
867.186	22196
867.317	22021
867.448	22040
867.579	21960
867.71	21937
867.841	21998
867.972	22013
868.103	21983
868.233	21956
868.364	21991
868.495	22196
868.625	22318
868.756	22375
868.886	22238
869.017	22226
869.147	22291
869.278	22344
869.408	22299
869.539	22443
869.669	22440
869.799	22291
869.929	22535
870.06	22432
870.19	22535
870.32	22626
870.45	22512
870.58	22672
870.71	22812
870.84	22755
870.97	22584
871.1	22759
871.23	22778
871.36	22877
871.489	22805
871.619	22759
871.749	22858
871.879	22930
872.008	22957
872.138	22942
872.267	22881
872.397	22683
872.526	22710
872.656	22820
872.785	22698
872.915	22919
873.044	22885
873.173	22991
873.303	23022
873.432	23003
873.561	22995
873.69	22953
873.819	22911
873.948	22976
874.077	22942
874.206	22885
874.335	22729
874.464	23208
874.593	23029
874.722	23044
874.851	23098
874.979	23212
875.108	23200
875.237	23014
875.365	23121
875.494	23060
875.623	23170
875.751	23067
875.88	23239
876.008	23121
876.136	23349
876.265	23528
876.393	23737
876.521	23665
876.65	23611
876.778	23455
876.906	23360
877.034	23337
877.162	23577
877.29	23421
877.418	23471
877.546	23471
877.674	23512
877.802	23459
877.93	23417
878.058	23497
878.185	23341
878.313	23360
878.441	23433
878.568	23277
878.696	23341
878.824	23516
878.951	23547
879.079	23672
879.206	23775
879.333	23729
879.461	23619
879.588	23516
879.715	23646
879.842	23821
879.97	23577
880.097	23402
880.224	23258
880.351	23337
880.478	23353
880.605	23200
880.732	23223
880.859	23528
880.986	23277
881.112	23288
881.239	23102
881.366	22957
881.493	22942
881.619	22850
881.746	22847
881.872	22930
881.999	22866
882.125	22611
882.252	22767
882.378	22805
882.505	22839
882.631	22691
882.757	22550
882.883	22603
883.01	22561
883.136	22386
883.262	22405
883.388	22409
883.514	22481
883.64	22417
883.766	22424
883.892	22192
884.018	22375
884.143	22428
884.269	22497
884.395	22112
884.52	22143
884.646	22169
884.772	22074
884.897	22177
885.023	22173
885.148	22272
885.274	22207
885.399	22188
885.524	22226
885.65	22188
885.775	22128
885.9	22192
886.025	22291
886.15	22223
886.275	22097
886.4	22013
886.525	22154
886.65	21975
886.775	22074
886.9	22188
887.025	22265
887.149	22090
887.274	21880
887.399	22070
887.523	21876
887.648	21953
887.773	21835
887.897	22010
888.021	21941
888.146	21960
888.27	21880
888.395	22112
888.519	21880
888.643	21934
888.767	22044
888.891	21876
889.015	21720
889.139	21842
889.263	21720
889.387	21865
889.511	21850
889.635	21861
889.759	21709
889.883	21675
890.006	21641
890.13	21797
890.254	21606
890.377	21652
890.501	21473
890.624	21439
890.748	21507
890.871	21370
890.995	21264
891.118	21317
891.241	21207
891.364	21344
891.488	21386
891.611	21252
891.734	21393
891.857	21321
891.98	21332
892.103	21306
892.226	21207
892.349	21165
892.471	21058
892.594	21112
892.717	21176
892.839	21142
892.962	21184
893.085	21108
893.207	21207
893.33	21135
893.452	21104
893.575	21123
893.697	21051
893.819	21249
893.941	21310
894.064	21287
894.186	21074
894.308	21024
894.43	21154
894.552	21370
894.674	21165
894.796	21070
894.918	21089
895.04	21043
895.161	21214
895.283	21211
895.405	21142
895.526	21150
895.648	20971
895.769	21195
895.891	21161
896.012	21142
896.134	21119
896.255	21028
896.376	21058
896.498	21085
896.619	21123
896.74	21089
896.861	21180
896.982	21405
897.103	21477
897.224	21481
897.345	21340
897.466	21401
897.587	21321
897.708	21485
897.828	21321
897.949	21245
898.07	21104
898.19	21256
898.311	21313
898.431	21218
898.552	21332
898.672	21351
898.792	21367
898.913	21298
899.033	21184
899.153	21146
899.273	20944
899.393	21089
899.513	21024
899.633	21062
899.753	21077
899.873	21051
899.993	21024
900.113	21036
900.232	21028
900.352	21009
900.472	20979
900.591	20807
900.711	20895
900.83	20686
900.95	20891
901.069	20804
901.189	20735
901.308	20495
901.427	20434
901.546	20362
901.665	20457
901.784	20503
901.904	20172
902.023	20145
902.141	20073
902.26	19814
902.379	19955
902.498	19830
902.617	19791
902.735	19898
902.854	19906
902.973	19791
903.091	19605
903.21	19533
903.328	19480
903.446	19445
903.565	19422
903.683	19350
903.801	19217
903.919	19244
904.038	19289
904.156	19103
904.274	19168
904.392	19156
904.51	19137
904.627	19061
904.745	19057
904.863	19046
904.981	18856
905.098	18787
905.216	18840
905.334	18684
905.451	18787
905.569	18768
905.686	18821
905.803	18711
905.921	18642
906.038	18650
906.155	18745
906.272	18445
906.389	18433
906.506	18414
906.623	18258
906.74	18467
906.857	18102
906.974	18159
907.091	18380
907.208	18407
907.324	18365
907.441	18136
907.557	18049
907.674	18011
907.79	18057
907.907	17954
908.023	18053
908.139	17992
908.256	17908
908.372	17870
908.488	17870
908.604	17676
908.72	17687
908.836	17630
908.952	17642
909.068	17760
909.184	17824
909.3	17756
909.415	17775
909.531	17684
909.647	17520
909.762	17429
909.878	17345
909.993	17307
910.108	17414
910.224	17364
910.339	17463
910.454	17200
910.57	17151
910.685	17067
910.8	17406
910.915	17402
911.03	17140
911.145	16946
911.259	16995
911.374	16965
911.489	16961
911.604	16854
911.718	16733
911.833	16885
911.947	16508
912.062	16584
912.176	16687
912.291	16771
912.405	16759
912.519	16889
912.633	16957
912.748	16790
912.862	16675
912.976	16550
913.09	16462
913.204	16466
913.318	16592
913.431	16531
913.545	16592
913.659	16641
913.772	16428
913.886	16462
914	16390
914.113	16337
914.226	16440
914.34	16443
914.453	16101
914.566	16428
914.68	16211
914.793	16268
914.906	16071
915.019	15972
915.132	15903
915.245	15953
915.358	15895
915.47	15960
915.583	15895
915.696	15930
915.809	15975
915.921	15991
916.034	15842
916.146	15846
916.259	15785
916.371	15865
916.483	15979
916.595	15675
916.708	15698
916.82	15789
916.932	15732
917.044	15622
917.156	15625
917.268	15515
917.38	15568
917.491	15462
917.603	15603
917.715	15614
917.826	15572
917.938	15382
918.049	15344
918.161	15397
918.272	15511
918.384	15648
918.495	15424
918.606	15325
918.717	15310
918.828	15298
918.939	15378
919.05	15283
919.161	15329
919.272	15047
919.383	15104
919.494	15226
919.604	15481
919.715	15294
919.826	15146
919.936	15249
920.047	15321
920.157	15237
920.267	15416
920.378	15211
920.488	15131
920.598	15473
920.708	15549
920.818	15367
920.928	15313
921.038	15439
921.148	15500
921.258	15199
921.368	15058
921.477	14914
921.587	14868
921.697	14705
921.806	15009
921.916	14746
922.025	14640
922.134	14629
922.244	14560
922.353	14708
922.462	14511
922.571	14385
922.68	14244
922.789	14240
922.898	14199
923.007	14206
923.116	14233
923.224	14142
923.333	14183
923.442	14050
923.55	14024
923.659	14081
923.767	14046
923.876	13982
923.984	14050
924.092	13955
924.201	14024
924.309	13970
924.417	14001
924.525	13856
924.633	13814
924.741	14663
924.849	13639
924.956	13841
925.064	13609
925.172	13453
925.279	13594
925.387	13586
925.494	13613
925.602	13670
925.709	13685
925.816	13480
925.924	13582
926.031	13567
926.138	13521
926.245	13582
926.352	13460
926.459	13616
926.566	13582
926.673	13495
926.779	13274
926.886	13301
926.993	13129
927.099	13107
927.206	13069
927.312	13095
927.419	13126
927.525	13213
927.631	13069
927.737	13012
927.843	12958
927.95	12844
928.056	12958
928.162	13012
928.267	12890
928.373	13510
928.479	12981
928.585	12734
928.69	12882
928.796	12943
928.901	12863
929.007	12658
929.112	12848
929.218	12787
929.323	12658
929.428	12700
929.533	12798
929.638	12639
929.743	12551
929.848	12646
929.953	12582
930.058	12490
930.163	12357
930.267	12376
930.372	12456
930.477	12346
930.581	12551
930.685	12369
930.79	12327
930.894	12273
930.998	12144
931.103	12369
931.207	11980
931.311	11817
931.415	11729
931.519	11649
931.623	11539
