Data from test_V78500241_2949.txt Node
Date: Fri Mar 25 16:02:13 CST 2022
User: usil
Spectrometer: V785-0024
Trigger mode: 0
Integration Time (sec): 4.000000E-1
Scans to average: 1
Nonlinearity correction enabled: false
Boxcar width: 0
Storing dark spectrum: false
XAxis mode: Wavelengths
Number of Pixels in Spectrum: 1024
>>>>>Begin Spectral Data<<<<<
801.071	28904
801.214	28771
801.356	28649
801.499	28584
801.641	28443
801.783	28436
801.926	28451
802.068	28401
802.211	28325
802.353	28306
802.496	28082
802.638	28219
802.78	28074
802.923	28173
803.065	28097
803.208	28048
803.35	28139
803.492	28207
803.635	28409
803.777	28128
803.919	28481
804.061	28748
804.204	28493
804.346	28318
804.488	28367
804.63	28382
804.773	28390
804.915	28299
805.057	28428
805.199	28375
805.341	28485
805.483	28462
805.626	28622
805.768	28424
805.91	28535
806.052	28641
806.194	28516
806.336	28653
806.478	28622
806.62	28580
806.762	28733
806.904	28843
807.046	29079
807.188	28968
807.33	28904
807.472	28965
807.614	28927
807.756	28915
807.898	28786
808.04	28888
808.182	28771
808.324	28961
808.465	28843
808.607	29029
808.749	29261
808.891	29102
809.033	29440
809.174	29391
809.316	29174
809.458	29208
809.6	29265
809.741	29383
809.883	29570
810.025	29391
810.166	29528
810.308	29482
810.45	29573
810.591	29440
810.733	29330
810.875	29128
811.016	29273
811.158	29117
811.299	29417
811.441	29277
811.582	29299
811.724	29250
811.865	29117
812.007	29341
812.148	29296
812.29	29337
812.431	29375
812.573	29589
812.714	29733
812.855	29851
812.997	29805
813.138	30159
813.279	30003
813.421	29775
813.562	29824
813.703	29474
813.845	29528
813.986	29258
814.127	29064
814.268	28953
814.41	29067
814.551	29018
814.692	29025
814.833	28908
814.974	28850
815.115	29117
815.256	28911
815.397	28740
815.539	28888
815.68	28778
815.821	28725
815.962	28854
816.103	28683
816.244	28668
816.385	28611
816.526	28557
816.666	28440
816.807	28265
816.948	28325
817.089	28413
817.23	28310
817.371	28207
817.512	28154
817.653	28265
817.793	28314
817.934	28390
818.075	28287
818.216	28246
818.356	28291
818.497	28074
818.638	28017
818.778	28070
818.919	28010
819.06	28093
819.2	28215
819.341	28291
819.481	28196
819.622	28485
819.762	28649
819.903	28516
820.043	28489
820.184	28394
820.324	28428
820.465	28592
820.605	28333
820.746	28424
820.886	28234
821.026	28276
821.167	28363
821.307	28379
821.447	28401
821.588	28295
821.728	28055
821.868	27911
822.008	27869
822.149	27964
822.289	27717
822.429	27686
822.569	27500
822.709	27469
822.849	27374
822.99	27332
823.13	27336
823.27	27233
823.41	27195
823.55	27066
823.69	27226
823.83	27089
823.97	27291
824.11	27089
824.25	26868
824.389	26880
824.529	27066
824.669	26998
824.809	27180
824.949	27070
825.089	27074
825.228	27024
825.368	26670
825.508	26655
825.648	26815
825.787	26823
825.927	26960
826.067	26796
826.206	26933
826.346	26994
826.485	26868
826.625	26876
826.765	27055
826.904	26743
827.044	26686
827.183	26651
827.323	26667
827.462	26720
827.601	26556
827.741	26549
827.88	26640
828.02	26518
828.159	26545
828.298	26708
828.437	26629
828.577	26408
828.716	26651
828.855	26537
828.994	26320
829.134	26317
829.273	26336
829.412	26237
829.551	26271
829.69	26240
829.829	26301
829.968	26298
830.107	26305
830.246	26210
830.385	26126
830.524	26172
830.663	26119
830.802	25963
830.941	25879
831.08	25772
831.219	26008
831.357	26001
831.496	26103
831.635	25845
831.774	25795
831.913	25788
832.051	25655
832.19	25670
832.329	25537
832.467	25616
832.606	25552
832.744	25331
832.883	25506
833.022	25479
833.16	25400
833.299	25567
833.437	25655
833.576	25563
833.714	25632
833.852	25548
833.991	25605
834.129	25609
834.267	25674
834.406	25632
834.544	25693
834.682	25609
834.821	25609
834.959	25803
835.097	25540
835.235	25601
835.373	25563
835.511	25479
835.65	25392
835.788	25525
835.926	25343
836.064	25198
836.202	25228
836.34	25586
836.478	25575
836.615	25400
836.753	25510
836.891	25491
837.029	25476
837.167	25293
837.305	25244
837.443	25293
837.58	25171
837.718	25384
837.856	25278
837.993	25152
838.131	25320
838.269	25072
838.406	25206
838.544	24996
838.681	24886
838.819	24837
838.956	24635
839.094	24760
839.231	24787
839.369	24966
839.506	25202
839.643	24875
839.781	24642
839.918	24760
840.055	24608
840.193	24589
840.33	24547
840.467	24623
840.604	24608
840.742	24863
840.879	24467
841.016	24517
841.153	24380
841.29	24570
841.427	24525
841.564	24661
841.701	24582
841.838	24654
841.975	24426
842.112	24498
842.249	24486
842.385	24467
842.522	24547
842.659	24433
842.796	24433
842.933	24247
843.069	24395
843.206	24304
843.343	24330
843.479	24441
843.616	24426
843.752	24262
843.889	24064
844.025	24239
844.162	24144
844.298	24232
844.435	24159
844.571	24136
844.708	24125
844.844	24330
844.98	24273
845.117	24098
845.253	23988
845.389	24106
845.525	24125
845.661	23961
845.798	23794
845.934	23912
846.07	23805
846.206	23973
846.342	23954
846.478	23798
846.614	23615
846.75	23528
846.886	23539
847.022	23733
847.158	23672
847.294	23528
847.429	23661
847.565	23562
847.701	23840
847.837	23311
847.972	23372
848.108	23471
848.244	23326
848.379	23197
848.515	23250
848.65	23151
848.786	23140
848.921	23132
849.057	23242
849.192	23200
849.328	23277
849.463	23151
849.598	23181
849.734	23170
849.869	23121
850.004	22889
850.14	22892
850.275	23003
850.41	22869
850.545	22797
850.68	22812
850.815	22953
850.95	22980
851.085	23109
851.22	23098
851.355	23025
851.49	22953
851.625	22881
851.76	22900
851.895	22908
852.03	23010
852.165	22980
852.299	22972
852.434	23067
852.569	23132
852.703	22900
852.838	23029
852.973	23147
853.107	23098
853.242	22900
853.376	22854
853.511	22599
853.645	22706
853.78	22915
853.914	22740
854.048	22702
854.183	22740
854.317	22831
854.451	22843
854.585	22729
854.72	22790
854.854	22786
854.988	22653
855.122	22805
855.256	22573
855.39	22774
855.524	22873
855.658	22873
855.792	22797
855.926	22729
856.06	22744
856.194	22946
856.327	22733
856.461	22653
856.595	22694
856.729	22790
856.862	22805
856.996	22801
857.13	22866
857.263	22816
857.397	22824
857.53	22740
857.664	22630
857.797	22828
857.931	22774
858.064	22706
858.197	22805
858.331	22755
858.464	22588
858.597	22580
858.731	22641
858.864	22717
858.997	22793
859.13	22843
859.263	22839
859.396	22820
859.529	22790
859.662	22774
859.795	22672
859.928	22733
860.061	22873
860.194	22938
860.327	22721
860.46	22759
860.592	22843
860.725	22877
860.858	22919
860.99	22858
861.123	22759
861.256	22736
861.388	22717
861.521	23627
861.653	22668
861.786	22516
861.918	22584
862.05	22622
862.183	22721
862.315	22828
862.447	22812
862.58	22721
862.712	22470
862.844	22443
862.976	22523
863.108	22516
863.24	22866
863.372	22485
863.504	22584
863.636	22417
863.768	22637
863.9	22466
864.032	22379
864.164	22402
864.296	22424
864.428	22649
864.559	22512
864.691	22557
864.823	22462
864.954	22367
865.086	22386
865.217	22363
865.349	22173
865.48	22394
865.612	22402
865.743	22440
865.875	22360
866.006	22276
866.137	22314
866.269	22257
866.4	22398
866.531	22135
866.662	22230
866.793	22249
866.924	22204
867.055	22154
867.186	22360
867.317	22177
867.448	22143
867.579	22131
867.71	22154
867.841	22211
867.972	22291
868.103	22295
868.233	22386
868.364	22249
868.495	22295
868.625	22561
868.756	22584
868.886	22485
869.017	22455
869.147	22569
869.278	22356
869.408	22687
869.539	22584
869.669	22656
869.799	22656
869.929	22675
870.06	22550
870.19	22698
870.32	22752
870.45	22793
870.58	22862
870.71	23029
870.84	22930
870.97	23018
871.1	22694
871.23	23060
871.36	22999
871.489	23105
871.619	23037
871.749	23044
871.879	23166
872.008	23181
872.138	23178
872.267	23014
872.397	22885
872.526	22919
872.656	22839
872.785	23041
872.915	23113
873.044	23227
873.173	23174
873.303	23193
873.432	23155
873.561	23258
873.69	23109
873.819	23083
873.948	23056
874.077	23208
874.206	23128
874.335	23071
874.464	23250
874.593	23516
874.722	23265
874.851	23433
874.979	23307
875.108	23433
875.237	23337
875.365	23250
875.494	23265
875.623	23406
875.751	23197
875.88	23250
876.008	23459
876.136	23471
876.265	23741
876.393	23790
876.521	23699
876.65	23752
876.778	23779
876.906	23680
877.034	23638
877.162	23668
877.29	23551
877.418	23691
877.546	23657
877.674	23657
877.802	23729
877.93	23608
878.058	23649
878.185	23452
878.313	23547
878.441	23642
878.568	23501
878.696	23509
878.824	23802
878.951	23764
879.079	23813
879.206	24018
879.333	23832
879.461	23707
879.588	23733
879.715	23843
879.842	23855
879.97	23741
880.097	23490
880.224	23356
880.351	23509
880.478	23486
880.605	23440
880.732	23467
880.859	23570
880.986	23402
881.112	23402
881.239	23322
881.366	23170
881.493	23204
881.619	23048
881.746	23178
881.872	23067
881.999	22965
882.125	22995
882.252	23140
882.378	23003
882.505	23079
882.631	22927
882.757	22801
882.883	22862
883.01	22793
883.136	22637
883.262	22493
883.388	22577
883.514	22710
883.64	22809
883.766	22774
883.892	22497
884.018	22561
884.143	22649
884.269	22698
884.395	22398
884.52	22329
884.646	22352
884.772	22333
884.897	22363
885.023	22234
885.148	22443
885.274	22584
885.399	22360
885.524	22272
885.65	22303
885.775	22386
885.9	22272
886.025	22348
886.15	22390
886.275	22230
886.4	22230
886.525	22360
886.65	22226
886.775	22105
886.9	22398
887.025	22584
887.149	22280
887.274	22169
887.399	22048
887.523	22082
887.648	22093
887.773	22017
887.897	22265
888.021	22135
888.146	22059
888.27	22131
888.395	22211
888.519	22025
888.643	22036
888.767	22158
888.891	22017
889.015	21842
889.139	21804
889.263	21899
889.387	21994
889.511	22070
889.635	21987
889.759	21793
889.883	21861
890.006	21831
890.13	21911
890.254	21732
890.377	21804
890.501	21614
890.624	21610
890.748	21759
890.871	21553
890.995	21496
891.118	21359
891.241	21477
891.364	21378
891.488	21538
891.611	21378
891.734	21439
891.857	21469
891.98	21504
892.103	21420
892.226	21279
892.349	21458
892.471	21302
892.594	21370
892.717	21450
892.839	21313
892.962	21428
893.085	21428
893.207	21249
893.33	21222
893.452	21188
893.575	21405
893.697	21245
893.819	21412
893.941	21435
894.064	21355
894.186	21245
894.308	21195
894.43	21389
894.552	21519
894.674	21408
894.796	21272
894.918	21325
895.04	21302
895.161	21348
895.283	21195
895.405	21249
895.526	21287
895.648	21237
895.769	21249
895.891	21233
896.012	21306
896.134	21294
896.255	21245
896.376	21252
896.498	21310
896.619	21325
896.74	21279
896.861	21306
896.982	21530
897.103	21701
897.224	21549
897.345	21450
897.466	21507
897.587	21587
897.708	21530
897.828	21542
897.949	21313
898.07	21195
898.19	21462
898.311	21526
898.431	21473
898.552	21420
898.672	21507
898.792	21549
898.913	21469
899.033	21435
899.153	21264
899.273	21112
899.393	21351
899.513	21412
899.633	21184
899.753	21157
899.873	21161
899.993	21218
900.113	21085
900.232	21150
900.352	21081
900.472	21096
900.591	21005
900.711	21058
900.83	20941
900.95	21058
901.069	20990
901.189	20944
901.308	20655
901.427	20606
901.546	20609
901.665	20518
901.784	20492
901.904	20313
902.023	20328
902.141	20145
902.26	20058
902.379	20145
902.498	20031
902.617	19947
902.735	20027
902.854	19978
902.973	19936
903.091	19594
903.21	19723
903.328	19681
903.446	19620
903.565	19586
903.683	19354
903.801	19419
903.919	19502
904.038	19339
904.156	19331
904.274	19407
904.392	19164
904.51	19259
904.627	19198
904.745	19308
904.863	19343
904.981	19076
905.098	18954
905.216	18905
905.334	18947
905.451	18878
905.569	18932
905.686	18920
905.803	18943
905.921	18692
906.038	18745
906.155	18688
906.272	18650
906.389	18593
906.506	18445
906.623	18498
906.74	18346
906.857	18372
906.974	18388
907.091	18456
907.208	18700
907.324	18407
907.441	18376
907.557	18220
907.674	18110
907.79	18019
907.907	18159
908.023	18235
908.139	18174
908.256	17980
908.372	18041
908.488	18068
908.604	17874
908.72	17790
908.836	17794
908.952	17783
909.068	17965
909.184	17908
909.3	17790
909.415	17866
909.531	17836
909.647	17562
909.762	17608
909.878	17452
909.993	17577
910.108	17497
910.224	17493
910.339	17512
910.454	17368
910.57	17318
910.685	17277
910.8	17562
910.915	17459
911.03	17307
911.145	17121
911.259	17124
911.374	17242
911.489	16991
911.604	17045
911.718	16790
911.833	16831
911.947	16801
912.062	16713
912.176	16904
912.291	16847
912.405	16896
912.519	17022
912.633	17003
912.748	16908
912.862	16889
912.976	16778
913.09	16596
913.204	16580
913.318	16774
913.431	16744
913.545	16618
913.659	16786
913.772	16561
913.886	16565
914	16504
914.113	16379
914.226	16603
914.34	16596
914.453	16337
914.566	16436
914.68	16367
914.793	16348
914.906	16101
915.019	16135
915.132	15972
915.245	15975
915.358	16032
915.47	15983
915.583	16051
915.696	16021
915.809	16135
915.921	16219
916.034	15911
916.146	15915
916.259	15789
916.371	16017
916.483	16036
916.595	15941
916.708	15770
916.82	15842
916.932	15778
917.044	15812
917.156	15781
917.268	15660
917.38	15671
917.491	15606
917.603	15656
917.715	15675
917.826	15663
917.938	15515
918.049	15564
918.161	15519
918.272	15644
918.384	15785
918.495	15568
918.606	15397
918.717	15291
918.828	15389
918.939	15488
919.05	15291
919.161	15370
919.272	15123
919.383	15226
919.494	15492
919.604	15572
919.715	15393
919.826	15386
919.936	15317
920.047	15351
920.157	15344
920.267	15530
920.378	15367
920.488	15283
920.598	15488
920.708	15701
920.818	15473
920.928	15344
921.038	15614
921.148	15587
921.258	15173
921.368	15135
921.477	15161
921.587	15058
921.697	14994
921.806	15097
921.916	14990
922.025	14807
922.134	14689
922.244	14739
922.353	14735
922.462	14575
922.571	14514
922.68	14366
922.789	14358
922.898	14370
923.007	14115
923.116	14366
923.224	14412
923.333	14282
923.442	14248
923.55	14134
923.659	14084
923.767	14225
923.876	14050
923.984	14142
924.092	13974
924.201	14020
924.309	14088
924.417	14077
924.525	14043
924.633	13959
924.741	14777
924.849	13727
924.956	13887
925.064	13723
925.172	13620
925.279	13620
925.387	13784
925.494	13750
925.602	13841
925.709	13639
925.816	13578
925.924	13472
926.031	13761
926.138	13578
926.245	13666
926.352	13563
926.459	13670
926.566	13666
926.673	13590
926.779	13468
926.886	13384
926.993	13247
927.099	13251
927.206	13206
927.312	13259
927.419	13194
927.525	13240
927.631	13259
927.737	13072
927.843	13160
927.95	12962
928.056	13080
928.162	13012
928.267	13076
928.373	13628
928.479	13122
928.585	12913
928.69	12985
928.796	12973
928.901	12878
929.007	12772
929.112	12947
929.218	12905
929.323	12829
929.428	12669
929.533	12886
929.638	12620
929.743	12646
929.848	12760
929.953	12662
930.058	12616
930.163	12448
930.267	12441
930.372	12506
930.477	12388
930.581	12589
930.685	12388
930.79	12330
930.894	12311
930.998	12235
931.103	12410
931.207	12072
931.311	11988
931.415	11859
931.519	11634
931.623	11539
