Data from test_V78500241_242.txt Node
Date: Fri Mar 25 15:43:28 CST 2022
User: usil
Spectrometer: V785-0024
Trigger mode: 0
Integration Time (sec): 4.000000E-1
Scans to average: 1
Nonlinearity correction enabled: false
Boxcar width: 0
Storing dark spectrum: false
XAxis mode: Wavelengths
Number of Pixels in Spectrum: 1024
>>>>>Begin Spectral Data<<<<<
801.071	29646
801.214	29604
801.356	29486
801.499	29493
801.641	29280
801.783	29155
801.926	29402
802.068	29044
802.211	28987
802.353	29067
802.496	28847
802.638	28881
802.78	28801
802.923	28873
803.065	28683
803.208	28763
803.35	28885
803.492	29094
803.635	29113
803.777	28854
803.919	29090
804.061	29208
804.204	29102
804.346	29060
804.488	28927
804.63	29075
804.773	28790
804.915	28934
805.057	29212
805.199	29056
805.341	29242
805.483	29098
805.626	29098
805.768	29060
805.91	29003
806.052	29155
806.194	29083
806.336	29200
806.478	29143
806.62	29258
806.762	29239
806.904	29467
807.046	29551
807.188	29395
807.33	29531
807.472	29455
807.614	29387
807.756	29414
807.898	29311
808.04	29379
808.182	29364
808.324	29292
808.465	29353
808.607	29471
808.749	29596
808.891	29794
809.033	30015
809.174	29722
809.316	29653
809.458	29733
809.6	29684
809.741	29805
809.883	29828
810.025	29870
810.166	29988
810.308	29935
810.45	29923
810.591	29874
810.733	29695
810.875	29562
811.016	29547
811.158	29547
811.299	29668
811.441	29931
811.582	29920
811.724	29836
811.865	29482
812.007	29585
812.148	29718
812.29	29695
812.431	29783
812.573	30022
812.714	30129
812.855	30144
812.997	30235
813.138	30460
813.279	30372
813.421	30289
813.562	30121
813.703	30064
813.845	29935
813.986	29547
814.127	29383
814.268	29254
814.41	29239
814.551	29216
814.692	29353
814.833	29303
814.974	29208
815.115	29162
815.256	29109
815.397	29189
815.539	29121
815.68	28961
815.821	29044
815.962	29136
816.103	28946
816.244	29006
816.385	28942
816.526	28774
816.666	28668
816.807	28405
816.948	28580
817.089	28771
817.23	28607
817.371	28436
817.512	28500
817.653	28489
817.793	28466
817.934	28478
818.075	28485
818.216	28405
818.356	28394
818.497	28306
818.638	28131
818.778	28230
818.919	28169
819.06	28318
819.2	28367
819.341	28421
819.481	28428
819.622	28512
819.762	28767
819.903	28706
820.043	28687
820.184	28584
820.324	28569
820.465	28675
820.605	28527
820.746	28561
820.886	28424
821.026	28466
821.167	28466
821.307	28470
821.447	28401
821.588	28337
821.728	28150
821.868	28010
822.008	27907
822.149	27888
822.289	27876
822.429	27583
822.569	27435
822.709	27523
822.849	27325
822.99	27325
823.13	27306
823.27	27363
823.41	27112
823.55	26971
823.69	27203
823.83	27161
823.97	27093
824.11	27024
824.25	26895
824.389	26971
824.529	26940
824.669	26895
824.809	27108
824.949	27096
825.089	27009
825.228	26918
825.368	26910
825.508	26708
825.648	26689
825.787	26796
825.927	26823
826.067	26845
826.206	26811
826.346	26845
826.485	26796
826.625	26697
826.765	26963
826.904	26853
827.044	26594
827.183	26617
827.323	26549
827.462	26587
827.601	26499
827.741	26446
827.88	26469
828.02	26404
828.159	26495
828.298	26476
828.437	26465
828.577	26278
828.716	26617
828.855	26396
828.994	26218
829.134	26111
829.273	26164
829.412	26100
829.551	25959
829.69	26180
829.829	26081
829.968	26233
830.107	26142
830.246	26126
830.385	26027
830.524	26054
830.663	25982
830.802	25814
830.941	25635
831.08	25700
831.219	25674
831.357	25746
831.496	25887
831.635	25639
831.774	25502
831.913	25556
832.051	25472
832.19	25419
832.329	25533
832.467	25499
832.606	25392
832.744	25293
832.883	25274
833.022	25217
833.16	25381
833.299	25209
833.437	25244
833.576	25308
833.714	25407
833.852	25434
833.991	25415
834.129	25354
834.267	25476
834.406	25285
834.544	25426
834.682	25358
834.821	25244
834.959	25449
835.097	25266
835.235	25369
835.373	25369
835.511	25468
835.65	25247
835.788	25285
835.926	24992
836.064	24939
836.202	24894
836.34	25217
836.478	25225
836.615	25023
836.753	25050
836.891	25148
837.029	25164
837.167	25179
837.305	25084
837.443	25023
837.58	24962
837.718	25023
837.856	25061
837.993	24890
838.131	24947
838.269	24901
838.406	24886
838.544	24688
838.681	24559
838.819	24544
838.956	24376
839.094	24323
839.231	24490
839.369	24627
839.506	24711
839.643	24661
839.781	24384
839.918	24308
840.055	24308
840.193	24277
840.33	24372
840.467	24376
840.604	24254
840.742	24509
840.879	24220
841.016	24258
841.153	24117
841.29	24376
841.427	24239
841.564	24323
841.701	24220
841.838	24174
841.975	24087
842.112	24140
842.249	24011
842.385	24087
842.522	24121
842.659	24098
842.796	23954
842.933	23992
843.069	23859
843.206	23866
843.343	24060
843.479	23996
843.616	23984
843.752	23699
843.889	23756
844.025	23775
844.162	23684
844.298	23733
844.435	23649
844.571	23836
844.708	23665
844.844	23821
844.98	23843
845.117	23699
845.253	23566
845.389	23642
845.525	23429
845.661	23543
845.798	23387
845.934	23429
846.07	23376
846.206	23474
846.342	23596
846.478	23406
846.614	23216
846.75	23124
846.886	23105
847.022	23239
847.158	23280
847.294	23109
847.429	23197
847.565	23060
847.701	23280
847.837	22831
847.972	22805
848.108	23014
848.244	22938
848.379	22748
848.515	22679
848.65	22687
848.786	22752
848.921	22634
849.057	22759
849.192	22786
849.328	22820
849.463	22771
849.598	22656
849.734	22630
849.869	22451
850.004	22436
850.14	22440
850.275	22462
850.41	22379
850.545	22344
850.68	22417
850.815	22352
850.95	22424
851.085	22607
851.22	22497
851.355	22470
851.49	22287
851.625	22310
851.76	22390
851.895	22363
852.03	22360
852.165	22516
852.299	22466
852.434	22508
852.569	22497
852.703	22379
852.838	22394
852.973	22573
853.107	22478
853.242	22268
853.376	22215
853.511	22101
853.645	22128
853.78	22337
853.914	22249
854.048	22173
854.183	22272
854.317	22200
854.451	22268
854.585	22303
854.72	22223
854.854	22196
854.988	22249
855.122	22207
855.256	22112
855.39	22211
855.524	22272
855.658	22310
855.792	22200
855.926	22154
856.06	22276
856.194	22303
856.327	22105
856.461	22238
856.595	22280
856.729	22185
856.862	22314
856.996	22230
857.13	22200
857.263	22333
857.397	22185
857.53	22147
857.664	22109
857.797	22257
857.931	22352
858.064	22147
858.197	22325
858.331	22124
858.464	22059
858.597	22086
858.731	22268
858.864	22128
858.997	22177
859.13	22242
859.263	22055
859.396	22158
859.529	22044
859.662	22109
859.795	22131
859.928	22177
860.061	22329
860.194	22375
860.327	22128
860.46	22215
860.592	22139
860.725	22382
860.858	22230
860.99	22314
861.123	22017
861.256	22135
861.388	22120
861.521	22740
861.653	22002
861.786	21888
861.918	21876
862.05	22143
862.183	22006
862.315	22177
862.447	22196
862.58	22131
862.712	21907
862.844	21762
862.976	21956
863.108	21800
863.24	22253
863.372	21895
863.504	21949
863.636	21808
863.768	21975
863.9	21701
864.032	21686
864.164	21759
864.296	21831
864.428	21918
864.559	21861
864.691	21736
864.823	21709
864.954	21739
865.086	21759
865.217	21759
865.349	21663
865.48	21732
865.612	21701
865.743	21903
865.875	21778
866.006	21736
866.137	21762
866.269	21671
866.4	21648
866.531	21713
866.662	21686
866.793	21625
866.924	21507
867.055	21675
867.186	21637
867.317	21603
867.448	21694
867.579	21599
867.71	21462
867.841	21492
867.972	21583
868.103	21504
868.233	21675
868.364	21515
868.495	21755
868.625	21789
868.756	21861
868.886	21842
869.017	21857
869.147	21842
869.278	21880
869.408	21941
869.539	21888
869.669	21793
869.799	21857
869.929	21949
870.06	21994
870.19	22105
870.32	22158
870.45	22242
870.58	22223
870.71	22363
870.84	22299
870.97	22173
871.1	22314
871.23	22405
871.36	22554
871.489	22382
871.619	22371
871.749	22447
871.879	22538
872.008	22656
872.138	22451
872.267	22580
872.397	22257
872.526	22261
872.656	22333
872.785	22341
872.915	22424
873.044	22733
873.173	22527
873.303	22481
873.432	22599
873.561	22596
873.69	22474
873.819	22485
873.948	22478
874.077	22447
874.206	22500
874.335	22485
874.464	22542
874.593	22694
874.722	22778
874.851	22630
874.979	22706
875.108	22790
875.237	22687
875.365	22660
875.494	22618
875.623	22736
875.751	22672
875.88	22706
876.008	22694
876.136	22869
876.265	23090
876.393	23258
876.521	23067
876.65	23223
876.778	23079
876.906	22934
877.034	22930
877.162	22938
877.29	23003
877.418	23143
877.546	23067
877.674	23094
877.802	23022
877.93	23079
878.058	22968
878.185	22858
878.313	23052
878.441	23159
878.568	22949
878.696	22961
878.824	23113
878.951	23071
879.079	23162
879.206	23315
879.333	23170
879.461	22991
879.588	23193
879.715	23181
879.842	23395
879.97	23178
880.097	22892
880.224	22809
880.351	22835
880.478	22877
880.605	22786
880.732	22915
880.859	23086
880.986	22839
881.112	22889
881.239	22721
881.366	22607
881.493	22470
881.619	22367
881.746	22459
881.872	22386
881.999	22299
882.125	22322
882.252	22489
882.378	22451
882.505	22634
882.631	22238
882.757	22116
882.883	22135
883.01	22105
883.136	22097
883.262	22021
883.388	22013
883.514	22246
883.64	22135
883.766	22002
883.892	21937
884.018	22010
884.143	22090
884.269	22246
884.395	21785
884.52	21800
884.646	21816
884.772	21770
884.897	21606
885.023	21812
885.148	21884
885.274	21911
885.399	21827
885.524	21838
885.65	21755
885.775	21766
885.9	21797
886.025	21812
886.15	21865
886.275	21675
886.4	21587
886.525	21770
886.65	21717
886.775	21759
886.9	21857
887.025	21975
887.149	21679
887.274	21549
887.399	21500
887.523	21435
887.648	21481
887.773	21485
887.897	21682
888.021	21443
888.146	21519
888.27	21538
888.395	21576
888.519	21504
888.643	21511
888.767	21485
888.891	21348
889.015	21363
889.139	21370
889.263	21173
889.387	21329
889.511	21610
889.635	21332
889.759	21298
889.883	21150
890.006	21268
890.13	21469
890.254	21207
890.377	21184
890.501	21055
890.624	21001
890.748	20986
890.871	20849
890.995	20857
891.118	20815
891.241	20941
891.364	20800
891.488	20998
891.611	20845
891.734	20902
891.857	20872
891.98	20929
892.103	20906
892.226	20773
892.349	20864
892.471	20697
892.594	20735
892.717	20735
892.839	20686
892.962	20746
893.085	20796
893.207	20727
893.33	20648
893.452	20655
893.575	20785
893.697	20705
893.819	20819
893.941	20941
894.064	20906
894.186	20712
894.308	20629
894.43	20762
894.552	20910
894.674	20739
894.796	20629
894.918	20785
895.04	20621
895.161	20811
895.283	20834
895.405	20701
895.526	20708
895.648	20621
895.769	20667
895.891	20731
896.012	20880
896.134	20861
896.255	20788
896.376	20720
896.498	20823
896.619	20834
896.74	20811
896.861	20849
896.982	21142
897.103	21157
897.224	21032
897.345	21009
897.466	20963
897.587	20948
897.708	20979
897.828	20998
897.949	20807
898.07	20727
898.19	20849
898.311	20971
898.431	20876
898.552	20899
898.672	21062
898.792	21062
898.913	20937
899.033	20792
899.153	20632
899.273	20716
899.393	20743
899.513	20724
899.633	20598
899.753	20640
899.873	20583
899.993	20533
900.113	20545
900.232	20606
900.352	20503
900.472	20370
900.591	20339
900.711	20484
900.83	20377
900.95	20507
901.069	20473
901.189	20309
901.308	20100
901.427	20001
901.546	20027
901.665	19925
901.784	20027
901.904	19833
902.023	19757
902.141	19495
902.26	19510
902.379	19430
902.498	19502
902.617	19403
902.735	19537
902.854	19430
902.973	19312
903.091	19080
903.21	19038
903.328	19122
903.446	19038
903.565	18958
903.683	18951
903.801	18719
903.919	18890
904.038	18875
904.156	18700
904.274	18840
904.392	18665
904.51	18673
904.627	18734
904.745	18764
904.863	18623
904.981	18456
905.098	18357
905.216	18448
905.334	18376
905.451	18494
905.569	18353
905.686	18319
905.803	18289
905.921	18121
906.038	18197
906.155	18140
906.272	18007
906.389	18041
906.506	17779
906.623	17836
906.74	17912
906.857	17710
906.974	17752
907.091	17908
907.208	18015
907.324	17882
907.441	17756
907.557	17589
907.674	17573
907.79	17558
907.907	17570
908.023	17509
908.139	17573
908.256	17554
908.372	17410
908.488	17410
908.604	17265
908.72	17258
908.836	17204
908.952	17246
909.068	17261
909.184	17315
909.3	17231
909.415	17273
909.531	17246
909.647	16930
909.762	16987
909.878	16873
909.993	16938
910.108	16885
910.224	16828
910.339	16892
910.454	16850
910.57	16702
910.685	16641
910.8	16972
910.915	16790
911.03	16702
911.145	16481
911.259	16519
911.374	16405
911.489	16379
911.604	16409
911.718	16287
911.833	16299
911.947	16158
912.062	16112
912.176	16272
912.291	16352
912.405	16284
912.519	16455
912.633	16318
912.748	16219
912.862	16181
912.976	16086
913.09	15953
913.204	15983
913.318	16017
913.431	16139
913.545	16086
913.659	16025
913.772	15960
913.886	15800
914	15819
914.113	15937
914.226	15953
914.34	16013
914.453	15762
914.566	15838
914.68	15663
914.793	15660
914.906	15553
915.019	15504
915.132	15389
915.245	15431
915.358	15492
915.47	15416
915.583	15454
915.696	15469
915.809	15496
915.921	15526
916.034	15340
916.146	15336
916.259	15256
916.371	15458
916.483	15378
916.595	15370
916.708	15294
916.82	15332
916.932	15279
917.044	15203
917.156	15218
917.268	15058
917.38	15058
917.491	15028
917.603	15058
917.715	15108
917.826	15127
917.938	14979
918.049	14899
918.161	15043
918.272	15176
918.384	15104
918.495	14929
918.606	14861
918.717	14743
918.828	14845
918.939	14830
919.05	14769
919.161	14731
919.272	14495
919.383	14598
919.494	14864
919.604	15039
919.715	14739
919.826	14735
919.936	14754
920.047	14823
920.157	14720
920.267	14929
920.378	14834
920.488	14800
920.598	14982
920.708	15043
920.818	14864
920.928	14868
921.038	15047
921.148	14952
921.258	14678
921.368	14522
921.477	14511
921.587	14454
921.697	14317
921.806	14549
921.916	14225
922.025	14199
922.134	14119
922.244	14035
922.353	14176
922.462	13936
922.571	13883
922.68	13818
922.789	13761
922.898	13830
923.007	13609
923.116	13712
923.224	13708
923.333	13715
923.442	13567
923.55	13571
923.659	13525
923.767	13597
923.876	13502
923.984	13575
924.092	13449
924.201	13518
924.309	13434
924.417	13480
924.525	13339
924.633	13354
924.741	14130
924.849	13282
924.956	13396
925.064	13289
925.172	13156
925.279	13175
925.387	13221
925.494	13194
925.602	13247
925.709	13213
925.816	12954
925.924	13050
926.031	13129
926.138	13031
926.245	13198
926.352	12951
926.459	13114
926.566	13103
926.673	13012
926.779	12905
926.886	12920
926.993	12764
927.099	12658
927.206	12551
927.312	12585
927.419	12692
927.525	12665
927.631	12631
927.737	12639
927.843	12494
927.95	12429
928.056	12528
928.162	12593
928.267	12525
928.373	13156
928.479	12616
928.585	12228
928.69	12509
928.796	12437
928.901	12300
929.007	12213
929.112	12289
929.218	12285
929.323	12228
929.428	12155
929.533	12357
929.638	12155
929.743	12216
929.848	12232
929.953	12159
930.058	12019
930.163	11935
930.267	11927
930.372	11958
930.477	11889
930.581	12060
930.685	11961
930.79	11726
930.894	11813
930.998	11680
931.103	11874
931.207	11448
931.311	11421
931.415	11303
931.519	11170
931.623	11098
