Data from test_V78500241_2865.txt Node
Date: Fri Mar 25 16:01:38 CST 2022
User: usil
Spectrometer: V785-0024
Trigger mode: 0
Integration Time (sec): 4.000000E-1
Scans to average: 1
Nonlinearity correction enabled: false
Boxcar width: 0
Storing dark spectrum: false
XAxis mode: Wavelengths
Number of Pixels in Spectrum: 1024
>>>>>Begin Spectral Data<<<<<
801.071	29094
801.214	29018
801.356	28805
801.499	28702
801.641	28847
801.783	28694
801.926	28748
802.068	28622
802.211	28557
802.353	28527
802.496	28500
802.638	28295
802.78	28405
802.923	28375
803.065	28246
803.208	28443
803.35	28436
803.492	28698
803.635	28550
803.777	28462
803.919	28523
804.061	28915
804.204	28668
804.346	28542
804.488	28668
804.63	28725
804.773	28500
804.915	28637
805.057	28862
805.199	28660
805.341	28744
805.483	28801
805.626	28847
805.768	28706
805.91	28793
806.052	28759
806.194	28672
806.336	29037
806.478	28942
806.62	28942
806.762	28873
806.904	29056
807.046	29406
807.188	29269
807.33	29307
807.472	29440
807.614	29189
807.756	29311
807.898	29136
808.04	29162
808.182	29227
808.324	29003
808.465	29269
808.607	29459
808.749	29528
808.891	29531
809.033	29687
809.174	29615
809.316	29478
809.458	29570
809.6	29505
809.741	29748
809.883	29657
810.025	29798
810.166	29802
810.308	29870
810.45	29680
810.591	29760
810.733	29634
810.875	29524
811.016	29421
811.158	29440
811.299	29687
811.441	29828
811.582	29737
811.724	29634
811.865	29551
812.007	29524
812.148	29425
812.29	29570
812.431	29809
812.573	30072
812.714	29923
812.855	30129
812.997	30121
813.138	30422
813.279	30167
813.421	30159
813.562	30022
813.703	29950
813.845	29760
813.986	29497
814.127	29444
814.268	29235
814.41	29174
814.551	29246
814.692	29360
814.833	29341
814.974	29231
815.115	29280
815.256	29174
815.397	29147
815.539	29208
815.68	29200
815.821	29052
815.962	29280
816.103	29117
816.244	29033
816.385	28900
816.526	28927
816.666	28793
816.807	28535
816.948	28649
817.089	28725
817.23	28599
817.371	28725
817.512	28523
817.653	28542
817.793	28622
817.934	28656
818.075	28531
818.216	28622
818.356	28626
818.497	28478
818.638	28249
818.778	28337
818.919	28306
819.06	28413
819.2	28569
819.341	28615
819.481	28698
819.622	28744
819.762	28934
819.903	28984
820.043	28869
820.184	28763
820.324	28573
820.465	28752
820.605	28812
820.746	28717
820.886	28649
821.026	28668
821.167	28668
821.307	28748
821.447	28672
821.588	28580
821.728	28390
821.868	28322
822.008	28010
822.149	28029
822.289	28036
822.429	27854
822.569	27717
822.709	27876
822.849	27564
822.99	27595
823.13	27511
823.27	27526
823.41	27477
823.55	27359
823.69	27317
823.83	27435
823.97	27336
824.11	27131
824.25	27310
824.389	27241
824.529	27264
824.669	27127
824.809	27268
824.949	27431
825.089	27283
825.228	27214
825.368	27085
825.508	27165
825.648	27150
825.787	27252
825.927	27211
826.067	27211
826.206	27085
826.346	27085
826.485	27214
826.625	27085
826.765	27127
826.904	27123
827.044	26960
827.183	26960
827.323	26868
827.462	26933
827.601	26891
827.741	26899
827.88	26891
828.02	26785
828.159	26811
828.298	26750
828.437	26880
828.577	26765
828.716	26823
828.855	26640
828.994	26469
829.134	26606
829.273	26606
829.412	26473
829.551	26408
829.69	26708
829.829	26541
829.968	26575
830.107	26560
830.246	26461
830.385	26587
830.524	26412
830.663	26298
830.802	26275
830.941	26168
831.08	26240
831.219	26252
831.357	26244
831.496	26320
831.635	26206
831.774	26111
831.913	26073
832.051	25966
832.19	25890
832.329	25913
832.467	25921
832.606	25845
832.744	25772
832.883	25845
833.022	25734
833.16	25799
833.299	25727
833.437	25795
833.576	25944
833.714	25894
833.852	25944
833.991	26008
834.129	25887
834.267	25841
834.406	25906
834.544	25849
834.682	25974
834.821	25894
834.959	26092
835.097	25807
835.235	25963
835.373	25966
835.511	25845
835.65	25700
835.788	25681
835.926	25556
836.064	25544
836.202	25597
836.34	25677
836.478	25776
836.615	25708
836.753	25719
836.891	25757
837.029	25791
837.167	25590
837.305	25415
837.443	25559
837.58	25518
837.718	25613
837.856	25457
837.993	25510
838.131	25457
838.269	25514
838.406	25594
838.544	25407
838.681	25164
838.819	25027
838.956	24985
839.094	24962
839.231	25008
839.369	25240
839.506	25304
839.643	25259
839.781	24916
839.918	24825
840.055	24905
840.193	24966
840.33	24905
840.467	25034
840.604	24947
840.742	25247
840.879	24757
841.016	24810
841.153	24753
841.29	25053
841.427	24920
841.564	24916
841.701	24802
841.838	24852
841.975	24962
842.112	24863
842.249	24806
842.385	24696
842.522	24749
842.659	24658
842.796	24722
842.933	24715
843.069	24681
843.206	24407
843.343	24555
843.479	24734
843.616	24513
843.752	24426
843.889	24467
844.025	24536
844.162	24471
844.298	24582
844.435	24365
844.571	24334
844.708	24540
844.844	24418
844.98	24513
845.117	24422
845.253	24551
845.389	24235
845.525	24281
845.661	24273
845.798	24060
845.934	24319
846.07	24125
846.206	24186
846.342	24251
846.478	24125
846.614	23927
846.75	23832
846.886	23965
847.022	24018
847.158	23927
847.294	23794
847.429	23923
847.565	23722
847.701	24053
847.837	23573
847.972	23474
848.108	23703
848.244	23623
848.379	23551
848.515	23414
848.65	23387
848.786	23482
848.921	23486
849.057	23558
849.192	23539
849.328	23452
849.463	23383
849.598	23250
849.734	23391
849.869	23372
850.004	23292
850.14	23208
850.275	23204
850.41	23136
850.545	23166
850.68	23174
850.815	23250
850.95	23265
851.085	23379
851.22	23448
851.355	23140
851.49	23174
851.625	23143
851.76	23280
851.895	23105
852.03	23166
852.165	23292
852.299	23208
852.434	23216
852.569	23223
852.703	23220
852.838	23117
852.973	23341
853.107	23341
853.242	23242
853.376	23010
853.511	22968
853.645	22961
853.78	23105
853.914	23060
854.048	22976
854.183	22968
854.317	23044
854.451	23200
854.585	22968
854.72	23075
854.854	23151
854.988	22987
855.122	23037
855.256	22816
855.39	23037
855.524	23064
855.658	23048
855.792	22999
855.926	23094
856.06	22930
856.194	23044
856.327	22965
856.461	23071
856.595	22942
856.729	23079
856.862	22938
856.996	23098
857.13	23018
857.263	23250
857.397	23181
857.53	23105
857.664	23098
857.797	23204
857.931	23121
858.064	23098
858.197	23136
858.331	23006
858.464	23029
858.597	22786
858.731	23094
858.864	22930
858.997	22976
859.13	23075
859.263	23025
859.396	23162
859.529	23121
859.662	23048
859.795	23071
859.928	23033
860.061	23273
860.194	23090
860.327	23033
860.46	23033
860.592	23121
860.725	23250
860.858	23193
860.99	23121
861.123	22942
861.256	22961
861.388	22866
861.521	23752
861.653	22885
861.786	22847
861.918	22782
862.05	22873
862.183	22896
862.315	22957
862.447	22961
862.58	22946
862.712	22748
862.844	22733
862.976	22694
863.108	22793
863.24	23117
863.372	22679
863.504	22771
863.636	22759
863.768	22748
863.9	22725
864.032	22630
864.164	22805
864.296	22702
864.428	22812
864.559	22831
864.691	22801
864.823	22797
864.954	22721
865.086	22687
865.217	22527
865.349	22500
865.48	22634
865.612	22508
865.743	22774
865.875	22622
866.006	22618
866.137	22725
866.269	22565
866.4	22519
866.531	22402
866.662	22535
866.793	22527
866.924	22584
867.055	22611
867.186	22557
867.317	22542
867.448	22497
867.579	22569
867.71	22527
867.841	22443
867.972	22660
868.103	22421
868.233	22580
868.364	22706
868.495	22626
868.625	22729
868.756	22748
868.886	22664
869.017	22694
869.147	22866
869.278	22942
869.408	22854
869.539	22812
869.669	22866
869.799	22706
869.929	22801
870.06	22843
870.19	22965
870.32	23014
870.45	22946
870.58	23094
870.71	23254
870.84	23140
870.97	23162
871.1	23178
871.23	23326
871.36	23315
871.489	23261
871.619	23318
871.749	23318
871.879	23471
872.008	23474
872.138	23364
872.267	23379
872.397	23303
872.526	23200
872.656	23242
872.785	23189
872.915	23501
873.044	23452
873.173	23421
873.303	23547
873.432	23387
873.561	23509
873.69	23326
873.819	23433
873.948	23273
874.077	23353
874.206	23379
874.335	23417
874.464	23478
874.593	23687
874.722	23596
874.851	23585
874.979	23573
875.108	23665
875.237	23562
875.365	23414
875.494	23638
875.623	23570
875.751	23592
875.88	23474
876.008	23748
876.136	23672
876.265	24026
876.393	23999
876.521	24064
876.65	24045
876.778	23908
876.906	23965
877.034	23931
877.162	23935
877.29	23897
877.418	23950
877.546	23889
877.674	23885
877.802	23897
877.93	23767
878.058	23809
878.185	23786
878.313	23760
878.441	23866
878.568	23646
878.696	23935
878.824	23893
878.951	24041
879.079	24095
879.206	24201
879.333	24186
879.461	23885
879.588	23950
879.715	24182
879.842	24285
879.97	24018
880.097	23760
880.224	23707
880.351	23691
880.478	23885
880.605	23653
880.732	23783
880.859	23946
880.986	23726
881.112	23668
881.239	23589
881.366	23429
881.493	23410
881.619	23353
881.746	23417
881.872	23326
881.999	23159
882.125	23360
882.252	23220
882.378	23280
882.505	23368
882.631	23109
882.757	22934
882.883	23018
883.01	22968
883.136	22809
883.262	22733
883.388	22763
883.514	22919
883.64	23018
883.766	22828
883.892	22740
884.018	22755
884.143	22919
884.269	22904
884.395	22550
884.52	22554
884.646	22641
884.772	22489
884.897	22436
885.023	22596
885.148	22599
885.274	22729
885.399	22561
885.524	22596
885.65	22455
885.775	22706
885.9	22497
886.025	22664
886.15	22512
886.275	22679
886.4	22599
886.525	22497
886.65	22394
886.775	22500
886.9	22573
887.025	22672
887.149	22561
887.274	22390
887.399	22440
887.523	22276
887.648	22280
887.773	22238
887.897	22325
888.021	22413
888.146	22257
888.27	22398
888.395	22447
888.519	22417
888.643	22341
888.767	22360
888.891	22295
889.015	22116
889.139	22086
889.263	22055
889.387	22204
889.511	22310
889.635	22143
889.759	22086
889.883	22112
890.006	22173
890.13	22207
890.254	22063
890.377	22021
890.501	21812
890.624	21759
890.748	21892
890.871	21751
890.995	21515
891.118	21614
891.241	21743
891.364	21591
891.488	21835
891.611	21690
891.734	21701
891.857	21606
891.98	21667
892.103	21709
892.226	21618
892.349	21576
892.471	21473
892.594	21435
892.717	21580
892.839	21591
892.962	21538
893.085	21667
893.207	21568
893.33	21359
893.452	21488
893.575	21458
893.697	21515
893.819	21728
893.941	21679
894.064	21717
894.186	21492
894.308	21507
894.43	21553
894.552	21576
894.674	21686
894.796	21389
894.918	21443
895.04	21496
895.161	21599
895.283	21526
895.405	21355
895.526	21504
895.648	21557
895.769	21496
895.891	21587
896.012	21622
896.134	21504
896.255	21450
896.376	21492
896.498	21496
896.619	21587
896.74	21466
896.861	21466
896.982	21747
897.103	21907
897.224	21812
897.345	21652
897.466	21595
897.587	21808
897.708	21838
897.828	21755
897.949	21709
898.07	21603
898.19	21701
898.311	21797
898.431	21515
898.552	21675
898.672	21732
898.792	21682
898.913	21622
899.033	21660
899.153	21450
899.273	21340
899.393	21485
899.513	21473
899.633	21500
899.753	21386
899.873	21317
899.993	21363
900.113	21443
900.232	21408
900.352	21321
900.472	21329
900.591	21123
900.711	21268
900.83	21096
900.95	21374
901.069	21214
901.189	21032
901.308	20861
901.427	20754
901.546	20667
901.665	20670
901.784	20826
901.904	20644
902.023	20514
902.141	20267
902.26	20408
902.379	20317
902.498	20278
902.617	20252
902.735	20267
902.854	20195
902.973	20180
903.091	19917
903.21	20012
903.328	19826
903.446	19841
903.565	19734
903.683	19734
903.801	19506
903.919	19658
904.038	19715
904.156	19460
904.274	19537
904.392	19327
904.51	19476
904.627	19483
904.745	19495
904.863	19521
904.981	19194
905.098	19126
905.216	19194
905.334	19050
905.451	19118
905.569	19244
905.686	19145
905.803	19187
905.921	18924
906.038	18943
906.155	18958
906.272	18806
906.389	18715
906.506	18665
906.623	18722
906.74	18604
906.857	18574
906.974	18563
907.091	18681
907.208	18566
907.324	18654
907.441	18498
907.557	18445
907.674	18350
907.79	18376
907.907	18445
908.023	18422
908.139	18281
908.256	18247
908.372	18251
908.488	18194
908.604	18060
908.72	18003
908.836	18091
908.952	18022
909.068	18091
909.184	18220
909.3	17885
909.415	18106
909.531	18019
909.647	17786
909.762	17859
909.878	17707
909.993	17764
910.108	17691
910.224	17687
910.339	17642
910.454	17520
910.57	17539
910.685	17562
910.8	17714
910.915	17600
911.03	17570
911.145	17315
911.259	17292
911.374	17417
911.489	17322
911.604	17212
911.718	16999
911.833	17067
911.947	16942
912.062	16942
912.176	17014
912.291	17067
912.405	17033
912.519	17208
912.633	17208
912.748	17143
912.862	16999
912.976	16919
913.09	16626
913.204	16915
913.318	16850
913.431	17041
913.545	16904
913.659	16892
913.772	16748
913.886	16634
914	16523
914.113	16767
914.226	16694
914.34	16664
914.453	16504
914.566	16645
914.68	16607
914.793	16538
914.906	16291
915.019	16272
915.132	16158
915.245	16204
915.358	16097
915.47	16188
915.583	16173
915.696	16246
915.809	16299
915.921	16238
916.034	16166
916.146	16109
916.259	16059
916.371	16166
916.483	16124
916.595	16029
916.708	16017
916.82	15968
916.932	16006
917.044	16055
917.156	15888
917.268	15865
917.38	15835
917.491	15698
917.603	15835
917.715	15842
917.826	15880
917.938	15736
918.049	15644
918.161	15774
918.272	15949
918.384	15762
918.495	15774
918.606	15679
918.717	15622
918.828	15709
918.939	15580
919.05	15412
919.161	15553
919.272	15302
919.383	15329
919.494	15591
919.604	15739
919.715	15648
919.826	15332
919.936	15519
920.047	15610
920.157	15572
920.267	15652
920.378	15500
920.488	15469
920.598	15625
920.708	15785
920.818	15530
920.928	15538
921.038	15804
921.148	15652
921.258	15420
921.368	15382
921.477	15226
921.587	15218
921.697	15093
921.806	15214
921.916	15017
922.025	14960
922.134	14868
922.244	14769
922.353	14883
922.462	14792
922.571	14743
922.68	14537
922.789	14518
922.898	14438
923.007	14370
923.116	14473
923.224	14381
923.333	14503
923.442	14328
923.55	14317
923.659	14317
923.767	14263
923.876	14229
923.984	14309
924.092	14138
924.201	14153
924.309	14123
924.417	14191
924.525	14088
924.633	14096
924.741	14967
924.849	13970
924.956	14077
925.064	13925
925.172	13841
925.279	13883
925.387	13852
925.494	13776
925.602	13944
925.709	13852
925.816	13628
925.924	13723
926.031	13791
926.138	13830
926.245	13757
926.352	13696
926.459	13791
926.566	13734
926.673	13708
926.779	13468
926.886	13529
926.993	13362
927.099	13396
927.206	13346
927.312	13316
927.419	13350
927.525	13415
927.631	13350
927.737	13331
927.843	13152
927.95	13076
928.056	13171
928.162	13194
928.267	13209
928.373	13883
928.479	13282
928.585	13042
928.69	13118
928.796	13118
928.901	13004
929.007	12954
929.112	13053
929.218	12977
929.323	12943
929.428	12924
929.533	13027
929.638	12833
929.743	12844
929.848	12886
929.953	12753
930.058	12719
930.163	12547
930.267	12627
930.372	12612
930.477	12521
930.581	12700
930.685	12593
930.79	12441
930.894	12521
930.998	12418
931.103	12498
931.207	12125
931.311	12064
931.415	12011
931.519	11786
931.623	11805
