Data from test_V78500241_3326.txt Node
Date: Fri Mar 25 16:04:50 CST 2022
User: usil
Spectrometer: V785-0024
Trigger mode: 0
Integration Time (sec): 4.000000E-1
Scans to average: 1
Nonlinearity correction enabled: false
Boxcar width: 0
Storing dark spectrum: false
XAxis mode: Wavelengths
Number of Pixels in Spectrum: 1024
>>>>>Begin Spectral Data<<<<<
801.071	28790
801.214	28752
801.356	28561
801.499	28546
801.641	28371
801.783	28432
801.926	28451
802.068	28394
802.211	28344
802.353	28360
802.496	28177
802.638	28226
802.78	28055
802.923	28078
803.065	27873
803.208	28166
803.35	28166
803.492	28242
803.635	28276
803.777	28116
803.919	28375
804.061	28626
804.204	28306
804.346	28131
804.488	28265
804.63	28306
804.773	28382
804.915	28352
805.057	28478
805.199	28318
805.341	28417
805.483	28748
805.626	28519
805.768	28470
805.91	28538
806.052	28596
806.194	28462
806.336	28641
806.478	28508
806.62	28596
806.762	28618
806.904	28862
807.046	29143
807.188	29044
807.33	29052
807.472	28953
807.614	28984
807.756	28885
807.898	28801
808.04	28698
808.182	28729
808.324	28748
808.465	28961
808.607	29136
808.749	29136
808.891	29299
809.033	29417
809.174	29242
809.316	29261
809.458	29189
809.6	29204
809.741	29254
809.883	29303
810.025	29501
810.166	29356
810.308	29410
810.45	29349
810.591	29497
810.733	29433
810.875	29242
811.016	29094
811.158	29193
811.299	29337
811.441	29429
811.582	29265
811.724	29292
811.865	29178
812.007	29174
812.148	29269
812.29	29372
812.431	29467
812.573	29600
812.714	29657
812.855	29775
812.997	29737
813.138	29935
813.279	29775
813.421	29824
813.562	29821
813.703	29687
813.845	29539
813.986	29345
814.127	28900
814.268	28858
814.41	28900
814.551	28904
814.692	28976
814.833	28881
814.974	29006
815.115	28915
815.256	28835
815.397	28915
815.539	28729
815.68	28755
815.821	28637
815.962	28725
816.103	28626
816.244	28538
816.385	28512
816.526	28630
816.666	28421
816.807	28261
816.948	28306
817.089	28303
817.23	28268
817.371	28204
817.512	28116
817.653	27998
817.793	28063
817.934	28287
818.075	28356
818.216	28215
818.356	28185
818.497	28097
818.638	27911
818.778	28078
818.919	28032
819.06	27975
819.2	28124
819.341	28280
819.481	28348
819.622	28504
819.762	28557
819.903	28561
820.043	28459
820.184	28371
820.324	28394
820.465	28413
820.605	28401
820.746	28367
820.886	28314
821.026	28249
821.167	28284
821.307	28363
821.447	28360
821.588	28070
821.728	28021
821.868	27937
822.008	27846
822.149	27838
822.289	27694
822.429	27610
822.569	27317
822.709	27336
822.849	27222
822.99	27222
823.13	27203
823.27	27199
823.41	27119
823.55	26921
823.69	27127
823.83	27077
823.97	27005
824.11	26956
824.25	26853
824.389	26918
824.529	27024
824.669	26880
824.809	26963
824.949	27024
825.089	26925
825.228	26982
825.368	26792
825.508	26727
825.648	26739
825.787	26811
825.927	26834
826.067	26777
826.206	26883
826.346	26864
826.485	26937
826.625	26773
826.765	26902
826.904	26872
827.044	26530
827.183	26598
827.323	26450
827.462	26590
827.601	26568
827.741	26465
827.88	26530
828.02	26476
828.159	26457
828.298	26427
828.437	26457
828.577	26362
828.716	26617
828.855	26396
828.994	26313
829.134	26149
829.273	26221
829.412	26088
829.551	26092
829.69	26164
829.829	26244
829.968	26332
830.107	26301
830.246	26027
830.385	26134
830.524	26218
830.663	26065
830.802	25913
830.941	25921
831.08	25799
831.219	25894
831.357	25761
831.496	26001
831.635	25788
831.774	25666
831.913	25723
832.051	25624
832.19	25578
832.329	25533
832.467	25495
832.606	25358
832.744	25464
832.883	25464
833.022	25464
833.16	25381
833.299	25518
833.437	25487
833.576	25609
833.714	25605
833.852	25567
833.991	25586
834.129	25601
834.267	25559
834.406	25453
834.544	25483
834.682	25559
834.821	25559
834.959	25620
835.097	25487
835.235	25582
835.373	25457
835.511	25426
835.65	25407
835.788	25476
835.926	25343
836.064	25225
836.202	25221
836.34	25297
836.478	25483
836.615	25285
836.753	25381
836.891	25354
837.029	25476
837.167	25362
837.305	25282
837.443	25339
837.58	25225
837.718	25316
837.856	25171
837.993	25038
838.131	25061
838.269	24977
838.406	25034
838.544	25050
838.681	24779
838.819	24844
838.956	24730
839.094	24620
839.231	24646
839.369	24833
839.506	25175
839.643	24833
839.781	24738
839.918	24555
840.055	24684
840.193	24585
840.33	24646
840.467	24559
840.604	24696
840.742	24795
840.879	24338
841.016	24467
841.153	24509
841.29	24593
841.427	24433
841.564	24566
841.701	24642
841.838	24445
841.975	24399
842.112	24494
842.249	24407
842.385	24399
842.522	24517
842.659	24361
842.796	24277
842.933	24289
843.069	24338
843.206	24220
843.343	24429
843.479	24384
843.616	24292
843.752	24076
843.889	24079
844.025	24205
844.162	24041
844.298	24197
844.435	24194
844.571	24060
844.708	24015
844.844	24285
844.98	24228
845.117	24129
845.253	24045
845.389	23954
845.525	23874
845.661	23950
845.798	23767
845.934	23866
846.07	23878
846.206	23855
846.342	23904
846.478	23843
846.614	23691
846.75	23444
846.886	23509
847.022	23592
847.158	23520
847.294	23722
847.429	23630
847.565	23467
847.701	23775
847.837	23334
847.972	23273
848.108	23387
848.244	23265
848.379	23189
848.515	23121
848.65	23071
848.786	23200
848.921	23121
849.057	23204
849.192	23181
849.328	23250
849.463	23197
849.598	23022
849.734	22999
849.869	22908
850.004	22965
850.14	23079
850.275	22885
850.41	22866
850.545	22908
850.68	22927
850.815	22938
850.95	22938
851.085	23006
851.22	22953
851.355	22900
851.49	22908
851.625	22866
851.76	22850
851.895	22786
852.03	22847
852.165	22858
852.299	22938
852.434	23052
852.569	22987
852.703	22866
852.838	22908
852.973	23113
853.107	22881
853.242	22957
853.376	22771
853.511	22660
853.645	22679
853.78	22843
853.914	22793
854.048	22611
854.183	22687
854.317	22835
854.451	22854
854.585	22713
854.72	22706
854.854	22873
854.988	22797
855.122	22774
855.256	22592
855.39	22740
855.524	22782
855.658	22850
855.792	22790
855.926	22717
856.06	22748
856.194	22839
856.327	22786
856.461	22687
856.595	22721
856.729	22664
856.862	22919
856.996	22767
857.13	22805
857.263	22797
857.397	22828
857.53	22592
857.664	22850
857.797	22889
857.931	22809
858.064	22744
858.197	22843
858.331	22611
858.464	22542
858.597	22675
858.731	22634
858.864	22641
858.997	22672
859.13	22641
859.263	22744
859.396	22786
859.529	22683
859.662	22698
859.795	22706
859.928	22725
860.061	22797
860.194	22915
860.327	22710
860.46	22877
860.592	22862
860.725	22904
860.858	22767
860.99	22630
861.123	22577
861.256	22672
861.388	22828
861.521	23417
861.653	22577
861.786	22607
861.918	22531
862.05	22561
862.183	22554
862.315	22717
862.447	22771
862.58	22615
862.712	22379
862.844	22428
862.976	22523
863.108	22440
863.24	22919
863.372	22318
863.504	22443
863.636	22436
863.768	22504
863.9	22409
864.032	22329
864.164	22348
864.296	22443
864.428	22569
864.559	22459
864.691	22497
864.823	22421
864.954	22360
865.086	22356
865.217	22306
865.349	22249
865.48	22322
865.612	22276
865.743	22421
865.875	22413
866.006	22261
866.137	22265
866.269	22386
866.4	22280
866.531	22257
866.662	22325
866.793	22314
866.924	22379
867.055	22200
867.186	22230
867.317	22226
867.448	22147
867.579	22249
867.71	22246
867.841	22166
867.972	22284
868.103	22082
868.233	22234
868.364	22192
868.495	22348
868.625	22344
868.756	22584
868.886	22348
869.017	22554
869.147	22531
869.278	22573
869.408	22569
869.539	22394
869.669	22535
869.799	22485
869.929	22478
870.06	22561
870.19	22755
870.32	22752
870.45	22790
870.58	22771
870.71	22896
870.84	22877
870.97	22790
871.1	22858
871.23	23010
871.36	23075
871.489	23090
871.619	23006
871.749	23094
871.879	23170
872.008	23113
872.138	23128
872.267	23010
872.397	22991
872.526	22869
872.656	23025
872.785	22824
872.915	23037
873.044	23178
873.173	23064
873.303	23037
873.432	23147
873.561	23299
873.69	23121
873.819	22976
873.948	23136
874.077	23071
874.206	23094
874.335	23067
874.464	23189
874.593	23406
874.722	23200
874.851	23326
874.979	23440
875.108	23307
875.237	23315
875.365	23227
875.494	23364
875.623	23372
875.751	23170
875.88	23330
876.008	23334
876.136	23539
876.265	23684
876.393	23859
876.521	23752
876.65	23783
876.778	23649
876.906	23691
877.034	23585
877.162	23699
877.29	23448
877.418	23623
877.546	23531
877.674	23676
877.802	23615
877.93	23570
878.058	23471
878.185	23436
878.313	23676
878.441	23604
878.568	23501
878.696	23478
878.824	23691
878.951	23684
879.079	23843
879.206	23904
879.333	23729
879.461	23623
879.588	23885
879.715	23714
879.842	23946
879.97	23657
880.097	23452
880.224	23512
880.351	23425
880.478	23398
880.605	23372
880.732	23493
880.859	23748
880.986	23482
881.112	23414
881.239	23284
881.366	23296
881.493	23117
881.619	23006
881.746	23033
881.872	23060
881.999	22934
882.125	23086
882.252	22923
882.378	22911
882.505	23147
882.631	22843
882.757	22771
882.883	22729
883.01	22740
883.136	22748
883.262	22523
883.388	22577
883.514	22645
883.64	22687
883.766	22660
883.892	22481
884.018	22493
884.143	22706
884.269	22649
884.395	22367
884.52	22303
884.646	22386
884.772	22284
884.897	22204
885.023	22291
885.148	22363
885.274	22447
885.399	22303
885.524	22375
885.65	22360
885.775	22398
885.9	22322
886.025	22428
886.15	22493
886.275	22276
886.4	22211
886.525	22310
886.65	22295
886.775	22215
886.9	22417
887.025	22390
887.149	22265
887.274	22063
887.399	22150
887.523	22074
887.648	22082
887.773	21987
887.897	22029
888.021	22147
888.146	21930
888.27	22078
888.395	22135
888.519	22082
888.643	22093
888.767	22044
888.891	21918
889.015	21994
889.139	21994
889.263	21960
889.387	21941
889.511	22070
889.635	22048
889.759	21842
889.883	21873
890.006	21869
890.13	21945
890.254	21675
890.377	21800
890.501	21641
890.624	21622
890.748	21682
890.871	21519
890.995	21416
891.118	21306
891.241	21439
891.364	21408
891.488	21450
891.611	21481
891.734	21370
891.857	21599
891.98	21416
892.103	21447
892.226	21416
892.349	21317
892.471	21192
892.594	21294
892.717	21405
892.839	21264
892.962	21222
893.085	21348
893.207	21165
893.33	21211
893.452	21184
893.575	21268
893.697	21256
893.819	21447
893.941	21447
894.064	21370
894.186	21249
894.308	21279
894.43	21363
894.552	21515
894.674	21420
894.796	21211
894.918	21180
895.04	21203
895.161	21416
895.283	21302
895.405	21264
895.526	21176
895.648	21218
895.769	21245
895.891	21431
896.012	21344
896.134	21298
896.255	21249
896.376	21123
896.498	21370
896.619	21317
896.74	21138
896.861	21386
896.982	21606
897.103	21652
897.224	21542
897.345	21428
897.466	21496
897.587	21504
897.708	21553
897.828	21397
897.949	21439
898.07	21294
898.19	21393
898.311	21450
898.431	21431
898.552	21447
898.672	21393
898.792	21542
898.913	21553
899.033	21370
899.153	21272
899.273	21051
899.393	21165
899.513	21283
899.633	21199
899.753	21329
899.873	21138
899.993	21188
900.113	21135
900.232	21142
900.352	21127
900.472	20941
900.591	20906
900.711	20880
900.83	20895
900.95	21085
901.069	20986
901.189	20845
901.308	20663
901.427	20541
901.546	20484
901.665	20442
901.784	20484
901.904	20419
902.023	20339
902.141	20043
902.26	20039
902.379	20088
902.498	20050
902.617	20020
902.735	20096
902.854	19925
902.973	19887
903.091	19742
903.21	19696
903.328	19597
903.446	19567
903.565	19464
903.683	19453
903.801	19293
903.919	19464
904.038	19362
904.156	19198
904.274	19198
904.392	19373
904.51	19084
904.627	19183
904.745	19228
904.863	19194
904.981	19160
905.098	18871
905.216	18913
905.334	18897
905.451	18996
905.569	18810
905.686	18947
905.803	18977
905.921	18715
906.038	18787
906.155	18745
906.272	18570
906.389	18677
906.506	18479
906.623	18441
906.74	18521
906.857	18308
906.974	18338
907.091	18460
907.208	18585
907.324	18365
907.441	18220
907.557	18167
907.674	18125
907.79	18235
907.907	18148
908.023	18060
908.139	18155
908.256	18121
908.372	17992
908.488	18121
908.604	17843
908.72	17882
908.836	17878
908.952	17802
909.068	17840
909.184	18015
909.3	17790
909.415	17889
909.531	17882
909.647	17570
909.762	17611
909.878	17505
909.993	17547
910.108	17596
910.224	17299
910.339	17406
910.454	17341
910.57	17280
910.685	17318
910.8	17467
910.915	17425
911.03	17288
911.145	17162
911.259	17113
911.374	17060
911.489	17105
911.604	17045
911.718	16828
911.833	16942
911.947	16763
912.062	16675
912.176	16889
912.291	16881
912.405	16854
912.519	17105
912.633	17041
912.748	16957
912.862	16847
912.976	16778
913.09	16527
913.204	16634
913.318	16645
913.431	16717
913.545	16710
913.659	16812
913.772	16672
913.886	16481
914	16398
914.113	16622
914.226	16599
914.34	16474
914.453	16341
914.566	16478
914.68	16238
914.793	16295
914.906	16173
915.019	15930
915.132	15915
915.245	15960
915.358	16124
915.47	15968
915.583	15972
915.696	16010
915.809	16055
915.921	16120
916.034	15850
916.146	15903
916.259	15911
916.371	15983
916.483	15888
916.595	15960
916.708	15778
916.82	15819
916.932	15743
917.044	15701
917.156	15739
917.268	15732
917.38	15705
917.491	15633
917.603	15595
917.715	15679
917.826	15614
917.938	15549
918.049	15538
918.161	15667
918.272	15686
918.384	15675
918.495	15553
918.606	15435
918.717	15313
918.828	15386
918.939	15408
919.05	15344
919.161	15382
919.272	15188
919.383	15169
919.494	15469
919.604	15557
919.715	15393
919.826	15233
919.936	15332
920.047	15439
920.157	15306
920.267	15549
920.378	15355
920.488	15310
920.598	15439
920.708	15663
920.818	15485
920.928	15447
921.038	15599
921.148	15587
921.258	15260
921.368	15142
921.477	15097
921.587	15173
921.697	14864
921.806	14994
921.916	14956
922.025	14777
922.134	14857
922.244	14571
922.353	14743
922.462	14522
922.571	14621
922.68	14358
922.789	14320
922.898	14393
923.007	14271
923.116	14393
923.224	14355
923.333	14317
923.442	14229
923.55	14161
923.659	14149
923.767	14267
923.876	14100
923.984	14225
924.092	14161
924.201	14008
924.309	14069
924.417	14035
924.525	14081
924.633	13944
924.741	14895
924.849	13868
924.956	13894
925.064	13704
925.172	13662
925.279	13670
925.387	13719
925.494	13772
925.602	13928
925.709	13818
925.816	13590
925.924	13696
926.031	13742
926.138	13582
926.245	13632
926.352	13605
926.459	13681
926.566	13674
926.673	13624
926.779	13476
926.886	13491
926.993	13324
927.099	13304
927.206	13289
927.312	13228
927.419	13316
927.525	13278
927.631	13422
927.737	13149
927.843	13019
927.95	13031
928.056	13034
928.162	13034
928.267	13114
928.373	13681
928.479	13038
928.585	12890
928.69	13053
928.796	13038
928.901	13019
929.007	12783
929.112	12935
929.218	12856
929.323	12810
929.428	12741
929.533	12859
929.638	12711
929.743	12696
929.848	12833
929.953	12741
930.058	12639
930.163	12388
930.267	12437
930.372	12513
930.477	12346
930.581	12608
930.685	12525
930.79	12285
930.894	12350
930.998	12311
931.103	12441
931.207	12144
931.311	12011
931.415	11878
931.519	11684
931.623	11642
