Data from test_V78500241_1696.txt Node
Date: Fri Mar 25 15:53:32 CST 2022
User: usil
Spectrometer: V785-0024
Trigger mode: 0
Integration Time (sec): 4.000000E-1
Scans to average: 1
Nonlinearity correction enabled: false
Boxcar width: 0
Storing dark spectrum: false
XAxis mode: Wavelengths
Number of Pixels in Spectrum: 1024
>>>>>Begin Spectral Data<<<<<
801.071	28048
801.214	28036
801.356	27983
801.499	27789
801.641	27622
801.783	27701
801.926	27595
802.068	27561
802.211	27610
802.353	27488
802.496	27374
802.638	27408
802.78	27180
802.923	27275
803.065	27268
803.208	27241
803.35	27275
803.492	27420
803.635	27439
803.777	27291
803.919	27389
804.061	27819
804.204	27629
804.346	27553
804.488	27473
804.63	27473
804.773	27481
804.915	27587
805.057	27739
805.199	27466
805.341	27412
805.483	27644
805.626	27637
805.768	27591
805.91	27671
806.052	27743
806.194	27648
806.336	27797
806.478	27614
806.62	27732
806.762	27785
806.904	27899
807.046	28105
807.188	28013
807.33	27922
807.472	28135
807.614	27949
807.756	28059
807.898	28013
808.04	27880
808.182	27747
808.324	27861
808.465	27903
808.607	28082
808.749	28306
808.891	28379
809.033	28474
809.174	28390
809.316	28249
809.458	28185
809.6	28238
809.741	28386
809.883	28531
810.025	28577
810.166	28622
810.308	28637
810.45	28428
810.591	28474
810.733	28246
810.875	28246
811.016	28128
811.158	28090
811.299	28432
811.441	28497
811.582	28379
811.724	28150
811.865	28249
812.007	28261
812.148	28352
812.29	28257
812.431	28459
812.573	28569
812.714	28706
812.855	28786
812.997	28908
813.138	28999
813.279	28999
813.421	28820
813.562	28835
813.703	28584
813.845	28489
813.986	28253
814.127	28116
814.268	28025
814.41	28029
814.551	27956
814.692	28025
814.833	27964
814.974	27956
815.115	27937
815.256	27930
815.397	27778
815.539	27888
815.68	27892
815.821	27679
815.962	27701
816.103	27789
816.244	27675
816.385	27530
816.526	27583
816.666	27511
816.807	27294
816.948	27359
817.089	27317
817.23	27252
817.371	27389
817.512	27310
817.653	27176
817.793	27291
817.934	27283
818.075	27302
818.216	27424
818.356	27127
818.497	27176
818.638	26967
818.778	26971
818.919	27047
819.06	27074
819.2	27230
819.341	27169
819.481	27264
819.622	27408
819.762	27583
819.903	27477
820.043	27420
820.184	27287
820.324	27329
820.465	27523
820.605	27382
820.746	27279
820.886	27302
821.026	27336
821.167	27359
821.307	27386
821.447	27165
821.588	27199
821.728	27051
821.868	26937
822.008	26785
822.149	26845
822.289	26663
822.429	26571
822.569	26309
822.709	26457
822.849	26244
822.99	26389
823.13	26180
823.27	26244
823.41	26062
823.55	25928
823.69	26096
823.83	25951
823.97	26027
824.11	25982
824.25	25837
824.389	25894
824.529	25932
824.669	25909
824.809	25966
824.949	26001
825.089	25978
825.228	25993
825.368	25677
825.508	25689
825.648	25780
825.787	25871
825.927	25742
826.067	25765
826.206	25700
826.346	25909
826.485	25746
826.625	25803
826.765	25803
826.904	25765
827.044	25502
827.183	25563
827.323	25400
827.462	25582
827.601	25434
827.741	25438
827.88	25400
828.02	25426
828.159	25426
828.298	25571
828.437	25510
828.577	25521
828.716	25567
828.855	25479
828.994	25209
829.134	25179
829.273	25194
829.412	25076
829.551	25065
829.69	25061
829.829	25251
829.968	25209
830.107	25137
830.246	25050
830.385	25076
830.524	25076
830.663	24970
830.802	24878
830.941	24791
831.08	24738
831.219	24894
831.357	24897
831.496	25008
831.635	24635
831.774	24772
831.913	24601
832.051	24494
832.19	24623
832.329	24585
832.467	24464
832.606	24441
832.744	24403
832.883	24380
833.022	24327
833.16	24460
833.299	24448
833.437	24464
833.576	24498
833.714	24315
833.852	24498
833.991	24612
834.129	24616
834.267	24585
834.406	24467
834.544	24490
834.682	24597
834.821	24650
834.959	24707
835.097	24418
835.235	24559
835.373	24426
835.511	24475
835.65	24403
835.788	24399
835.926	24270
836.064	24243
836.202	24045
836.34	24319
836.478	24437
836.615	24270
836.753	24399
836.891	24391
837.029	24285
837.167	24456
837.305	24174
837.443	24091
837.58	24254
837.718	24251
837.856	24247
837.993	24030
838.131	24155
838.269	23992
838.406	24041
838.544	24079
838.681	23710
838.819	23843
838.956	23661
839.094	23707
839.231	23691
839.369	23783
839.506	24057
839.643	23870
839.781	23680
839.918	23623
840.055	23668
840.193	23615
840.33	23493
840.467	23512
840.604	23665
840.742	23687
840.879	23490
841.016	23402
841.153	23440
841.29	23718
841.427	23402
841.564	23429
841.701	23455
841.838	23452
841.975	23417
842.112	23421
842.249	23383
842.385	23269
842.522	23554
842.659	23280
842.796	23299
842.933	23280
843.069	23246
843.206	23162
843.343	23417
843.479	23337
843.616	23315
843.752	23086
843.889	23105
844.025	23235
844.162	23060
844.298	23064
844.435	23014
844.571	22987
844.708	23003
844.844	23121
844.98	23212
845.117	23155
845.253	23010
845.389	22850
845.525	23052
845.661	22858
845.798	22869
845.934	22828
846.07	22759
846.206	22774
846.342	22885
846.478	22672
846.614	22615
846.75	22348
846.886	22565
847.022	22538
847.158	22561
847.294	22489
847.429	22481
847.565	22379
847.701	22755
847.837	22314
847.972	22207
848.108	22147
848.244	22363
848.379	22192
848.515	22188
848.65	21991
848.786	22070
848.921	22120
849.057	22204
849.192	22219
849.328	22090
849.463	22200
849.598	22059
849.734	22044
849.869	22013
850.004	21903
850.14	21918
850.275	21949
850.41	21728
850.545	21945
850.68	21781
850.815	21907
850.95	21918
851.085	21949
851.22	21998
851.355	21903
851.49	21892
851.625	21720
851.76	21907
851.895	21766
852.03	21694
852.165	21934
852.299	21911
852.434	21918
852.569	21808
852.703	21854
852.838	21987
852.973	21903
853.107	22025
853.242	21838
853.376	21682
853.511	21625
853.645	21701
853.78	21762
853.914	21682
854.048	21709
854.183	21739
854.317	21709
854.451	22029
854.585	21576
854.72	21739
854.854	21778
854.988	21785
855.122	21671
855.256	21488
855.39	21724
855.524	21831
855.658	21698
855.792	21797
855.926	21694
856.06	21694
856.194	21819
856.327	21671
856.461	21580
856.595	21591
856.729	21629
856.862	21785
856.996	21728
857.13	21728
857.263	21797
857.397	21675
857.53	21633
857.664	21720
857.797	21667
857.931	21694
858.064	21785
858.197	21732
858.331	21656
858.464	21720
858.597	21606
858.731	21614
858.864	21538
858.997	21583
859.13	21755
859.263	21694
859.396	21804
859.529	21709
859.662	21644
859.795	21701
859.928	21625
860.061	21880
860.194	21934
860.327	21762
860.46	21816
860.592	21880
860.725	21926
860.858	21888
860.99	21690
861.123	21580
861.256	21682
861.388	21732
861.521	22466
861.653	21561
861.786	21603
861.918	21564
862.05	21561
862.183	21633
862.315	21553
862.447	21667
862.58	21591
862.712	21401
862.844	21359
862.976	21481
863.108	21412
863.24	21793
863.372	21450
863.504	21424
863.636	21294
863.768	21466
863.9	21534
864.032	21344
864.164	21348
864.296	21393
864.428	21534
864.559	21458
864.691	21504
864.823	21408
864.954	21439
865.086	21363
865.217	21287
865.349	21203
865.48	21157
865.612	21222
865.743	21306
865.875	21188
866.006	21310
866.137	21252
866.269	21283
866.4	21302
866.531	21256
866.662	21230
866.793	21233
866.924	21184
867.055	21283
867.186	21222
867.317	21173
867.448	21081
867.579	21355
867.71	21066
867.841	21203
867.972	21241
868.103	21173
868.233	21260
868.364	21165
868.495	21367
868.625	21519
868.756	21663
868.886	21408
869.017	21561
869.147	21504
869.278	21720
869.408	21519
869.539	21526
869.669	21519
869.799	21629
869.929	21485
870.06	21606
870.19	21808
870.32	21709
870.45	21789
870.58	21823
870.71	22010
870.84	22002
870.97	21888
871.1	21915
871.23	22158
871.36	22086
871.489	21979
871.619	22067
871.749	21998
871.879	22040
872.008	22242
872.138	22093
872.267	22086
872.397	21991
872.526	21850
872.656	21987
872.785	21956
872.915	22120
873.044	22192
873.173	22188
873.303	22063
873.432	22013
873.561	22204
873.69	22150
873.819	22067
873.948	22131
874.077	22204
874.206	22109
874.335	22010
874.464	22226
874.593	22257
874.722	22325
874.851	22287
874.979	22280
875.108	22303
875.237	22291
875.365	22150
875.494	22291
875.623	22284
875.751	22367
875.88	22440
876.008	22436
876.136	22519
876.265	22649
876.393	22752
876.521	22904
876.65	22664
876.778	22694
876.906	22656
877.034	22512
877.162	22634
877.29	22649
877.418	22702
877.546	22637
877.674	22641
877.802	22713
877.93	22656
878.058	22687
878.185	22512
878.313	22535
878.441	22729
878.568	22382
878.696	22630
878.824	22672
878.951	22725
879.079	22858
879.206	22896
879.333	22877
879.461	22752
879.588	22736
879.715	22786
879.842	22946
879.97	22755
880.097	22485
880.224	22546
880.351	22615
880.478	22386
880.605	22390
880.732	22531
880.859	22691
880.986	22424
881.112	22542
881.239	22451
881.366	22185
881.493	22112
881.619	22059
881.746	22135
881.872	22063
881.999	22055
882.125	21968
882.252	22078
882.378	22135
882.505	22116
882.631	21915
882.757	21953
882.883	21800
883.01	21785
883.136	21766
883.262	21633
883.388	21595
883.514	21720
883.64	21724
883.766	21614
883.892	21576
884.018	21450
884.143	21614
884.269	21717
884.395	21481
884.52	21439
884.646	21374
884.772	21279
884.897	21348
885.023	21348
885.148	21458
885.274	21587
885.399	21492
885.524	21393
885.65	21386
885.775	21462
885.9	21348
886.025	21397
886.15	21466
886.275	21443
886.4	21252
886.525	21351
886.65	21294
886.775	21222
886.9	21424
887.025	21583
887.149	21405
887.274	21237
887.399	21188
887.523	21077
887.648	21169
887.773	20933
887.897	21268
888.021	21203
888.146	21119
888.27	21192
888.395	21230
888.519	21154
888.643	21062
888.767	21123
888.891	21017
889.015	20956
889.139	20998
889.263	20982
889.387	21009
889.511	21154
889.635	21089
889.759	20899
889.883	21100
890.006	20967
890.13	20975
890.254	20925
890.377	20887
890.501	20606
890.624	20579
890.748	20720
890.871	20503
890.995	20511
891.118	20412
891.241	20552
891.364	20408
891.488	20686
891.611	20594
891.734	20400
891.857	20590
891.98	20507
892.103	20511
892.226	20556
892.349	20442
892.471	20305
892.594	20313
892.717	20362
892.839	20385
892.962	20473
893.085	20499
893.207	20457
893.33	20320
893.452	20362
893.575	20454
893.697	20358
893.819	20461
893.941	20609
894.064	20568
894.186	20309
894.308	20267
894.43	20473
894.552	20556
894.674	20617
894.796	20404
894.918	20404
895.04	20332
895.161	20461
895.283	20518
895.405	20290
895.526	20381
895.648	20438
895.769	20415
895.891	20461
896.012	20499
896.134	20473
896.255	20400
896.376	20438
896.498	20457
896.619	20332
896.74	20404
896.861	20446
896.982	20762
897.103	20864
897.224	20621
897.345	20636
897.466	20533
897.587	20537
897.708	20773
897.828	20701
897.949	20537
898.07	20568
898.19	20568
898.311	20659
898.431	20602
898.552	20514
898.672	20712
898.792	20632
898.913	20785
899.033	20556
899.153	20492
899.273	20317
899.393	20324
899.513	20385
899.633	20336
899.753	20389
899.873	20256
899.993	20511
900.113	20347
900.232	20374
900.352	20248
900.472	20134
900.591	20069
900.711	20191
900.83	20062
900.95	20275
901.069	20199
901.189	20001
901.308	19906
901.427	19769
901.546	19704
901.665	19742
901.784	19674
901.904	19556
902.023	19548
902.141	19320
902.26	19194
902.379	19392
902.498	19171
902.617	19141
902.735	19301
902.854	19213
902.973	19107
903.091	18875
903.21	18966
903.328	18913
903.446	18840
903.565	18776
903.683	18867
903.801	18593
903.919	18661
904.038	18582
904.156	18570
904.274	18498
904.392	18437
904.51	18369
904.627	18528
904.745	18551
904.863	18441
904.981	18262
905.098	18083
905.216	18152
905.334	18213
905.451	18087
905.569	18076
905.686	18159
905.803	18163
905.921	17836
906.038	18034
906.155	18034
906.272	17889
906.389	17866
906.506	17726
906.623	17627
906.74	17630
906.857	17573
906.974	17570
907.091	17726
907.208	17824
907.324	17630
907.441	17566
907.557	17341
907.674	17467
907.79	17311
907.907	17288
908.023	17383
908.139	17429
908.256	17345
908.372	17334
908.488	17273
908.604	17109
908.72	17094
908.836	17121
908.952	17136
909.068	17239
909.184	17284
909.3	17086
909.415	17079
909.531	17037
909.647	16930
909.762	16774
909.878	16786
909.993	16755
910.108	16831
910.224	16793
910.339	16771
910.454	16577
910.57	16656
910.685	16531
910.8	16904
910.915	16744
911.03	16546
911.145	16470
911.259	16440
911.374	16386
911.489	16265
911.604	16310
911.718	16192
911.833	16147
911.947	16032
912.062	16017
912.176	16059
912.291	16143
912.405	16010
912.519	16310
912.633	16306
912.748	16242
912.862	16135
912.976	16029
913.09	15857
913.204	15812
913.318	15983
913.431	16021
913.545	16055
913.659	16036
913.772	15816
913.886	15766
914	15816
914.113	15819
914.226	15812
914.34	15785
914.453	15736
914.566	15778
914.68	15603
914.793	15576
914.906	15458
915.019	15370
915.132	15283
915.245	15302
915.358	15332
915.47	15321
915.583	15310
915.696	15348
915.809	15389
915.921	15526
916.034	15298
916.146	15252
916.259	15199
916.371	15233
916.483	15313
916.595	15077
916.708	15108
916.82	15211
916.932	15074
917.044	15074
917.156	15195
917.268	15017
917.38	14967
917.491	14925
917.603	14952
917.715	15116
917.826	15051
917.938	14971
918.049	14941
918.161	14910
918.272	15024
918.384	15024
918.495	14998
918.606	14815
918.717	14625
918.828	14712
918.939	14777
919.05	14621
919.161	14678
919.272	14552
919.383	14613
919.494	14815
919.604	15028
919.715	14731
919.826	14610
919.936	14670
920.047	14788
920.157	14754
920.267	14864
920.378	14746
920.488	14583
920.598	14918
920.708	15070
920.818	14811
920.928	14861
921.038	14960
921.148	14925
921.258	14644
921.368	14556
921.477	14358
921.587	14438
921.697	14347
921.806	14541
921.916	14294
922.025	14062
922.134	14107
922.244	14039
922.353	14111
922.462	13936
922.571	13963
922.68	13696
922.789	13689
922.898	13677
923.007	13658
923.116	13795
923.224	13674
923.333	13681
923.442	13605
923.55	13521
923.659	13567
923.767	13571
923.876	13499
923.984	13460
924.092	13362
924.201	13540
924.309	13362
924.417	13365
924.525	13426
924.633	13411
924.741	14149
924.849	13206
924.956	13381
925.064	13209
925.172	13061
925.279	13137
925.387	13133
925.494	13164
925.602	13209
925.709	13133
925.816	13103
925.924	13107
926.031	13179
926.138	13088
926.245	13107
926.352	13023
926.459	13095
926.566	13179
926.673	13012
926.779	12833
926.886	12894
926.993	12646
927.099	12768
927.206	12665
927.312	12585
927.419	12760
927.525	12616
927.631	12711
927.737	12563
927.843	12490
927.95	12376
928.056	12525
928.162	12506
928.267	12540
928.373	13190
928.479	12604
928.585	12384
928.69	12502
928.796	12517
928.901	12342
929.007	12209
929.112	12414
929.218	12376
929.323	12243
929.428	12232
929.533	12372
929.638	12091
929.743	12194
929.848	12266
929.953	12125
930.058	12015
930.163	11973
930.267	11878
930.372	12083
930.477	11882
930.581	12110
930.685	11908
930.79	11779
930.894	11809
930.998	11832
931.103	11912
931.207	11543
931.311	11444
931.415	11387
931.519	11155
931.623	11178
