Data from test_V78500241_1575.txt Node
Date: Fri Mar 25 15:52:42 CST 2022
User: usil
Spectrometer: V785-0024
Trigger mode: 0
Integration Time (sec): 4.000000E-1
Scans to average: 1
Nonlinearity correction enabled: false
Boxcar width: 0
Storing dark spectrum: false
XAxis mode: Wavelengths
Number of Pixels in Spectrum: 1024
>>>>>Begin Spectral Data<<<<<
801.071	28044
801.214	28116
801.356	27838
801.499	27781
801.641	27606
801.783	27747
801.926	27732
802.068	27629
802.211	27568
802.353	27488
802.496	27401
802.638	27370
802.78	27241
802.923	27207
803.065	27066
803.208	27279
803.35	27355
803.492	27496
803.635	27580
803.777	27340
803.919	27595
804.061	27819
804.204	27743
804.346	27477
804.488	27545
804.63	27576
804.773	27557
804.915	27542
805.057	27713
805.199	27622
805.341	27568
805.483	27759
805.626	27671
805.768	27667
805.91	27709
806.052	27762
806.194	27488
806.336	28070
806.478	27713
806.62	27713
806.762	27884
806.904	28002
807.046	28284
807.188	28116
807.33	28196
807.472	28204
807.614	28067
807.756	28067
807.898	27972
808.04	27994
808.182	28036
808.324	28017
808.465	28036
808.607	28230
808.749	28299
808.891	28500
809.033	28451
809.174	28360
809.316	28436
809.458	28322
809.6	28440
809.741	28481
809.883	28500
810.025	28603
810.166	28733
810.308	28710
810.45	28691
810.591	28538
810.733	28462
810.875	28276
811.016	28234
811.158	28314
811.299	28421
811.441	28557
811.582	28360
811.724	28398
811.865	28238
812.007	28398
812.148	28303
812.29	28238
812.431	28573
812.573	28519
812.714	28843
812.855	28812
812.997	28858
813.138	29132
813.279	29052
813.421	28934
813.562	28938
813.703	28713
813.845	28626
813.986	28303
814.127	28287
814.268	28101
814.41	28109
814.551	28036
814.692	28067
814.833	27842
814.974	28036
815.115	27911
815.256	27857
815.397	27835
815.539	28036
815.68	27835
815.821	27797
815.962	27846
816.103	27797
816.244	27705
816.385	27477
816.526	27705
816.666	27492
816.807	27252
816.948	27367
817.089	27359
817.23	27408
817.371	27264
817.512	27378
817.653	27249
817.793	27291
817.934	27355
818.075	27340
818.216	27218
818.356	27310
818.497	27180
818.638	26986
818.778	27138
818.919	27131
819.06	27252
819.2	27310
819.341	27378
819.481	27317
819.622	27431
819.762	27732
819.903	27504
820.043	27663
820.184	27462
820.324	27606
820.465	27443
820.605	27485
820.746	27348
820.886	27336
821.026	27348
821.167	27466
821.307	27443
821.447	27405
821.588	27275
821.728	27192
821.868	26944
822.008	26872
822.149	26883
822.289	26788
822.429	26609
822.569	26476
822.709	26442
822.849	26278
822.99	26355
823.13	26377
823.27	26138
823.41	26142
823.55	26103
823.69	26134
823.83	26149
823.97	25997
824.11	26050
824.25	26039
824.389	25997
824.529	26020
824.669	25951
824.809	26157
824.949	26130
825.089	26084
825.228	26027
825.368	25928
825.508	25868
825.648	25940
825.787	25875
825.927	25879
826.067	25849
826.206	25864
826.346	25845
826.485	25936
826.625	25795
826.765	25978
826.904	25890
827.044	25556
827.183	25563
827.323	25491
827.462	25651
827.601	25529
827.741	25578
827.88	25575
828.02	25388
828.159	25506
828.298	25609
828.437	25495
828.577	25563
828.716	25632
828.855	25384
828.994	25282
829.134	25373
829.273	25396
829.412	25232
829.551	25274
829.69	25209
829.829	25213
829.968	25331
830.107	25202
830.246	25206
830.385	25179
830.524	25141
830.663	25065
830.802	24996
830.941	24783
831.08	24951
831.219	24966
831.357	25057
831.496	25168
831.635	24924
831.774	24920
831.913	24783
832.051	24677
832.19	24673
832.329	24623
832.467	24578
832.606	24502
832.744	24460
832.883	24521
833.022	24452
833.16	24551
833.299	24582
833.437	24555
833.576	24585
833.714	24642
833.852	24642
833.991	24635
834.129	24616
834.267	24734
834.406	24604
834.544	24559
834.682	24593
834.821	24555
834.959	24791
835.097	24498
835.235	24555
835.373	24616
835.511	24623
835.65	24426
835.788	24395
835.926	24361
836.064	24258
836.202	24254
836.34	24448
836.478	24490
836.615	24403
836.753	24410
836.891	24532
837.029	24342
837.167	24380
837.305	24281
837.443	24285
837.58	24251
837.718	24262
837.856	24289
837.993	24277
838.131	24292
838.269	24098
838.406	24235
838.544	24205
838.681	23863
838.819	23882
838.956	23843
839.094	23824
839.231	23741
839.369	23988
839.506	24106
839.643	23939
839.781	23608
839.918	23623
840.055	23783
840.193	23741
840.33	23707
840.467	23676
840.604	23771
840.742	23973
840.879	23509
841.016	23592
841.153	23528
841.29	23798
841.427	23638
841.564	23733
841.701	23596
841.838	23543
841.975	23505
842.112	23573
842.249	23573
842.385	23387
842.522	23630
842.659	23539
842.796	23482
842.933	23414
843.069	23425
843.206	23345
843.343	23417
843.479	23440
843.616	23391
843.752	23231
843.889	23151
844.025	23307
844.162	23136
844.298	23208
844.435	23109
844.571	23223
844.708	23239
844.844	23220
844.98	23315
845.117	23284
845.253	23044
845.389	23075
845.525	23094
845.661	23014
845.798	22862
845.934	22972
846.07	22953
846.206	23022
846.342	22984
846.478	22915
846.614	22691
846.75	22672
846.886	22527
847.022	22649
847.158	22687
847.294	22778
847.429	22649
847.565	22554
847.701	22755
847.837	22341
847.972	22363
848.108	22394
848.244	22428
848.379	22413
848.515	22265
848.65	22230
848.786	22207
848.921	22181
849.057	22261
849.192	22375
849.328	22249
849.463	22280
849.598	22268
849.734	21994
849.869	22097
850.004	21941
850.14	22044
850.275	22143
850.41	21930
850.545	21956
850.68	21972
850.815	22006
850.95	21994
851.085	22200
851.22	22032
851.355	21949
851.49	22070
851.625	21880
851.76	21884
851.895	21941
852.03	21994
852.165	22025
852.299	22070
852.434	22109
852.569	22025
852.703	22143
852.838	22086
852.973	22029
853.107	22147
853.242	21994
853.376	21861
853.511	21648
853.645	21819
853.78	21895
853.914	21819
854.048	21709
854.183	21873
854.317	21892
854.451	22048
854.585	21816
854.72	21880
854.854	21876
854.988	21755
855.122	21831
855.256	21709
855.39	21694
855.524	21884
855.658	21903
855.792	21713
855.926	21865
856.06	21861
856.194	21857
856.327	21926
856.461	21713
856.595	21694
856.729	21698
856.862	21876
856.996	21888
857.13	21812
857.263	21998
857.397	21892
857.53	21800
857.664	21922
857.797	21846
857.931	21846
858.064	21766
858.197	21903
858.331	21762
858.464	21819
858.597	21751
858.731	21854
858.864	21671
858.997	21812
859.13	21884
859.263	21846
859.396	21888
859.529	21770
859.662	21915
859.795	21797
859.928	21797
860.061	21930
860.194	22040
860.327	21804
860.46	21892
860.592	22002
860.725	21918
860.858	21895
860.99	21876
861.123	21774
861.256	21865
861.388	21755
861.521	22424
861.653	21610
861.786	21641
861.918	21671
862.05	21671
862.183	21652
862.315	21804
862.447	21739
862.58	21705
862.712	21576
862.844	21530
862.976	21694
863.108	21622
863.24	22029
863.372	21412
863.504	21572
863.636	21515
863.768	21561
863.9	21500
864.032	21576
864.164	21416
864.296	21450
864.428	21713
864.559	21675
864.691	21538
864.823	21439
864.954	21515
865.086	21523
865.217	21424
865.349	21447
865.48	21367
865.612	21431
865.743	21572
865.875	21492
866.006	21428
866.137	21454
866.269	21313
866.4	21393
866.531	21359
866.662	21374
866.793	21389
866.924	21439
867.055	21462
867.186	21344
867.317	21370
867.448	21264
867.579	21237
867.71	21332
867.841	21344
867.972	21355
868.103	21332
868.233	21378
868.364	21416
868.495	21454
868.625	21485
868.756	21625
868.886	21443
869.017	21580
869.147	21682
869.278	21759
869.408	21405
869.539	21576
869.669	21629
869.799	21660
869.929	21663
870.06	21755
870.19	21953
870.32	21949
870.45	21953
870.58	21869
870.71	22086
870.84	22116
870.97	21945
871.1	22006
871.23	22116
871.36	22223
871.489	21937
871.619	22150
871.749	22204
871.879	22177
872.008	22287
872.138	22226
872.267	22261
872.397	22120
872.526	21956
872.656	21934
872.785	21911
872.915	22226
873.044	22215
873.173	22219
873.303	22173
873.432	22226
873.561	22341
873.69	22268
873.819	22192
873.948	22230
874.077	22295
874.206	22120
874.335	22192
874.464	22150
874.593	22557
874.722	22341
874.851	22440
874.979	22470
875.108	22546
875.237	22451
875.365	22337
875.494	22325
875.623	22413
875.751	22344
875.88	22314
876.008	22649
876.136	22599
876.265	22816
876.393	22934
876.521	22782
876.65	22900
876.778	22850
876.906	22713
877.034	22733
877.162	22786
877.29	22641
877.418	22812
877.546	22805
877.674	22725
877.802	22862
877.93	22755
878.058	22774
878.185	22649
878.313	22748
878.441	22828
878.568	22550
878.696	22740
878.824	22809
878.951	22847
879.079	22854
879.206	23071
879.333	22991
879.461	22782
879.588	22843
879.715	22889
879.842	23052
879.97	22771
880.097	22637
880.224	22493
880.351	22687
880.478	22512
880.605	22512
880.732	22645
880.859	22793
880.986	22577
881.112	22546
881.239	22440
881.366	22329
881.493	22280
881.619	22185
881.746	22109
881.872	22238
881.999	22120
882.125	22238
882.252	22192
882.378	22139
882.505	22333
882.631	21922
882.757	21899
882.883	21922
883.01	21918
883.136	21876
883.262	21572
883.388	21667
883.514	21865
883.64	21778
883.766	21663
883.892	21561
884.018	21622
884.143	21770
884.269	21953
884.395	21462
884.52	21466
884.646	21504
884.772	21336
884.897	21351
885.023	21557
885.148	21595
885.274	21603
885.399	21603
885.524	21519
885.65	21526
885.775	21466
885.9	21454
886.025	21477
886.15	21504
886.275	21507
886.4	21355
886.525	21431
886.65	21428
886.775	21405
886.9	21580
887.025	21656
887.149	21389
887.274	21211
887.399	21203
887.523	21226
887.648	21192
887.773	21142
887.897	21233
888.021	21370
888.146	21256
888.27	21245
888.395	21233
888.519	21218
888.643	21287
888.767	21135
888.891	21176
889.015	20944
889.139	21176
889.263	20967
889.387	21154
889.511	21306
889.635	21233
889.759	21043
889.883	21009
890.006	21070
890.13	21138
890.254	20944
890.377	21062
890.501	20857
890.624	20796
890.748	20849
890.871	20720
890.995	20587
891.118	20632
891.241	20587
891.364	20617
891.488	20636
891.611	20632
891.734	20598
891.857	20575
891.98	20613
892.103	20560
892.226	20499
892.349	20625
892.471	20556
892.594	20560
892.717	20488
892.839	20393
892.962	20488
893.085	20511
893.207	20423
893.33	20454
893.452	20343
893.575	20625
893.697	20541
893.819	20731
893.941	20663
894.064	20667
894.186	20473
894.308	20450
894.43	20560
894.552	20678
894.674	20530
894.796	20358
894.918	20473
895.04	20461
895.161	20533
895.283	20495
895.405	20511
895.526	20442
895.648	20530
895.769	20492
895.891	20518
896.012	20617
896.134	20492
896.255	20465
896.376	20431
896.498	20434
896.619	20556
896.74	20393
896.861	20427
896.982	20857
897.103	21051
897.224	20762
897.345	20781
897.466	20788
897.587	20667
897.708	20895
897.828	20648
897.949	20689
898.07	20617
898.19	20602
898.311	20746
898.431	20689
898.552	20697
898.672	20689
898.792	20807
898.913	20705
899.033	20667
899.153	20469
899.273	20419
899.393	20522
899.513	20549
899.633	20454
899.753	20465
899.873	20545
899.993	20415
900.113	20309
900.232	20438
900.352	20324
900.472	20305
900.591	20164
900.711	20145
900.83	20278
900.95	20187
901.069	20233
901.189	20221
901.308	19830
901.427	19864
901.546	19947
901.665	19936
901.784	19799
901.904	19601
902.023	19548
902.141	19350
902.26	19350
902.379	19377
902.498	19312
902.617	19278
902.735	19266
902.854	19179
902.973	19099
903.091	18958
903.21	18867
903.328	18981
903.446	18878
903.565	18798
903.683	18764
903.801	18544
903.919	18688
904.038	18677
904.156	18585
904.274	18620
904.392	18566
904.51	18506
904.627	18460
904.745	18544
904.863	18604
904.981	18300
905.098	18232
905.216	18178
905.334	18315
905.451	18186
905.569	18091
905.686	18197
905.803	18117
905.921	17969
906.038	18114
906.155	18064
906.272	17882
906.389	17916
906.506	17676
906.623	17680
906.74	17722
906.857	17718
906.974	17627
907.091	17805
907.208	17802
907.324	17748
907.441	17619
907.557	17391
907.674	17440
907.79	17387
907.907	17345
908.023	17490
908.139	17383
908.256	17455
908.372	17372
908.488	17330
908.604	17261
908.72	17136
908.836	17216
908.952	17094
909.068	17124
909.184	17235
909.3	17178
909.415	17235
909.531	17083
909.647	16889
909.762	16843
909.878	16782
909.993	16869
910.108	16763
910.224	16911
910.339	16717
910.454	16801
910.57	16771
910.685	16542
910.8	16858
910.915	16835
911.03	16637
911.145	16573
911.259	16516
911.374	16440
911.489	16500
911.604	16398
911.718	16204
911.833	16246
911.947	16200
912.062	16124
912.176	16215
912.291	16158
912.405	16204
912.519	16348
912.633	16455
912.748	16272
912.862	16166
912.976	16025
913.09	15861
913.204	15975
913.318	15994
913.431	16143
913.545	15994
913.659	16048
913.772	16063
913.886	15838
914	15705
914.113	15930
914.226	15972
914.34	15861
914.453	15698
914.566	15922
914.68	15774
914.793	15728
914.906	15500
915.019	15428
915.132	15340
915.245	15336
915.358	15477
915.47	15466
915.583	15439
915.696	15431
915.809	15507
915.921	15542
916.034	15420
916.146	15370
916.259	15264
916.371	15424
916.483	15386
916.595	15272
916.708	15131
916.82	15203
916.932	15157
917.044	15157
917.156	15150
917.268	15066
917.38	15051
917.491	14971
917.603	15047
917.715	15211
917.826	15150
917.938	14994
918.049	14868
918.161	15074
918.272	15070
918.384	15112
918.495	14986
918.606	14937
918.717	14804
918.828	14933
918.939	14765
919.05	14689
919.161	14804
919.272	14514
919.383	14629
919.494	14823
919.604	15028
919.715	14739
919.826	14549
919.936	14746
920.047	14773
920.157	14861
920.267	14929
920.378	14724
920.488	14712
920.598	14956
920.708	15066
920.818	14895
920.928	14830
921.038	15074
921.148	15001
921.258	14762
921.368	14526
921.477	14549
921.587	14431
921.697	14442
921.806	14454
921.916	14336
922.025	14164
922.134	14062
922.244	14084
922.353	14142
922.462	13940
922.571	14024
922.68	13807
922.789	13780
922.898	13780
923.007	13708
923.116	13765
923.224	13788
923.333	13693
923.442	13575
923.55	13632
923.659	13693
923.767	13636
923.876	13575
923.984	13647
924.092	13594
924.201	13540
924.309	13521
924.417	13506
924.525	13460
924.633	13396
924.741	14366
924.849	13247
924.956	13445
925.064	13225
925.172	13152
925.279	13149
925.387	13194
925.494	13221
925.602	13365
925.709	13194
925.816	13015
925.924	13103
926.031	13225
926.138	13091
926.245	13171
926.352	12989
926.459	13225
926.566	13217
926.673	13057
926.779	12916
926.886	12913
926.993	12821
927.099	12863
927.206	12738
927.312	12646
927.419	12772
927.525	12631
927.631	12700
927.737	12673
927.843	12555
927.95	12540
928.056	12506
928.162	12498
928.267	12528
928.373	13198
928.479	12623
928.585	12334
928.69	12513
928.796	12517
928.901	12346
929.007	12285
929.112	12357
929.218	12300
929.323	12292
929.428	12258
929.533	12490
929.638	12098
929.743	12182
929.848	12304
929.953	12247
930.058	12079
930.163	11904
930.267	11992
930.372	12125
930.477	11992
930.581	12129
930.685	11988
930.79	11824
930.894	11889
930.998	11733
931.103	11901
931.207	11585
931.311	11493
931.415	11455
931.519	11254
931.623	11296
