Data from test_V78500241_1612.txt Node
Date: Fri Mar 25 15:52:58 CST 2022
User: usil
Spectrometer: V785-0024
Trigger mode: 0
Integration Time (sec): 4.000000E-1
Scans to average: 1
Nonlinearity correction enabled: false
Boxcar width: 0
Storing dark spectrum: false
XAxis mode: Wavelengths
Number of Pixels in Spectrum: 1024
>>>>>Begin Spectral Data<<<<<
801.071	28314
801.214	28105
801.356	27983
801.499	27964
801.641	27823
801.783	27838
801.926	28006
802.068	27785
802.211	27766
802.353	27747
802.496	27530
802.638	27526
802.78	27359
802.923	27663
803.065	27526
803.208	27458
803.35	27530
803.492	27667
803.635	27648
803.777	27736
803.919	27705
804.061	28070
804.204	27694
804.346	27694
804.488	27637
804.63	27953
804.773	27614
804.915	27911
805.057	27873
805.199	27793
805.341	27884
805.483	27831
805.626	27850
805.768	27804
805.91	27888
806.052	28017
806.194	27869
806.336	28101
806.478	27968
806.62	27854
806.762	28036
806.904	28143
807.046	28322
807.188	28329
807.33	28246
807.472	28333
807.614	28401
807.756	28162
807.898	28261
808.04	28158
808.182	28074
808.324	28185
808.465	28314
808.607	28474
808.749	28489
808.891	28634
809.033	28752
809.174	28771
809.316	28497
809.458	28569
809.6	28466
809.741	28656
809.883	28729
810.025	29067
810.166	28809
810.308	28949
810.45	28858
810.591	28733
810.733	28645
810.875	28573
811.016	28375
811.158	28424
811.299	28546
811.441	28683
811.582	28710
811.724	28607
811.865	28516
812.007	28421
812.148	28550
812.29	28660
812.431	28755
812.573	28892
812.714	29071
812.855	29033
812.997	29227
813.138	29391
813.279	29102
813.421	29185
813.562	29113
813.703	29014
813.845	28805
813.986	28470
814.127	28333
814.268	28253
814.41	28265
814.551	28181
814.692	28401
814.833	28101
814.974	28306
815.115	28147
815.256	28051
815.397	28185
815.539	28276
815.68	28036
815.821	27960
815.962	28044
816.103	28105
816.244	27964
816.385	27880
816.526	27679
816.666	27614
816.807	27553
816.948	27660
817.089	27724
817.23	27755
817.371	27785
817.512	27561
817.653	27545
817.793	27599
817.934	27591
818.075	27599
818.216	27561
818.356	27496
818.497	27382
818.638	27363
818.778	27329
818.919	27351
819.06	27466
819.2	27336
819.341	27549
819.481	27595
819.622	27637
819.762	27991
819.903	27865
820.043	27781
820.184	27614
820.324	27652
820.465	27838
820.605	27663
820.746	27804
820.886	27530
821.026	27770
821.167	27736
821.307	27641
821.447	27705
821.588	27633
821.728	27389
821.868	27355
822.008	27192
822.149	27058
822.289	27100
822.429	26727
822.569	26842
822.709	26636
822.849	26400
822.99	26476
823.13	26537
823.27	26465
823.41	26396
823.55	26263
823.69	26389
823.83	26476
823.97	26252
824.11	26176
824.25	26142
824.389	26229
824.529	26187
824.669	26069
824.809	26393
824.949	26305
825.089	26191
825.228	26351
825.368	26027
825.508	26031
825.648	26161
825.787	26126
825.927	26039
826.067	25951
826.206	26149
826.346	26176
826.485	26256
826.625	26024
826.765	26043
826.904	26043
827.044	25837
827.183	25898
827.323	25643
827.462	25712
827.601	25609
827.741	25708
827.88	25757
828.02	25696
828.159	25715
828.298	25799
828.437	25734
828.577	25864
828.716	25830
828.855	25670
828.994	25563
829.134	25468
829.273	25571
829.412	25441
829.551	25346
829.69	25567
829.829	25518
829.968	25533
830.107	25487
830.246	25495
830.385	25407
830.524	25350
830.663	25251
830.802	25126
830.941	25099
831.08	25118
831.219	25175
831.357	25103
831.496	25255
831.635	25084
831.774	24992
831.913	24989
832.051	24943
832.19	24886
832.329	24901
832.467	24882
832.606	24760
832.744	24700
832.883	24749
833.022	24719
833.16	24814
833.299	24760
833.437	24654
833.576	24795
833.714	24817
833.852	24840
833.991	24897
834.129	24932
834.267	24989
834.406	24821
834.544	24844
834.682	24833
834.821	24772
834.959	24840
835.097	24642
835.235	24764
835.373	24852
835.511	24707
835.65	24798
835.788	24688
835.926	24505
836.064	24467
836.202	24505
836.34	24703
836.478	24669
836.615	24585
836.753	24669
836.891	24700
837.029	24654
837.167	24532
837.305	24578
837.443	24502
837.58	24528
837.718	24528
837.856	24410
837.993	24407
838.131	24388
838.269	24418
838.406	24407
838.544	24315
838.681	24216
838.819	24087
838.956	23996
839.094	23988
839.231	23931
839.369	24133
839.506	24403
839.643	24174
839.781	24015
839.918	23916
840.055	23969
840.193	23939
840.33	23935
840.467	23901
840.604	23893
840.742	24125
840.879	23783
841.016	23760
841.153	23805
841.29	23961
841.427	23783
841.564	23912
841.701	23828
841.838	23687
841.975	23969
842.112	23741
842.249	23684
842.385	23566
842.522	23847
842.659	23592
842.796	23589
842.933	23596
843.069	23604
843.206	23570
843.343	23668
843.479	23627
843.616	23577
843.752	23368
843.889	23395
844.025	23436
844.162	23353
844.298	23372
844.435	23345
844.571	23383
844.708	23528
844.844	23562
844.98	23398
845.117	23349
845.253	23356
845.389	23303
845.525	23254
845.661	23204
845.798	23178
845.934	23033
846.07	23128
846.206	23220
846.342	23147
846.478	23098
846.614	22881
846.75	22698
846.886	22828
847.022	22873
847.158	22877
847.294	22774
847.429	22938
847.565	22923
847.701	22968
847.837	22668
847.972	22497
848.108	22748
848.244	22634
848.379	22489
848.515	22588
848.65	22360
848.786	22436
848.921	22565
849.057	22489
849.192	22497
849.328	22478
849.463	22394
849.598	22459
849.734	22333
849.869	22303
850.004	22226
850.14	22131
850.275	22200
850.41	22021
850.545	22124
850.68	22147
850.815	22112
850.95	22204
851.085	22443
851.22	22299
851.355	22173
851.49	22207
851.625	22124
851.76	22188
851.895	22131
852.03	22105
852.165	22207
852.299	22204
852.434	22306
852.569	22207
852.703	22192
852.838	22226
852.973	22322
853.107	22185
853.242	22268
853.376	21956
853.511	21892
853.645	21930
853.78	22265
853.914	22109
854.048	21884
854.183	22006
854.317	22131
854.451	22131
854.585	22051
854.72	21895
854.854	22059
854.988	21983
855.122	21895
855.256	21880
855.39	21991
855.524	22040
855.658	22074
855.792	21983
855.926	21983
856.06	22143
856.194	22116
856.327	22097
856.461	21930
856.595	22036
856.729	22017
856.862	22143
856.996	21949
857.13	21937
857.263	22040
857.397	22169
857.53	21979
857.664	22135
857.797	22044
857.931	22204
858.064	22017
858.197	22055
858.331	21964
858.464	21972
858.597	21903
858.731	21899
858.864	21926
858.997	21880
859.13	22002
859.263	22044
859.396	22078
859.529	21983
859.662	22044
859.795	21964
859.928	21998
860.061	22249
860.194	22177
860.327	22036
860.46	22029
860.592	22322
860.725	22238
860.858	22246
860.99	22002
861.123	21911
861.256	21937
861.388	22074
861.521	22721
861.653	21800
861.786	21869
861.918	21903
862.05	21842
862.183	21915
862.315	21892
862.447	21915
862.58	21857
862.712	21743
862.844	21705
862.976	21854
863.108	21835
863.24	22090
863.372	21660
863.504	21724
863.636	21679
863.768	21831
863.9	21671
864.032	21637
864.164	21519
864.296	21622
864.428	21785
864.559	21842
864.691	21747
864.823	21720
864.954	21648
865.086	21705
865.217	21496
865.349	21557
865.48	21641
865.612	21633
865.743	21739
865.875	21591
866.006	21576
866.137	21637
866.269	21603
866.4	21599
866.531	21660
866.662	21599
866.793	21477
866.924	21553
867.055	21580
867.186	21481
867.317	21591
867.448	21549
867.579	21393
867.71	21511
867.841	21370
867.972	21454
868.103	21523
868.233	21500
868.364	21549
868.495	21705
868.625	21732
868.756	21789
868.886	21709
869.017	21747
869.147	21816
869.278	21926
869.408	21823
869.539	21797
869.669	21819
869.799	21766
869.929	21941
870.06	21903
870.19	22105
870.32	22116
870.45	22070
870.58	22154
870.71	22303
870.84	22272
870.97	22044
871.1	22333
871.23	22322
871.36	22367
871.489	22246
871.619	22306
871.749	22284
871.879	22337
872.008	22424
872.138	22367
872.267	22246
872.397	22276
872.526	22249
872.656	22223
872.785	22181
872.915	22481
873.044	22413
873.173	22470
873.303	22546
873.432	22474
873.561	22504
873.69	22447
873.819	22382
873.948	22428
874.077	22451
874.206	22424
874.335	22440
874.464	22459
874.593	22702
874.722	22569
874.851	22725
874.979	22702
875.108	22596
875.237	22573
875.365	22611
875.494	22603
875.623	22573
875.751	22538
875.88	22683
876.008	22744
876.136	22778
876.265	23056
876.393	23105
876.521	22980
876.65	23094
876.778	22999
876.906	23044
877.034	22839
877.162	23003
877.29	22858
877.418	22866
877.546	22957
877.674	23025
877.802	22900
877.93	23014
878.058	22911
878.185	22828
878.313	22980
878.441	22968
878.568	22790
878.696	22793
878.824	22961
878.951	23018
879.079	23147
879.206	23227
879.333	23105
879.461	22908
879.588	23052
879.715	23006
879.842	23273
879.97	22885
880.097	22717
880.224	22812
880.351	22793
880.478	22835
880.605	22725
880.732	22641
880.859	22896
880.986	22805
881.112	22675
881.239	22634
881.366	22436
881.493	22497
881.619	22546
881.746	22402
881.872	22371
881.999	22341
882.125	22333
882.252	22459
882.378	22329
882.505	22497
882.631	22185
882.757	22150
882.883	22017
883.01	21968
883.136	21930
883.262	21869
883.388	21869
883.514	22002
883.64	22070
883.766	22013
883.892	21770
884.018	21827
884.143	21941
884.269	22124
884.395	21675
884.52	21663
884.646	21690
884.772	21656
884.897	21523
885.023	21652
885.148	21751
885.274	21831
885.399	21698
885.524	21698
885.65	21629
885.775	21587
885.9	21736
886.025	21800
886.15	21785
886.275	21583
886.4	21641
886.525	21667
886.65	21603
886.775	21500
886.9	21701
887.025	21918
887.149	21705
887.274	21538
887.399	21443
887.523	21450
887.648	21447
887.773	21298
887.897	21477
888.021	21431
888.146	21272
888.27	21553
888.395	21515
888.519	21447
888.643	21545
888.767	21523
888.891	21245
889.015	21291
889.139	21291
889.263	21184
889.387	21382
889.511	21405
889.635	21302
889.759	21245
889.883	21211
890.006	21260
890.13	21329
890.254	21199
890.377	21093
890.501	21005
890.624	20891
890.748	21020
890.871	20944
890.995	20735
891.118	20735
891.241	20777
891.364	20724
891.488	20819
891.611	20670
891.734	20781
891.857	20853
891.98	20769
892.103	20826
892.226	20819
892.349	20727
892.471	20568
892.594	20644
892.717	20807
892.839	20579
892.962	20739
893.085	20629
893.207	20651
893.33	20655
893.452	20640
893.575	20735
893.697	20712
893.819	20777
893.941	20876
894.064	20811
894.186	20640
894.308	20526
894.43	20731
894.552	20765
894.674	20693
894.796	20655
894.918	20568
895.04	20636
895.161	20701
895.283	20735
895.405	20636
895.526	20686
895.648	20632
895.769	20686
895.891	20659
896.012	20906
896.134	20853
896.255	20667
896.376	20583
896.498	20625
896.619	20674
896.74	20617
896.861	20636
896.982	21032
897.103	21074
897.224	20925
897.345	20811
897.466	20754
897.587	20918
897.708	21001
897.828	20883
897.949	20868
898.07	20682
898.19	20800
898.311	21032
898.431	20864
898.552	20891
898.672	20925
898.792	21051
898.913	20895
899.033	20781
899.153	20716
899.273	20640
899.393	20663
899.513	20674
899.633	20609
899.753	20731
899.873	20492
899.993	20670
900.113	20503
900.232	20625
900.352	20545
900.472	20503
900.591	20366
900.711	20446
900.83	20324
900.95	20419
901.069	20507
901.189	20252
901.308	20024
901.427	19932
901.546	19928
901.665	20084
901.784	19989
901.904	19750
902.023	19788
902.141	19548
902.26	19556
902.379	19681
902.498	19483
902.617	19365
902.735	19483
902.854	19350
902.973	19339
903.091	19107
903.21	19164
903.328	19217
903.446	18966
903.565	18989
903.683	18977
903.801	18886
903.919	18871
904.038	18928
904.156	18741
904.274	18833
904.392	18711
904.51	18589
904.627	18639
904.745	18795
904.863	18696
904.981	18498
905.098	18418
905.216	18247
905.334	18498
905.451	18395
905.569	18232
905.686	18429
905.803	18361
905.921	18133
906.038	18228
906.155	18159
906.272	18049
906.389	18079
906.506	17802
906.623	17958
906.74	17927
906.857	17729
906.974	17764
907.091	17946
907.208	18068
907.324	17813
907.441	17794
907.557	17630
907.674	17642
907.79	17497
907.907	17528
908.023	17589
908.139	17577
908.256	17524
908.372	17459
908.488	17414
908.604	17402
908.72	17318
908.836	17372
908.952	17231
909.068	17356
909.184	17410
909.3	17284
909.415	17269
909.531	17231
909.647	17079
909.762	17060
909.878	16942
909.993	17025
910.108	17029
910.224	16919
910.339	16961
910.454	16812
910.57	16820
910.685	16752
910.8	17025
910.915	16965
911.03	16713
911.145	16641
911.259	16645
911.374	16691
911.489	16466
911.604	16497
911.718	16360
911.833	16360
911.947	16200
912.062	16223
912.176	16356
912.291	16318
912.405	16436
912.519	16637
912.633	16550
912.748	16310
912.862	16394
912.976	16158
913.09	16120
913.204	16105
913.318	16169
913.431	16253
913.545	16211
913.659	16207
913.772	16082
913.886	16063
914	15831
914.113	16036
914.226	16112
914.34	16055
914.453	15804
914.566	15953
914.68	15736
914.793	15800
914.906	15622
915.019	15553
915.132	15530
915.245	15507
915.358	15614
915.47	15580
915.583	15545
915.696	15458
915.809	15629
915.921	15595
916.034	15526
916.146	15272
916.259	15462
916.371	15488
916.483	15523
916.595	15294
916.708	15363
916.82	15466
916.932	15355
917.044	15386
917.156	15233
917.268	15157
917.38	15207
917.491	15146
917.603	15173
917.715	15332
917.826	15245
917.938	15081
918.049	15036
918.161	15169
918.272	15325
918.384	15199
918.495	15081
918.606	14880
918.717	14899
918.828	15020
918.939	14986
919.05	14811
919.161	14868
919.272	14758
919.383	14842
919.494	14956
919.604	15127
919.715	14883
919.826	14777
919.936	14941
920.047	14956
920.157	14834
920.267	15039
920.378	14914
920.488	14876
920.598	15028
920.708	15203
920.818	15058
920.928	15028
921.038	15131
921.148	15055
921.258	14811
921.368	14739
921.477	14602
921.587	14644
921.697	14480
921.806	14644
921.916	14503
922.025	14415
922.134	14278
922.244	14111
922.353	14309
922.462	14115
922.571	14012
922.68	13890
922.789	13894
922.898	13989
923.007	13849
923.116	13944
923.224	13890
923.333	13845
923.442	13670
923.55	13719
923.659	13632
923.767	13784
923.876	13655
923.984	13712
924.092	13658
924.201	13655
924.309	13586
924.417	13609
924.525	13525
924.633	13514
924.741	14454
924.849	13285
924.956	13419
925.064	13274
925.172	13175
925.279	13293
925.387	13255
925.494	13327
925.602	13460
925.709	13354
925.816	13217
925.924	13236
926.031	13339
926.138	13240
926.245	13232
926.352	13053
926.459	13190
926.566	13285
926.673	13251
926.779	13004
926.886	13046
926.993	12916
927.099	12871
927.206	12795
927.312	12787
927.419	12894
927.525	12916
927.631	12932
927.737	12722
927.843	12681
927.95	12612
928.056	12589
928.162	12677
928.267	12719
928.373	13304
928.479	12722
928.585	12471
928.69	12650
928.796	12620
928.901	12429
929.007	12403
929.112	12464
929.218	12464
929.323	12456
929.428	12334
929.533	12563
929.638	12357
929.743	12327
929.848	12414
929.953	12243
930.058	12140
930.163	12076
930.267	12106
930.372	12243
930.477	12045
930.581	12281
930.685	12083
930.79	11912
930.894	11935
930.998	11901
931.103	12079
931.207	11726
931.311	11562
931.415	11532
931.519	11364
931.623	11296
