Data from test_V78500241_81.txt Node
Date: Fri Mar 25 15:42:21 CST 2022
User: usil
Spectrometer: V785-0024
Trigger mode: 0
Integration Time (sec): 4.000000E-1
Scans to average: 1
Nonlinearity correction enabled: false
Boxcar width: 0
Storing dark spectrum: false
XAxis mode: Wavelengths
Number of Pixels in Spectrum: 1024
>>>>>Begin Spectral Data<<<<<
801.071	30034
801.214	29999
801.356	29798
801.499	29634
801.641	29619
801.783	29604
801.926	29379
802.068	29410
802.211	29402
802.353	29372
802.496	29235
802.638	29162
802.78	29136
802.923	29086
803.065	28957
803.208	29052
803.35	29212
803.492	29258
803.635	29250
803.777	29231
803.919	29372
804.061	29642
804.204	29353
804.346	29280
804.488	29136
804.63	29265
804.773	29189
804.915	29265
805.057	29353
805.199	29307
805.341	29185
805.483	29337
805.626	29204
805.768	29421
805.91	29356
806.052	29467
806.194	29330
806.336	29429
806.478	29353
806.62	29402
806.762	29577
806.904	29433
807.046	29764
807.188	29691
807.33	29771
807.472	29726
807.614	29680
807.756	29608
807.898	29623
808.04	29566
808.182	29452
808.324	29646
808.465	29608
808.607	29627
808.749	29866
808.891	29904
809.033	30079
809.174	29984
809.316	29946
809.458	30038
809.6	29745
809.741	29988
809.883	30041
810.025	30197
810.166	30159
810.308	30083
810.45	30129
810.591	29889
810.733	29942
810.875	29920
811.016	29748
811.158	29756
811.299	30003
811.441	29942
811.582	29961
811.724	29843
811.865	29931
812.007	29859
812.148	29874
812.29	29817
812.431	29977
812.573	30205
812.714	30110
812.855	30346
812.997	30445
813.138	30707
813.279	30467
813.421	30289
813.562	30239
813.703	30148
813.845	30121
813.986	29687
814.127	29634
814.268	29440
814.41	29524
814.551	29535
814.692	29478
814.833	29512
814.974	29334
815.115	29406
815.256	29242
815.397	29166
815.539	29406
815.68	29166
815.821	28987
815.962	29041
816.103	29048
816.244	29037
816.385	29018
816.526	28854
816.666	28641
816.807	28596
816.948	28561
817.089	28577
817.23	28717
817.371	28535
817.512	28577
817.653	28527
817.793	28554
817.934	28504
818.075	28565
818.216	28440
818.356	28634
818.497	28337
818.638	28230
818.778	28318
818.919	28284
819.06	28329
819.2	28299
819.341	28508
819.481	28554
819.622	28440
819.762	28828
819.903	28656
820.043	28523
820.184	28630
820.324	28519
820.465	28664
820.605	28641
820.746	28561
820.886	28337
821.026	28535
821.167	28527
821.307	28478
821.447	28375
821.588	28436
821.728	28219
821.868	28044
822.008	27926
822.149	27983
822.289	27892
822.429	27603
822.569	27637
822.709	27583
822.849	27294
822.99	27344
823.13	27370
823.27	27306
823.41	27214
823.55	27062
823.69	27211
823.83	27199
823.97	27241
824.11	26925
824.25	27020
824.389	26876
824.529	27070
824.669	26940
824.809	27116
824.949	27062
825.089	27036
825.228	27017
825.368	26853
825.508	26720
825.648	26788
825.787	26667
825.927	26682
826.067	26735
826.206	26731
826.346	26826
826.485	26819
826.625	26769
826.765	26811
826.904	26762
827.044	26499
827.183	26522
827.323	26332
827.462	26301
827.601	26423
827.741	26351
827.88	26541
828.02	26313
828.159	26259
828.298	26298
828.437	26446
828.577	26332
828.716	26404
828.855	26290
828.994	26107
829.134	25868
829.273	26039
829.412	26035
829.551	25974
829.69	26043
829.829	26012
829.968	26088
830.107	26119
830.246	26096
830.385	25959
830.524	25837
830.663	25761
830.802	25712
830.941	25613
831.08	25548
831.219	25693
831.357	25582
831.496	25917
831.635	25635
831.774	25476
831.913	25377
832.051	25430
832.19	25365
832.329	25293
832.467	25232
832.606	25061
832.744	25183
832.883	25209
833.022	25095
833.16	25107
833.299	25107
833.437	25240
833.576	25282
833.714	25240
833.852	25350
833.991	25160
834.129	25255
834.267	25293
834.406	25164
834.544	25164
834.682	25198
834.821	25110
834.959	25259
835.097	25145
835.235	25198
835.373	25217
835.511	25168
835.65	24989
835.788	25012
835.926	24920
836.064	24753
836.202	24848
836.34	25057
836.478	25065
836.615	24970
836.753	25000
836.891	25034
837.029	24947
837.167	24913
837.305	24890
837.443	24958
837.58	24700
837.718	24886
837.856	24734
837.993	24795
838.131	24844
838.269	24665
838.406	24604
838.544	24582
838.681	24483
838.819	24311
838.956	24266
839.094	24254
839.231	24232
839.369	24441
839.506	24486
839.643	24456
839.781	24232
839.918	24098
840.055	24182
840.193	24235
840.33	24087
840.467	24034
840.604	24167
840.742	24460
840.879	24091
841.016	23973
841.153	23958
841.29	24152
841.427	24117
841.564	23912
841.701	23920
841.838	24072
841.975	23821
842.112	24018
842.249	23882
842.385	23904
842.522	24022
842.659	23927
842.796	23737
842.933	23817
843.069	23646
843.206	23589
843.343	23707
843.479	23718
843.616	23767
843.752	23448
843.889	23531
844.025	23520
844.162	23410
844.298	23589
844.435	23531
844.571	23398
844.708	23414
844.844	23611
844.98	23649
845.117	23611
845.253	23433
845.389	23265
845.525	23254
845.661	23322
845.798	23086
845.934	23216
846.07	23151
846.206	23113
846.342	23220
846.478	23041
846.614	23018
846.75	22801
846.886	22828
847.022	23014
847.158	22968
847.294	22927
847.429	22900
847.565	22733
847.701	23067
847.837	22535
847.972	22622
848.108	22603
848.244	22679
848.379	22470
848.515	22413
848.65	22367
848.786	22432
848.921	22466
849.057	22527
849.192	22493
849.328	22538
849.463	22348
849.598	22432
849.734	22303
849.869	22299
850.004	22143
850.14	22169
850.275	22086
850.41	22082
850.545	22124
850.68	22025
850.815	22196
850.95	22135
851.085	22299
851.22	22207
851.355	22131
851.49	22097
851.625	22154
851.76	22090
851.895	22029
852.03	22055
852.165	22078
852.299	22112
852.434	22185
852.569	22207
852.703	22059
852.838	22196
852.973	22223
853.107	22215
853.242	22025
853.376	21949
853.511	21835
853.645	21926
853.78	22070
853.914	21922
854.048	21888
854.183	21899
854.317	21869
854.451	22162
854.585	21918
854.72	21983
854.854	21968
854.988	21846
855.122	21930
855.256	21766
855.39	21972
855.524	21918
855.658	21892
855.792	22002
855.926	21827
856.06	21865
856.194	22013
856.327	21869
856.461	21838
856.595	21785
856.729	21857
856.862	22032
856.996	21930
857.13	21930
857.263	22044
857.397	22029
857.53	21953
857.664	21918
857.797	21903
857.931	22055
858.064	21869
858.197	22055
858.331	21857
858.464	21747
858.597	21785
858.731	21964
858.864	21759
858.997	21701
859.13	21854
859.263	21873
859.396	22029
859.529	21747
859.662	21808
859.795	21789
859.928	21819
860.061	21983
860.194	22036
860.327	21861
860.46	21785
860.592	21816
860.725	21903
860.858	21964
860.99	21743
861.123	21709
861.256	21587
861.388	21800
861.521	22322
861.653	21595
861.786	21599
861.918	21690
862.05	21755
862.183	21797
862.315	21895
862.447	21819
862.58	21842
862.712	21717
862.844	21401
862.976	21583
863.108	21667
863.24	21861
863.372	21515
863.504	21507
863.636	21599
863.768	21545
863.9	21538
864.032	21485
864.164	21530
864.296	21519
864.428	21469
864.559	21526
864.691	21519
864.823	21500
864.954	21405
865.086	21500
865.217	21447
865.349	21336
865.48	21348
865.612	21336
865.743	21401
865.875	21332
866.006	21260
866.137	21443
866.269	21412
866.4	21283
866.531	21389
866.662	21237
866.793	21294
866.924	21203
867.055	21268
867.186	21332
867.317	21302
867.448	21169
867.579	21268
867.71	21203
867.841	21173
867.972	21294
868.103	21264
868.233	21367
868.364	21294
868.495	21363
868.625	21359
868.756	21606
868.886	21473
869.017	21515
869.147	21534
869.278	21656
869.408	21568
869.539	21447
869.669	21614
869.799	21606
869.929	21625
870.06	21614
870.19	21819
870.32	21778
870.45	21774
870.58	21918
870.71	22074
870.84	22025
870.97	21880
871.1	22044
871.23	22112
871.36	22112
871.489	22048
871.619	22078
871.749	22139
871.879	22010
872.008	22230
872.138	22154
872.267	22093
872.397	21865
872.526	21934
872.656	21930
872.785	21983
872.915	22188
873.044	22211
873.173	22234
873.303	22207
873.432	22265
873.561	22257
873.69	22135
873.819	22063
873.948	22261
874.077	22074
874.206	22025
874.335	22154
874.464	22223
874.593	22402
874.722	22428
874.851	22478
874.979	22424
875.108	22409
875.237	22371
875.365	22257
875.494	22272
875.623	22500
875.751	22306
875.88	22436
876.008	22626
876.136	22493
876.265	22790
876.393	22915
876.521	22759
876.65	22786
876.778	22744
876.906	22733
877.034	22698
877.162	22759
877.29	22717
877.418	22763
877.546	22812
877.674	22694
877.802	22782
877.93	22679
878.058	22615
878.185	22607
878.313	22717
878.441	22725
878.568	22596
878.696	22694
878.824	22668
878.951	22713
879.079	22892
879.206	23067
879.333	22820
879.461	22778
879.588	22873
879.715	22816
879.842	22889
879.97	22759
880.097	22694
880.224	22516
880.351	22459
880.478	22550
880.605	22607
880.732	22538
880.859	22630
880.986	22424
881.112	22538
881.239	22390
881.366	22299
881.493	22166
881.619	22074
881.746	22211
881.872	22169
881.999	22105
882.125	22002
882.252	22082
882.378	22109
882.505	22207
882.631	22093
882.757	21869
882.883	21823
883.01	21838
883.136	21823
883.262	21854
883.388	21720
883.514	21762
883.64	21857
883.766	21728
883.892	21644
884.018	21557
884.143	21690
884.269	21960
884.395	21534
884.52	21443
884.646	21557
884.772	21310
884.897	21363
885.023	21485
885.148	21504
885.274	21660
885.399	21538
885.524	21325
885.65	21370
885.775	21477
885.9	21477
886.025	21511
886.15	21370
886.275	21325
886.4	21469
886.525	21367
886.65	21230
886.775	21447
886.9	21462
887.025	21580
887.149	21466
887.274	21218
887.399	21203
887.523	21108
887.648	21119
887.773	21096
887.897	21226
888.021	21214
888.146	21169
888.27	21188
888.395	21294
888.519	21287
888.643	21241
888.767	21188
888.891	21100
889.015	20880
889.139	21074
889.263	21051
889.387	21047
889.511	21157
889.635	21192
889.759	21043
889.883	21017
890.006	20918
890.13	20975
890.254	20796
890.377	20735
890.501	20708
890.624	20651
890.748	20655
890.871	20533
890.995	20476
891.118	20431
891.241	20564
891.364	20461
891.488	20640
891.611	20404
891.734	20484
891.857	20537
891.98	20560
892.103	20674
892.226	20549
892.349	20446
892.471	20271
892.594	20438
892.717	20556
892.839	20377
892.962	20530
893.085	20518
893.207	20385
893.33	20248
893.452	20370
893.575	20427
893.697	20419
893.819	20533
893.941	20644
894.064	20476
894.186	20317
894.308	20271
894.43	20442
894.552	20575
894.674	20412
894.796	20324
894.918	20389
895.04	20309
895.161	20545
895.283	20469
895.405	20381
895.526	20427
895.648	20298
895.769	20537
895.891	20556
896.012	20503
896.134	20549
896.255	20476
896.376	20457
896.498	20492
896.619	20511
896.74	20571
896.861	20648
896.982	20754
897.103	20899
897.224	20762
897.345	20667
897.466	20686
897.587	20606
897.708	20712
897.828	20693
897.949	20579
898.07	20495
898.19	20575
898.311	20674
898.431	20606
898.552	20644
898.672	20648
898.792	20587
898.913	20579
899.033	20522
899.153	20294
899.273	20252
899.393	20298
899.513	20339
899.633	20328
899.753	20347
899.873	20122
899.993	20233
900.113	20286
900.232	20221
900.352	20176
900.472	20149
900.591	20077
900.711	20096
900.83	20058
900.95	20149
901.069	20259
901.189	20081
901.308	19890
901.427	19719
901.546	19696
901.665	19715
901.784	19776
901.904	19480
902.023	19506
902.141	19240
902.26	19179
902.379	19369
902.498	19225
902.617	18981
902.735	19240
902.854	19133
902.973	18954
903.091	18844
903.21	18905
903.328	18772
903.446	18757
903.565	18764
903.683	18601
903.801	18555
903.919	18650
904.038	18585
904.156	18506
904.274	18589
904.392	18422
904.51	18426
904.627	18365
904.745	18452
904.863	18532
904.981	18258
905.098	18060
905.216	18163
905.334	18091
905.451	18129
905.569	18106
905.686	18106
905.803	18133
905.921	17954
906.038	17931
906.155	17897
906.272	17794
906.389	17771
906.506	17627
906.623	17676
906.74	17516
906.857	17444
906.974	17459
907.091	17608
907.208	17764
907.324	17634
907.441	17490
907.557	17307
907.674	17356
907.79	17242
907.907	17231
908.023	17258
908.139	17303
908.256	17178
908.372	17143
908.488	17121
908.604	16980
908.72	16915
908.836	16885
908.952	16995
909.068	16869
909.184	17117
909.3	16915
909.415	16987
909.531	16911
909.647	16710
909.762	16740
909.878	16691
909.993	16615
910.108	16577
910.224	16637
910.339	16615
910.454	16504
910.57	16440
910.685	16398
910.8	16596
910.915	16561
911.03	16424
911.145	16272
911.259	16185
911.374	16226
911.489	16162
911.604	16032
911.718	16036
911.833	16040
911.947	15953
912.062	15816
912.176	15960
912.291	16044
912.405	16086
912.519	16185
912.633	16139
912.748	15983
912.862	15880
912.976	15838
913.09	15739
913.204	15720
913.318	15724
913.431	15895
913.545	15873
913.659	15823
913.772	15625
913.886	15587
914	15606
914.113	15705
914.226	15667
914.34	15637
914.453	15389
914.566	15618
914.68	15469
914.793	15401
914.906	15279
915.019	15146
915.132	15154
915.245	15138
915.358	15165
915.47	15188
915.583	15184
915.696	15180
915.809	15408
915.921	15325
916.034	15066
916.146	15100
916.259	15119
916.371	15081
916.483	15085
916.595	14960
916.708	15020
916.82	14982
916.932	15001
917.044	14982
917.156	14815
917.268	14785
917.38	14842
917.491	14811
917.603	14838
917.715	14891
917.826	14891
917.938	14807
918.049	14667
918.161	14739
918.272	14823
918.384	14830
918.495	14720
918.606	14503
918.717	14507
918.828	14488
918.939	14590
919.05	14499
919.161	14560
919.272	14313
919.383	14431
919.494	14655
919.604	14705
919.715	14473
919.826	14362
919.936	14514
920.047	14598
920.157	14533
920.267	14636
920.378	14423
920.488	14465
920.598	14632
920.708	14731
920.818	14594
920.928	14670
921.038	14815
921.148	14727
921.258	14473
921.368	14286
921.477	14305
921.587	14252
921.697	14138
921.806	14240
921.916	14111
922.025	13856
922.134	13875
922.244	13849
922.353	13837
922.462	13723
922.571	13712
922.68	13544
922.789	13434
922.898	13521
923.007	13335
923.116	13422
923.224	13449
923.333	13396
923.442	13251
923.55	13293
923.659	13282
923.767	13441
923.876	13274
923.984	13396
924.092	13171
924.201	13240
924.309	13152
924.417	13164
924.525	13194
924.633	13129
924.741	14024
924.849	12890
924.956	13065
925.064	12928
925.172	12890
925.279	12886
925.387	13008
925.494	12989
925.602	12981
925.709	12924
925.816	12840
925.924	12810
926.031	12897
926.138	12871
926.245	12909
926.352	12795
926.459	12894
926.566	12909
926.673	12772
926.779	12681
926.886	12601
926.993	12414
927.099	12388
927.206	12452
927.312	12452
927.419	12509
927.525	12452
927.631	12433
927.737	12365
927.843	12323
927.95	12167
928.056	12350
928.162	12235
928.267	12304
928.373	12905
928.479	12369
928.585	12102
928.69	12270
928.796	12330
928.901	12178
929.007	11908
929.112	12205
929.218	12072
929.323	12007
929.428	11950
929.533	12019
929.638	11904
929.743	11863
929.848	12045
929.953	11870
930.058	11863
930.163	11676
930.267	11676
930.372	11752
930.477	11543
930.581	11783
930.685	11703
930.79	11646
930.894	11589
930.998	11566
931.103	11558
931.207	11246
931.311	11254
931.415	11204
931.519	10984
931.623	10877
