Data from test_V78500241_447.txt Node
Date: Fri Mar 25 15:44:53 CST 2022
User: usil
Spectrometer: V785-0024
Trigger mode: 0
Integration Time (sec): 4.000000E-1
Scans to average: 1
Nonlinearity correction enabled: false
Boxcar width: 0
Storing dark spectrum: false
XAxis mode: Wavelengths
Number of Pixels in Spectrum: 1024
>>>>>Begin Spectral Data<<<<<
801.071	27907
801.214	27972
801.356	27747
801.499	27606
801.641	27500
801.783	27500
801.926	27538
802.068	27530
802.211	27393
802.353	27298
802.496	27218
802.638	27214
802.78	27108
802.923	27203
803.065	27024
803.208	27157
803.35	27017
803.492	27100
803.635	27260
803.777	27150
803.919	27310
804.061	27519
804.204	27401
804.346	27279
804.488	27237
804.63	27237
804.773	26986
804.915	27207
805.057	27405
805.199	27188
805.341	27336
805.483	27287
805.626	27302
805.768	27192
805.91	27500
806.052	27325
806.194	27329
806.336	27431
806.478	27291
806.62	27233
806.762	27507
806.904	27660
807.046	27937
807.188	27762
807.33	27751
807.472	27778
807.614	27663
807.756	27808
807.898	27622
808.04	27481
808.182	27682
808.324	27595
808.465	27561
808.607	27846
808.749	27888
808.891	27960
809.033	28093
809.174	27994
809.316	27991
809.458	27975
809.6	27949
809.741	28036
809.883	27922
810.025	28246
810.166	28082
810.308	28090
810.45	28230
810.591	28211
810.733	27956
810.875	27812
811.016	27739
811.158	27793
811.299	27994
811.441	28116
811.582	28040
811.724	27850
811.865	27876
812.007	27838
812.148	27876
812.29	27819
812.431	28006
812.573	28249
812.714	28246
812.855	28459
812.997	28516
813.138	28702
813.279	28618
813.421	28352
813.562	28215
813.703	28268
813.845	28150
813.986	27884
814.127	27679
814.268	27496
814.41	27606
814.551	27507
814.692	27618
814.833	27557
814.974	27564
815.115	27545
815.256	27469
815.397	27382
815.539	27439
815.68	27283
815.821	27051
815.962	27157
816.103	27332
816.244	27146
816.385	27017
816.526	27081
816.666	26883
816.807	26693
816.948	26910
817.089	26975
817.23	26826
817.371	26746
817.512	26849
817.653	26689
817.793	26750
817.934	26670
818.075	26845
818.216	26849
818.356	26693
818.497	26556
818.638	26560
818.778	26476
818.919	26415
819.06	26514
819.2	26587
819.341	26659
819.481	26735
819.622	27028
819.762	26990
819.903	26948
820.043	26872
820.184	26716
820.324	26849
820.465	26883
820.605	26887
820.746	26788
820.886	26716
821.026	26743
821.167	26686
821.307	26849
821.447	26811
821.588	26735
821.728	26583
821.868	26400
822.008	26202
822.149	26233
822.289	26119
822.429	25909
822.569	25860
822.709	25788
822.849	25594
822.99	25712
823.13	25639
823.27	25647
823.41	25457
823.55	25449
823.69	25556
823.83	25403
823.97	25445
824.11	25236
824.25	25266
824.389	25331
824.529	25327
824.669	25312
824.809	25415
824.949	25278
825.089	25369
825.228	25285
825.368	25148
825.508	25156
825.648	25053
825.787	25156
825.927	25297
826.067	25008
826.206	25057
826.346	25145
826.485	25240
826.625	25050
826.765	25156
826.904	25080
827.044	24764
827.183	24901
827.323	24684
827.462	24844
827.601	24760
827.741	24779
827.88	24696
828.02	24711
828.159	24711
828.298	24837
828.437	24848
828.577	24749
828.716	24901
828.855	24661
828.994	24513
829.134	24471
829.273	24601
829.412	24464
829.551	24380
829.69	24338
829.829	24498
829.968	24486
830.107	24540
830.246	24464
830.385	24372
830.524	24429
830.663	24380
830.802	24201
830.941	23999
831.08	23999
831.219	23977
831.357	24117
831.496	24262
831.635	24106
831.774	23980
831.913	23893
832.051	23874
832.19	23984
832.329	23855
832.467	23726
832.606	23703
832.744	23634
832.883	23767
833.022	23596
833.16	23680
833.299	23726
833.437	23729
833.576	23783
833.714	23775
833.852	23912
833.991	23802
834.129	23851
834.267	23855
834.406	23638
834.544	23870
834.682	23668
834.821	23623
834.959	23870
835.097	23611
835.235	23623
835.373	23691
835.511	23726
835.65	23623
835.788	23577
835.926	23318
836.064	23444
836.202	23349
836.34	23623
836.478	23547
836.615	23539
836.753	23592
836.891	23592
837.029	23539
837.167	23433
837.305	23471
837.443	23436
837.58	23455
837.718	23474
837.856	23421
837.993	23246
838.131	23406
838.269	23269
838.406	23322
838.544	23181
838.681	23075
838.819	22889
838.956	22896
839.094	22740
839.231	22873
839.369	23060
839.506	23235
839.643	23067
839.781	22839
839.918	22721
840.055	22801
840.193	22797
840.33	22831
840.467	22793
840.604	22774
840.742	23060
840.879	22664
841.016	22675
841.153	22664
841.29	22885
841.427	22812
841.564	22892
841.701	22767
841.838	22679
841.975	22550
842.112	22725
842.249	22645
842.385	22584
842.522	22713
842.659	22603
842.796	22443
842.933	22542
843.069	22436
843.206	22508
843.343	22489
843.479	22489
843.616	22580
843.752	22318
843.889	22067
844.025	22443
844.162	22124
844.298	22322
844.435	22211
844.571	22139
844.708	22356
844.844	22478
844.98	22363
845.117	22390
845.253	22234
845.389	22067
845.525	22128
845.661	22048
845.798	21941
845.934	22154
846.07	22017
846.206	22032
846.342	22082
846.478	21926
846.614	21819
846.75	21675
846.886	21675
847.022	21717
847.158	21656
847.294	21705
847.429	21652
847.565	21713
847.701	21945
847.837	21450
847.972	21439
848.108	21435
848.244	21458
848.379	21302
848.515	21340
848.65	21237
848.786	21287
848.921	21302
849.057	21359
849.192	21424
849.328	21287
849.463	21291
849.598	21169
849.734	21218
849.869	21089
850.004	21108
850.14	21127
850.275	20967
850.41	20967
850.545	21047
850.68	20925
850.815	21112
850.95	21020
851.085	21203
851.22	21131
851.355	21081
851.49	21024
851.625	20971
851.76	20944
851.895	20937
852.03	21024
852.165	21089
852.299	21116
852.434	20971
852.569	21043
852.703	21020
852.838	21108
852.973	21180
853.107	21150
853.242	20891
853.376	20941
853.511	20758
853.645	20823
853.78	20979
853.914	20891
854.048	20807
854.183	20727
854.317	20982
854.451	21028
854.585	20796
854.72	20853
854.854	21036
854.988	20773
855.122	20826
855.256	20708
855.39	20773
855.524	20960
855.658	20838
855.792	20857
855.926	20895
856.06	20933
856.194	20998
856.327	20800
856.461	20864
856.595	20804
856.729	20746
856.862	21051
856.996	20994
857.13	20941
857.263	20998
857.397	20883
857.53	20864
857.664	20830
857.797	20899
857.931	20910
858.064	20941
858.197	20906
858.331	20845
858.464	20777
858.597	20735
858.731	20826
858.864	20807
858.997	20868
859.13	20853
859.263	20891
859.396	20921
859.529	20754
859.662	20731
859.795	20861
859.928	20773
860.061	21047
860.194	21028
860.327	20921
860.46	20872
860.592	20948
860.725	20948
860.858	21051
860.99	20800
861.123	20697
861.256	20765
861.388	20758
861.521	21561
861.653	20712
861.786	20613
861.918	20739
862.05	20670
862.183	20804
862.315	20857
862.447	20811
862.58	20697
862.712	20598
862.844	20583
862.976	20727
863.108	20537
863.24	20960
863.372	20560
863.504	20598
863.636	20511
863.768	20579
863.9	20495
864.032	20541
864.164	20492
864.296	20579
864.428	20609
864.559	20754
864.691	20476
864.823	20560
864.954	20507
865.086	20560
865.217	20457
865.349	20374
865.48	20385
865.612	20499
865.743	20590
865.875	20488
866.006	20317
866.137	20457
866.269	20492
866.4	20457
866.531	20442
866.662	20294
866.793	20404
866.924	20423
867.055	20457
867.186	20396
867.317	20389
867.448	20271
867.579	20351
867.71	20290
867.841	20267
867.972	20374
868.103	20408
868.233	20454
868.364	20313
868.495	20465
868.625	20617
868.756	20765
868.886	20492
869.017	20602
869.147	20754
869.278	20792
869.408	20686
869.539	20640
869.669	20769
869.799	20777
869.929	20636
870.06	20739
870.19	20921
870.32	20921
870.45	21070
870.58	20990
870.71	21074
870.84	21195
870.97	21001
871.1	21017
871.23	21112
871.36	21302
871.489	21081
871.619	21256
871.749	21291
871.879	21283
872.008	21336
872.138	21245
872.267	21306
872.397	21093
872.526	21013
872.656	21081
872.785	21070
872.915	21195
873.044	21329
873.173	21142
873.303	21165
873.432	21169
873.561	21378
873.69	21199
873.819	21173
873.948	21252
874.077	21260
874.206	21264
874.335	21302
874.464	21405
874.593	21504
874.722	21408
874.851	21553
874.979	21477
875.108	21443
875.237	21545
875.365	21420
875.494	21458
875.623	21405
875.751	21454
875.88	21450
876.008	21538
876.136	21701
876.265	21880
876.393	22002
876.521	22002
876.65	21960
876.778	21819
876.906	21762
877.034	21838
877.162	21827
877.29	21831
877.418	21713
877.546	21781
877.674	21823
877.802	21717
877.93	21842
878.058	21774
878.185	21671
878.313	21747
878.441	21869
878.568	21728
878.696	21610
878.824	21922
878.951	21812
879.079	22036
879.206	22173
879.333	21979
879.461	21816
879.588	21911
879.715	21987
879.842	22109
879.97	21930
880.097	21679
880.224	21644
880.351	21717
880.478	21599
880.605	21637
880.732	21587
880.859	21884
880.986	21656
881.112	21675
881.239	21523
881.366	21374
881.493	21363
881.619	21203
881.746	21283
881.872	21237
881.999	21237
882.125	21256
882.252	21279
882.378	21260
882.505	21344
882.631	21104
882.757	21036
882.883	21039
883.01	21039
883.136	20849
883.262	20823
883.388	20686
883.514	21017
883.64	21043
883.766	20883
883.892	20689
884.018	20746
884.143	20891
884.269	21017
884.395	20663
884.52	20663
884.646	20568
884.772	20590
884.897	20480
885.023	20545
885.148	20750
885.274	20823
885.399	20735
885.524	20579
885.65	20613
885.775	20697
885.9	20636
886.025	20678
886.15	20644
886.275	20552
886.4	20511
886.525	20568
886.65	20632
886.775	20438
886.9	20644
887.025	20781
887.149	20530
887.274	20476
887.399	20381
887.523	20339
887.648	20347
887.773	20202
887.897	20480
888.021	20355
888.146	20377
888.27	20385
888.395	20431
888.519	20457
888.643	20431
888.767	20408
888.891	20134
889.015	20126
889.139	20153
889.263	20092
889.387	20206
889.511	20419
889.635	20336
889.759	20278
889.883	20122
890.006	20263
890.13	20332
890.254	20001
890.377	20115
890.501	19875
890.624	19883
890.748	19959
890.871	19833
890.995	19757
891.118	19662
891.241	19788
891.364	19757
891.488	19841
891.611	19708
891.734	19696
891.857	19784
891.98	19795
892.103	19772
892.226	19803
892.349	19761
892.471	19453
892.594	19655
892.717	19681
892.839	19537
892.962	19712
893.085	19791
893.207	19727
893.33	19620
893.452	19556
893.575	19723
893.697	19582
893.819	19784
893.941	19940
894.064	19875
894.186	19563
894.308	19559
894.43	19715
894.552	19814
894.674	19719
894.796	19548
894.918	19704
895.04	19597
895.161	19723
895.283	19681
895.405	19643
895.526	19685
895.648	19624
895.769	19681
895.891	19761
896.012	19795
896.134	19746
896.255	19677
896.376	19655
896.498	19784
896.619	19700
896.74	19666
896.861	19788
896.982	19997
897.103	20081
897.224	19963
897.345	19837
897.466	19856
897.587	19963
897.708	20142
897.828	20012
897.949	19887
898.07	19708
898.19	19807
898.311	19955
898.431	19822
898.552	19890
898.672	19986
898.792	19944
898.913	20005
899.033	19700
899.153	19670
899.273	19609
899.393	19620
899.513	19776
899.633	19677
899.753	19563
899.873	19540
899.993	19731
900.113	19544
900.232	19616
900.352	19605
900.472	19468
900.591	19331
900.711	19487
900.83	19415
900.95	19483
901.069	19533
901.189	19350
901.308	19171
901.427	18962
901.546	18856
901.665	19072
901.784	19080
901.904	18848
902.023	18833
902.141	18616
902.26	18547
902.379	18692
902.498	18612
902.617	18445
902.735	18601
902.854	18502
902.973	18544
903.091	18247
903.21	18262
903.328	18171
903.446	18079
903.565	18038
903.683	18015
903.801	17859
903.919	17992
904.038	17965
904.156	17798
904.274	17809
904.392	17786
904.51	17737
904.627	17767
904.745	17760
904.863	17809
904.981	17543
905.098	17452
905.216	17379
905.334	17535
905.451	17436
905.569	17410
905.686	17486
905.803	17326
905.921	17227
906.038	17311
906.155	17162
906.272	17094
906.389	17235
906.506	17014
906.623	16889
906.74	17006
906.857	16790
906.974	16942
907.091	16957
907.208	17071
907.324	17071
907.441	16995
907.557	16733
907.674	16675
907.79	16626
907.907	16660
908.023	16691
908.139	16675
908.256	16645
908.372	16615
908.488	16611
908.604	16447
908.72	16329
908.836	16348
908.952	16417
909.068	16428
909.184	16455
909.3	16291
909.415	16341
909.531	16337
909.647	15953
909.762	16074
909.878	16063
909.993	16063
910.108	16086
910.224	16044
910.339	16082
910.454	15991
910.57	15876
910.685	15888
910.8	16139
910.915	16105
911.03	16040
911.145	15762
911.259	15755
911.374	15770
911.489	15485
911.604	15660
911.718	15496
911.833	15405
911.947	15412
912.062	15302
912.176	15443
912.291	15530
912.405	15443
912.519	15625
912.633	15603
912.748	15363
912.862	15344
912.976	15291
913.09	15222
913.204	15104
913.318	15264
913.431	15458
913.545	15287
913.659	15306
913.772	15302
913.886	15165
914	15066
914.113	15104
914.226	15233
914.34	15100
914.453	14925
914.566	15116
914.68	14899
914.793	14895
914.906	14849
915.019	14811
915.132	14606
915.245	14682
915.358	14644
915.47	14644
915.583	14731
915.696	14663
915.809	14811
915.921	14773
916.034	14648
916.146	14571
916.259	14579
916.371	14640
916.483	14606
916.595	14541
916.708	14514
916.82	14476
916.932	14465
917.044	14484
917.156	14571
917.268	14374
917.38	14476
917.491	14263
917.603	14511
917.715	14358
917.826	14374
917.938	14263
918.049	14119
918.161	14332
918.272	14355
918.384	14358
918.495	14263
918.606	14142
918.717	14111
918.828	14145
918.939	14073
919.05	13989
919.161	14176
919.272	13932
919.383	13856
919.494	14210
919.604	14271
919.715	14062
919.826	14043
919.936	14073
920.047	14115
920.157	14164
920.267	14290
920.378	14123
920.488	14069
920.598	14210
920.708	14389
920.818	14252
920.928	14161
921.038	14434
921.148	14317
921.258	14050
921.368	13898
921.477	13868
921.587	13788
921.697	13651
921.806	13909
921.916	13658
922.025	13487
922.134	13441
922.244	13472
922.353	13548
922.462	13377
922.571	13354
922.68	13171
922.789	13034
922.898	13152
923.007	13126
923.116	13175
923.224	13103
923.333	13091
923.442	12939
923.55	12901
923.659	12943
923.767	13080
923.876	12852
923.984	12993
924.092	12924
924.201	12897
924.309	12875
924.417	12829
924.525	12779
924.633	12844
924.741	13537
924.849	12547
924.956	12760
925.064	12616
925.172	12486
925.279	12536
925.387	12585
925.494	12646
925.602	12684
925.709	12559
925.816	12490
925.924	12475
926.031	12570
926.138	12498
926.245	12521
926.352	12448
926.459	12623
926.566	12525
926.673	12429
926.779	12323
926.886	12289
926.993	12216
927.099	12235
927.206	12072
927.312	12148
927.419	12167
927.525	12114
927.631	12152
927.737	11999
927.843	12015
927.95	11935
928.056	12007
928.162	11980
928.267	11992
928.373	12593
928.479	12026
928.585	11828
928.69	11969
928.796	11988
928.901	11901
929.007	11672
929.112	11939
929.218	11737
929.323	11722
929.428	11661
929.533	11908
929.638	11615
929.743	11661
929.848	11733
929.953	11676
930.058	11528
930.163	11417
930.267	11433
930.372	11512
930.477	11334
930.581	11623
930.685	11471
930.79	11231
930.894	11337
930.998	11311
931.103	11406
931.207	11071
931.311	11056
931.415	10805
931.519	10698
931.623	10672
