Data from test_V78500241_2365.txt Node
Date: Fri Mar 25 15:58:11 CST 2022
User: usil
Spectrometer: V785-0024
Trigger mode: 0
Integration Time (sec): 4.000000E-1
Scans to average: 1
Nonlinearity correction enabled: false
Boxcar width: 0
Storing dark spectrum: false
XAxis mode: Wavelengths
Number of Pixels in Spectrum: 1024
>>>>>Begin Spectral Data<<<<<
801.071	28462
801.214	28504
801.356	28265
801.499	28337
801.641	28112
801.783	28158
801.926	28150
802.068	28154
802.211	28048
802.353	28116
802.496	27652
802.638	27895
802.78	27888
802.923	27751
803.065	27838
803.208	27762
803.35	27888
803.492	27934
803.635	28055
803.777	27945
803.919	28147
804.061	28356
804.204	28078
804.346	27934
804.488	27968
804.63	28067
804.773	27873
804.915	28006
805.057	28059
805.199	28048
805.341	28055
805.483	28257
805.626	28074
805.768	28143
805.91	28226
806.052	28303
806.194	28070
806.336	28314
806.478	28188
806.62	28181
806.762	28451
806.904	28527
807.046	28592
807.188	28481
807.33	28630
807.472	28694
807.614	28626
807.756	28584
807.898	28546
808.04	28322
808.182	28394
808.324	28531
808.465	28485
808.607	28778
808.749	28824
808.891	28934
809.033	29060
809.174	28980
809.316	28801
809.458	28843
809.6	28771
809.741	28968
809.883	28850
810.025	29067
810.166	29254
810.308	29181
810.45	29181
810.591	29048
810.733	29075
810.875	28847
811.016	28862
811.158	28843
811.299	28908
811.441	29083
811.582	28877
811.724	28740
811.865	28797
812.007	28908
812.148	28915
812.29	29003
812.431	29166
812.573	29204
812.714	29425
812.855	29303
812.997	29414
813.138	29691
813.279	29490
813.421	29478
813.562	29280
813.703	29216
813.845	29143
813.986	28793
814.127	28733
814.268	28542
814.41	28497
814.551	28596
814.692	28603
814.833	28512
814.974	28573
815.115	28512
815.256	28440
815.397	28508
815.539	28322
815.68	28363
815.821	28390
815.962	28535
816.103	28447
816.244	28234
816.385	28242
816.526	28112
816.666	28032
816.807	27888
816.948	28021
817.089	27941
817.23	27975
817.371	27812
817.512	27899
817.653	27816
817.793	27804
817.934	27812
818.075	27869
818.216	27960
818.356	27869
818.497	27663
818.638	27751
818.778	27564
818.919	27614
819.06	27720
819.2	27865
819.341	27876
819.481	27922
819.622	27869
819.762	28238
819.903	28105
820.043	28131
820.184	28112
820.324	27968
820.465	28154
820.605	28078
820.746	28029
820.886	27850
821.026	28017
821.167	27975
821.307	27987
821.447	27956
821.588	27918
821.728	27583
821.868	27507
822.008	27321
822.149	27416
822.289	27237
822.429	27188
822.569	27047
822.709	27127
822.849	26933
822.99	26777
823.13	26804
823.27	26872
823.41	26678
823.55	26560
823.69	26609
823.83	26708
823.97	26625
824.11	26461
824.25	26507
824.389	26625
824.529	26511
824.669	26541
824.809	26613
824.949	26590
825.089	26564
825.228	26465
825.368	26351
825.508	26495
825.648	26396
825.787	26423
825.927	26537
826.067	26419
826.206	26408
826.346	26377
826.485	26473
826.625	26389
826.765	26526
826.904	26446
827.044	26218
827.183	26263
827.323	26096
827.462	26214
827.601	26031
827.741	26050
827.88	26214
828.02	26035
828.159	26100
828.298	25955
828.437	26138
828.577	25978
828.716	26294
828.855	26012
828.994	25784
829.134	25723
829.273	25917
829.412	25769
829.551	25772
829.69	25761
829.829	25890
829.968	25826
830.107	25822
830.246	25811
830.385	25772
830.524	25693
830.663	25582
830.802	25460
830.941	25312
831.08	25377
831.219	25483
831.357	25540
831.496	25605
831.635	25392
831.774	25381
831.913	25373
832.051	25266
832.19	25148
832.329	25278
832.467	25129
832.606	25141
832.744	24966
832.883	25164
833.022	25012
833.16	25046
833.299	25217
833.437	24996
833.576	25141
833.714	25110
833.852	25114
833.991	25148
834.129	25263
834.267	25346
834.406	25148
834.544	25118
834.682	25080
834.821	25084
834.959	25327
835.097	25088
835.235	25122
835.373	25148
835.511	25095
835.65	24970
835.788	25088
835.926	24947
836.064	24711
836.202	24829
836.34	24992
836.478	24894
836.615	24962
836.753	24996
836.891	25004
837.029	24909
837.167	24947
837.305	24901
837.443	24814
837.58	24726
837.718	24856
837.856	24825
837.993	24734
838.131	24760
838.269	24753
838.406	24707
838.544	24517
838.681	24467
838.819	24338
838.956	24182
839.094	24216
839.231	24167
839.369	24464
839.506	24631
839.643	24502
839.781	24213
839.918	24251
840.055	24311
840.193	24239
840.33	24015
840.467	24053
840.604	24220
840.742	24323
840.879	23885
841.016	24045
841.153	24015
841.29	24239
841.427	24034
841.564	24140
841.701	24076
841.838	24011
841.975	24030
842.112	24087
842.249	23920
842.385	23840
842.522	24121
842.659	24045
842.796	23939
842.933	23878
843.069	23752
843.206	23927
843.343	24003
843.479	23904
843.616	23939
843.752	23638
843.889	23680
844.025	23790
844.162	23634
844.298	23722
844.435	23653
844.571	23524
844.708	23665
844.844	23779
844.98	23832
845.117	23809
845.253	23539
845.389	23589
845.525	23589
845.661	23505
845.798	23493
845.934	23433
846.07	23269
846.206	23539
846.342	23547
846.478	23258
846.614	23204
846.75	23162
846.886	23018
847.022	23216
847.158	23109
847.294	23140
847.429	23102
847.565	23140
847.701	23398
847.837	22987
847.972	22725
848.108	22946
848.244	22862
848.379	22850
848.515	22641
848.65	22736
848.786	22759
848.921	22687
849.057	22885
849.192	22828
849.328	22771
849.463	22733
849.598	22736
849.734	22603
849.869	22485
850.004	22485
850.14	22599
850.275	22660
850.41	22413
850.545	22303
850.68	22436
850.815	22508
850.95	22371
851.085	22702
851.22	22588
851.355	22584
851.49	22443
851.625	22603
851.76	22440
851.895	22428
852.03	22265
852.165	22500
852.299	22470
852.434	22599
852.569	22569
852.703	22573
852.838	22413
852.973	22637
853.107	22611
853.242	22500
853.376	22238
853.511	22173
853.645	22249
853.78	22337
853.914	22363
854.048	22306
854.183	22428
854.317	22242
854.451	22462
854.585	22253
854.72	22192
854.854	22367
854.988	22188
855.122	22394
855.256	22249
855.39	22325
855.524	22371
855.658	22360
855.792	22344
855.926	22405
856.06	22409
856.194	22447
856.327	22329
856.461	22226
856.595	22249
856.729	22310
856.862	22462
856.996	22249
857.13	22341
857.263	22382
857.397	22382
857.53	22398
857.664	22341
857.797	22398
857.931	22375
858.064	22253
858.197	22363
858.331	22139
858.464	22344
858.597	22143
858.731	22219
858.864	22268
858.997	22211
859.13	22329
859.263	22234
859.396	22428
859.529	22257
859.662	22185
859.795	22310
859.928	22265
860.061	22470
860.194	22379
860.327	22348
860.46	22204
860.592	22443
860.725	22337
860.858	22382
860.99	22314
861.123	22200
861.256	22299
861.388	22196
861.521	22934
861.653	22131
861.786	22131
861.918	22074
862.05	22158
862.183	22249
862.315	22158
862.447	22211
862.58	22177
862.712	21991
862.844	22040
862.976	22150
863.108	22097
863.24	22527
863.372	21930
863.504	22055
863.636	22021
863.768	22074
863.9	22017
864.032	22006
864.164	21937
864.296	22029
864.428	22116
864.559	21964
864.691	22040
864.823	22048
864.954	21934
865.086	21918
865.217	21926
865.349	21888
865.48	21907
865.612	21907
865.743	22055
865.875	22010
866.006	21846
866.137	21873
866.269	21941
866.4	21934
866.531	21797
866.662	21785
866.793	21873
866.924	21865
867.055	21759
867.186	21911
867.317	21846
867.448	21656
867.579	21835
867.71	21720
867.841	21637
867.972	21793
868.103	21728
868.233	21751
868.364	21762
868.495	21922
868.625	21979
868.756	22128
868.886	22017
869.017	22051
869.147	22112
869.278	22093
869.408	22078
869.539	22051
869.669	22036
869.799	22116
869.929	22154
870.06	22272
870.19	22394
870.32	22276
870.45	22421
870.58	22394
870.71	22573
870.84	22607
870.97	22417
871.1	22470
871.23	22599
871.36	22767
871.489	22489
871.619	22630
871.749	22634
871.879	22782
872.008	22713
872.138	22691
872.267	22698
872.397	22561
872.526	22641
872.656	22424
872.785	22462
872.915	22698
873.044	22820
873.173	22664
873.303	22706
873.432	22824
873.561	22835
873.69	22752
873.819	22626
873.948	22611
874.077	22664
874.206	22607
874.335	22721
874.464	22801
874.593	22927
874.722	22900
874.851	22957
874.979	22908
875.108	22885
875.237	22759
875.365	22771
875.494	22862
875.623	22991
875.751	22812
875.88	22923
876.008	23113
876.136	23067
876.265	23250
876.393	23387
876.521	23318
876.65	23497
876.778	23356
876.906	23086
877.034	23105
877.162	23239
877.29	23197
877.418	23098
877.546	23181
877.674	23223
877.802	23307
877.93	23132
878.058	23128
878.185	23117
878.313	23090
878.441	23174
878.568	23048
878.696	23113
878.824	23284
878.951	23261
879.079	23311
879.206	23535
879.333	23277
879.461	23181
879.588	23231
879.715	23421
879.842	23455
879.97	23299
880.097	22923
880.224	22999
880.351	23064
880.478	23102
880.605	23075
880.732	22919
880.859	23414
880.986	23136
881.112	22980
881.239	22900
881.366	22767
881.493	22664
881.619	22573
881.746	22550
881.872	22538
881.999	22504
882.125	22596
882.252	22672
882.378	22561
882.505	22740
882.631	22535
882.757	22318
882.883	22424
883.01	22356
883.136	22272
883.262	22150
883.388	22109
883.514	22356
883.64	22379
883.766	22143
883.892	22067
884.018	22093
884.143	22135
884.269	22360
884.395	21949
884.52	21949
884.646	22029
884.772	21918
884.897	21899
885.023	21899
885.148	22017
885.274	22074
885.399	21987
885.524	21964
885.65	21934
885.775	21861
885.9	21797
886.025	22059
886.15	22032
886.275	21918
886.4	21873
886.525	21797
886.65	21835
886.775	21644
886.9	22002
887.025	22093
887.149	21850
887.274	21648
887.399	21660
887.523	21675
887.648	21652
887.773	21618
887.897	21580
888.021	21663
888.146	21610
888.27	21736
888.395	21705
888.519	21819
888.643	21690
888.767	21827
888.891	21523
889.015	21568
889.139	21564
889.263	21504
889.387	21644
889.511	21618
889.635	21637
889.759	21454
889.883	21466
890.006	21519
890.13	21477
890.254	21431
890.377	21431
890.501	21237
890.624	21135
890.748	21298
890.871	21119
890.995	21123
891.118	20998
891.241	21123
891.364	21043
891.488	21169
891.611	21058
891.734	21039
891.857	21024
891.98	20902
892.103	21043
892.226	21024
892.349	20990
892.471	20880
892.594	20899
892.717	20925
892.839	20891
892.962	20895
893.085	20990
893.207	20914
893.33	20800
893.452	20811
893.575	20994
893.697	20804
893.819	21009
893.941	21135
894.064	21081
894.186	20895
894.308	20834
894.43	20967
894.552	21116
894.674	20952
894.796	20864
894.918	20880
895.04	20910
895.161	21051
895.283	20902
895.405	20872
895.526	20979
895.648	20921
895.769	20906
895.891	21001
896.012	21138
896.134	20891
896.255	20944
896.376	20849
896.498	20872
896.619	20925
896.74	20998
896.861	20986
896.982	21348
897.103	21332
897.224	21180
897.345	21119
897.466	21077
897.587	21100
897.708	21279
897.828	21180
897.949	21077
898.07	20937
898.19	21032
898.311	21195
898.431	20990
898.552	21081
898.672	21154
898.792	21173
898.913	21157
899.033	20990
899.153	20910
899.273	20902
899.393	20876
899.513	20925
899.633	20868
899.753	20914
899.873	20727
899.993	20883
900.113	20826
900.232	20849
900.352	20777
900.472	20674
900.591	20609
900.711	20670
900.83	20552
900.95	20743
901.069	20625
901.189	20560
901.308	20271
901.427	20149
901.546	20233
901.665	20107
901.784	20199
901.904	20096
902.023	20069
902.141	19917
902.26	19769
902.379	19772
902.498	19685
902.617	19628
902.735	19784
902.854	19594
902.973	19639
903.091	19381
903.21	19438
903.328	19316
903.446	19190
903.565	19194
903.683	19301
903.801	18996
903.919	19107
904.038	19206
904.156	18894
904.274	19057
904.392	18894
904.51	18848
904.627	18909
904.745	18935
904.863	18973
904.981	18589
905.098	18593
905.216	18658
905.334	18623
905.451	18490
905.569	18509
905.686	18601
905.803	18467
905.921	18357
906.038	18410
906.155	18346
906.272	18220
906.389	18292
906.506	18159
906.623	18102
906.74	18045
906.857	17878
906.974	18007
907.091	18121
907.208	18205
907.324	18079
907.441	18022
907.557	17901
907.674	17920
907.79	17836
907.907	17745
908.023	17828
908.139	17847
908.256	17729
908.372	17722
908.488	17752
908.604	17551
908.72	17630
908.836	17581
908.952	17482
909.068	17562
909.184	17638
909.3	17577
909.415	17570
909.531	17452
909.647	17246
909.762	17227
909.878	17261
909.993	17193
910.108	17159
910.224	17136
910.339	17189
910.454	17086
910.57	16987
910.685	16885
910.8	17235
910.915	17136
911.03	17025
911.145	16797
911.259	16908
911.374	16782
911.489	16763
911.604	16706
911.718	16462
911.833	16481
911.947	16382
912.062	16344
912.176	16531
912.291	16565
912.405	16569
912.519	16771
912.633	16656
912.748	16683
912.862	16523
912.976	16481
913.09	16211
913.204	16337
913.318	16398
913.431	16466
913.545	16440
913.659	16440
913.772	16299
913.886	16188
914	16078
914.113	16318
914.226	16215
914.34	16131
914.453	16006
914.566	16169
914.68	16109
914.793	15895
914.906	15743
915.019	15808
915.132	15660
915.245	15736
915.358	15732
915.47	15724
915.583	15675
915.696	15644
915.809	15850
915.921	15842
916.034	15603
916.146	15641
916.259	15549
916.371	15660
916.483	15633
916.595	15610
916.708	15534
916.82	15561
916.932	15492
917.044	15500
917.156	15492
917.268	15279
917.38	15367
917.491	15287
917.603	15397
917.715	15439
917.826	15481
917.938	15302
918.049	15218
918.161	15336
918.272	15462
918.384	15408
918.495	15287
918.606	15256
918.717	15005
918.828	15161
918.939	15039
919.05	15062
919.161	14994
919.272	14864
919.383	14918
919.494	15135
919.604	15329
919.715	14963
919.826	15017
919.936	15036
920.047	15123
920.157	14975
920.267	15249
920.378	15123
920.488	15100
920.598	15275
920.708	15298
920.818	15241
920.928	15222
921.038	15283
921.148	15298
921.258	15036
921.368	14910
921.477	14861
921.587	14785
921.697	14663
921.806	14762
921.916	14533
922.025	14465
922.134	14438
922.244	14339
922.353	14503
922.462	14355
922.571	14210
922.68	14077
922.789	14111
922.898	14077
923.007	14024
923.116	14096
923.224	14020
923.333	13925
923.442	13887
923.55	13932
923.659	13849
923.767	13932
923.876	13822
923.984	13959
924.092	13860
924.201	13822
924.309	13776
924.417	13795
924.525	13704
924.633	13636
924.741	14648
924.849	13499
924.956	13632
925.064	13521
925.172	13350
925.279	13438
925.387	13415
925.494	13422
925.602	13594
925.709	13453
925.816	13384
925.924	13350
926.031	13419
926.138	13343
926.245	13483
926.352	13289
926.459	13400
926.566	13381
926.673	13255
926.779	13244
926.886	13171
926.993	13065
927.099	13107
927.206	13000
927.312	12890
927.419	13038
927.525	12981
927.631	13027
927.737	12825
927.843	12776
927.95	12715
928.056	12852
928.162	12810
928.267	12798
928.373	13438
928.479	12951
928.585	12627
928.69	12623
928.796	12764
928.901	12684
929.007	12521
929.112	12620
929.218	12635
929.323	12593
929.428	12563
929.533	12620
929.638	12479
929.743	12456
929.848	12551
929.953	12456
930.058	12353
930.163	12148
930.267	12178
930.372	12281
930.477	12190
930.581	12357
930.685	12285
930.79	12060
930.894	12091
930.998	12049
931.103	12194
931.207	11832
931.311	11741
931.415	11649
931.519	11448
931.623	11455
