Data from test_V78500241_526.txt Node
Date: Fri Mar 25 15:45:26 CST 2022
User: usil
Spectrometer: V785-0024
Trigger mode: 0
Integration Time (sec): 4.000000E-1
Scans to average: 1
Nonlinearity correction enabled: false
Boxcar width: 0
Storing dark spectrum: false
XAxis mode: Wavelengths
Number of Pixels in Spectrum: 1024
>>>>>Begin Spectral Data<<<<<
801.071	27956
801.214	27857
801.356	27675
801.499	27595
801.641	27583
801.783	27488
801.926	27595
802.068	27420
802.211	27492
802.353	27439
802.496	27233
802.638	27176
802.78	27116
802.923	27268
803.065	27058
803.208	27207
803.35	27226
803.492	27211
803.635	27310
803.777	27226
803.919	27374
804.061	27545
804.204	27344
804.346	27180
804.488	27233
804.63	27488
804.773	27241
804.915	27408
805.057	27504
805.199	27359
805.341	27488
805.483	27370
805.626	27325
805.768	27279
805.91	27424
806.052	27511
806.194	27416
806.336	27690
806.478	27530
806.62	27534
806.762	27603
806.904	27755
807.046	27934
807.188	27991
807.33	27850
807.472	27945
807.614	27785
807.756	27918
807.898	27644
808.04	27698
808.182	27625
808.324	27800
808.465	27899
808.607	27960
808.749	28158
808.891	28257
809.033	28291
809.174	28253
809.316	28238
809.458	28192
809.6	28234
809.741	28295
809.883	28272
810.025	28318
810.166	28356
810.308	28405
810.45	28314
810.591	28382
810.733	28116
810.875	28139
811.016	28040
811.158	28086
811.299	28337
811.441	28265
811.582	28265
811.724	28025
811.865	28204
812.007	28124
812.148	27983
812.29	28154
812.431	28310
812.573	28573
812.714	28561
812.855	28694
812.997	28828
813.138	28908
813.279	28850
813.421	28782
813.562	28653
813.703	28386
813.845	28394
813.986	28139
814.127	27960
814.268	27873
814.41	27755
814.551	27755
814.692	27854
814.833	27854
814.974	27850
815.115	27816
815.256	27679
815.397	27675
815.539	27759
815.68	27705
815.821	27496
815.962	27595
816.103	27728
816.244	27583
816.385	27435
816.526	27382
816.666	27180
816.807	27127
816.948	27138
817.089	27116
817.23	27180
817.371	26979
817.512	27180
817.653	27096
817.793	27096
817.934	27032
818.075	27017
818.216	27146
818.356	27005
818.497	27005
818.638	26853
818.778	26849
818.919	26998
819.06	26910
819.2	27096
819.341	27173
819.481	27119
819.622	27180
819.762	27454
819.903	27310
820.043	27184
820.184	27169
820.324	27207
820.465	27302
820.605	27256
820.746	27184
820.886	27180
821.026	27169
821.167	27112
821.307	27294
821.447	27089
821.588	27051
821.728	26823
821.868	26762
822.008	26621
822.149	26571
822.289	26579
822.429	26298
822.569	26153
822.709	26233
822.849	26176
822.99	26050
823.13	26043
823.27	25883
823.41	25959
823.55	25833
823.69	25917
823.83	25852
823.97	25982
824.11	25639
824.25	25575
824.389	25681
824.529	25852
824.669	25841
824.809	25883
824.949	25738
825.089	25788
825.228	25727
825.368	25712
825.508	25635
825.648	25696
825.787	25544
825.927	25613
826.067	25628
826.206	25590
826.346	25681
826.485	25674
826.625	25601
826.765	25693
826.904	25620
827.044	25392
827.183	25365
827.323	25270
827.462	25468
827.601	25377
827.741	25114
827.88	25377
828.02	25339
828.159	25232
828.298	25358
828.437	25285
828.577	25247
828.716	25377
828.855	25221
828.994	25122
829.134	25141
829.273	25129
829.412	25034
829.551	24977
829.69	24897
829.829	25076
829.968	25088
830.107	25137
830.246	24992
830.385	24939
830.524	24966
830.663	24810
830.802	24779
830.941	24635
831.08	24627
831.219	24753
831.357	24715
831.496	24886
831.635	24673
831.774	24475
831.913	24403
832.051	24426
832.19	24410
832.329	24502
832.467	24365
832.606	24235
832.744	24235
832.883	24399
833.022	24197
833.16	24376
833.299	24350
833.437	24327
833.576	24426
833.714	24292
833.852	24426
833.991	24361
834.129	24464
834.267	24365
834.406	24365
834.544	24475
834.682	24372
834.821	24391
834.959	24521
835.097	24376
835.235	24296
835.373	24525
835.511	24426
835.65	24186
835.788	24148
835.926	24243
836.064	24095
836.202	24117
836.34	24144
836.478	24213
836.615	24232
836.753	24106
836.891	24338
837.029	24330
837.167	24190
837.305	23984
837.443	24022
837.58	24030
837.718	24026
837.856	24117
837.993	23889
838.131	23969
838.269	23954
838.406	23969
838.544	24007
838.681	23729
838.819	23775
838.956	23535
839.094	23490
839.231	23604
839.369	23665
839.506	23832
839.643	23733
839.781	23516
839.918	23459
840.055	23703
840.193	23592
840.33	23421
840.467	23383
840.604	23459
840.742	23695
840.879	23406
841.016	23520
841.153	23296
841.29	23486
841.427	23516
841.564	23676
841.701	23547
841.838	23379
841.975	23337
842.112	23349
842.249	23155
842.385	23151
842.522	23307
842.659	23280
842.796	23200
842.933	23117
843.069	23044
843.206	23090
843.343	23181
843.479	23185
843.616	23151
843.752	22923
843.889	23006
844.025	23090
844.162	23003
844.298	22991
844.435	22904
844.571	22908
844.708	23033
844.844	23094
844.98	23029
845.117	22919
845.253	22961
845.389	22873
845.525	22843
845.661	22896
845.798	22713
845.934	22755
846.07	22561
846.206	22630
846.342	22668
846.478	22599
846.614	22596
846.75	22363
846.886	22478
847.022	22481
847.158	22641
847.294	22405
847.429	22424
847.565	22344
847.701	22668
847.837	22173
847.972	22166
848.108	22230
848.244	22169
848.379	22048
848.515	21941
848.65	21979
848.786	22013
848.921	22082
849.057	22086
849.192	22055
849.328	22002
849.463	21975
849.598	21968
849.734	21888
849.869	21827
850.004	21892
850.14	21953
850.275	21766
850.41	21625
850.545	21793
850.68	21698
850.815	21743
850.95	21781
851.085	21964
851.22	21884
851.355	21876
851.49	21812
851.625	21720
851.76	21701
851.895	21755
852.03	21656
852.165	21656
852.299	21789
852.434	21880
852.569	21827
852.703	21869
852.838	21762
852.973	21949
853.107	21861
853.242	21785
853.376	21675
853.511	21583
853.645	21583
853.78	21648
853.914	21523
854.048	21583
854.183	21553
854.317	21629
854.451	21728
854.585	21553
854.72	21701
854.854	21622
854.988	21595
855.122	21526
855.256	21359
855.39	21568
855.524	21732
855.658	21572
855.792	21587
855.926	21637
856.06	21656
856.194	21717
856.327	21587
856.461	21458
856.595	21447
856.729	21507
856.862	21812
856.996	21576
857.13	21785
857.263	21823
857.397	21728
857.53	21660
857.664	21587
857.797	21595
857.931	21652
858.064	21591
858.197	21648
858.331	21690
858.464	21473
858.597	21477
858.731	21507
858.864	21500
858.997	21507
859.13	21564
859.263	21561
859.396	21694
859.529	21606
859.662	21519
859.795	21424
859.928	21625
860.061	21637
860.194	21717
860.327	21587
860.46	21648
860.592	21679
860.725	21679
860.858	21690
860.99	21587
861.123	21526
861.256	21641
861.388	21545
861.521	22109
861.653	21412
861.786	21431
861.918	21428
862.05	21424
862.183	21382
862.315	21538
862.447	21705
862.58	21405
862.712	21408
862.844	21298
862.976	21393
863.108	21367
863.24	21759
863.372	21142
863.504	21306
863.636	21264
863.768	21351
863.9	21298
864.032	21135
864.164	21226
864.296	21294
864.428	21302
864.559	21272
864.691	21313
864.823	21344
864.954	21180
865.086	21241
865.217	21093
865.349	21173
865.48	21180
865.612	21154
865.743	21291
865.875	21245
866.006	21184
866.137	21195
866.269	21074
866.4	21184
866.531	21131
866.662	21070
866.793	21252
866.924	21173
867.055	21173
867.186	21074
867.317	21013
867.448	20944
867.579	21180
867.71	21074
867.841	21116
867.972	21203
868.103	21001
868.233	21184
868.364	21230
868.495	21211
868.625	21291
868.756	21329
868.886	21272
869.017	21329
869.147	21424
869.278	21435
869.408	21443
869.539	21374
869.669	21405
869.799	21310
869.929	21443
870.06	21542
870.19	21739
870.32	21618
870.45	21641
870.58	21709
870.71	21739
870.84	21911
870.97	21656
871.1	21622
871.23	21953
871.36	21979
871.489	21793
871.619	21968
871.749	21945
871.879	22074
872.008	22086
872.138	21804
872.267	21869
872.397	21838
872.526	21751
872.656	21804
872.785	21838
872.915	22013
873.044	22090
873.173	21907
873.303	21911
873.432	21918
873.561	22207
873.69	21888
873.819	21857
873.948	22017
874.077	22135
874.206	21941
874.335	22051
874.464	22044
874.593	22131
874.722	22291
874.851	22242
874.979	22192
875.108	22261
875.237	22116
875.365	22055
875.494	22013
875.623	22238
875.751	22181
875.88	22200
876.008	22287
876.136	22352
876.265	22584
876.393	22656
876.521	22706
876.65	22687
876.778	22596
876.906	22455
877.034	22462
877.162	22481
877.29	22455
877.418	22512
877.546	22470
877.674	22603
877.802	22485
877.93	22447
878.058	22455
878.185	22409
878.313	22306
878.441	22478
878.568	22303
878.696	22542
878.824	22466
878.951	22577
879.079	22710
879.206	22805
879.333	22622
879.461	22470
879.588	22740
879.715	22847
879.842	22774
879.97	22527
880.097	22459
880.224	22272
880.351	22379
880.478	22360
880.605	22303
880.732	22325
880.859	22542
880.986	22291
881.112	22322
881.239	22310
881.366	22013
881.493	21953
881.619	21922
881.746	21907
881.872	21835
881.999	21922
882.125	21797
882.252	21895
882.378	21930
882.505	22036
882.631	21918
882.757	21705
882.883	21728
883.01	21599
883.136	21606
883.262	21576
883.388	21542
883.514	21606
883.64	21709
883.766	21477
883.892	21329
884.018	21511
884.143	21595
884.269	21545
884.395	21363
884.52	21351
884.646	21329
884.772	21275
884.897	21116
885.023	21302
885.148	21264
885.274	21393
885.399	21393
885.524	21252
885.65	21260
885.775	21222
885.9	21298
886.025	21340
886.15	21325
886.275	21188
886.4	21089
886.525	21203
886.65	21154
886.775	21150
886.9	21363
887.025	21428
887.149	21317
887.274	21077
887.399	21024
887.523	21020
887.648	21047
887.773	20998
887.897	20990
888.021	21150
888.146	20960
888.27	21055
888.395	21157
888.519	21127
888.643	21055
888.767	21017
888.891	20910
889.015	20815
889.139	20933
889.263	20823
889.387	20883
889.511	20998
889.635	20960
889.759	20667
889.883	20781
890.006	20872
890.13	20788
890.254	20769
890.377	20758
890.501	20556
890.624	20629
890.748	20526
890.871	20465
890.995	20381
891.118	20328
891.241	20393
891.364	20465
891.488	20438
891.611	20324
891.734	20442
891.857	20492
891.98	20358
892.103	20415
892.226	20427
892.349	20278
892.471	20320
892.594	20240
892.717	20358
892.839	20046
892.962	20419
893.085	20351
893.207	20195
893.33	20103
893.452	20309
893.575	20404
893.697	20301
893.819	20526
893.941	20488
894.064	20317
894.186	20161
894.308	20187
894.43	20366
894.552	20480
894.674	20454
894.796	20157
894.918	20271
895.04	20035
895.161	20362
895.283	20370
895.405	20218
895.526	20286
895.648	20355
895.769	20229
895.891	20294
896.012	20431
896.134	20385
896.255	20317
896.376	20229
896.498	20225
896.619	20286
896.74	20267
896.861	20282
896.982	20697
897.103	20724
897.224	20537
897.345	20454
897.466	20389
897.587	20549
897.708	20697
897.828	20530
897.949	20526
898.07	20431
898.19	20549
898.311	20503
898.431	20396
898.552	20419
898.672	20575
898.792	20659
898.913	20549
899.033	20362
899.153	20366
899.273	20286
899.393	20263
899.513	20328
899.633	20225
899.753	20476
899.873	20103
899.993	20210
900.113	20206
900.232	20191
900.352	20142
900.472	20107
900.591	19940
900.711	20130
900.83	20027
900.95	20111
901.069	20081
901.189	19944
901.308	19807
901.427	19685
901.546	19613
901.665	19624
901.784	19575
901.904	19578
902.023	19384
902.141	19209
902.26	19152
902.379	19316
902.498	19187
902.617	19202
902.735	19175
902.854	19194
902.973	19053
903.091	18856
903.21	18795
903.328	18597
903.446	18867
903.565	18612
903.683	18673
903.801	18563
903.919	18612
904.038	18593
904.156	18365
904.274	18445
904.392	18407
904.51	18338
904.627	18407
904.745	18418
904.863	18521
904.981	18220
905.098	18133
905.216	18011
905.334	18098
905.451	18060
905.569	18011
905.686	18148
905.803	17999
905.921	17843
906.038	17935
906.155	17798
906.272	17851
906.389	17714
906.506	17684
906.623	17551
906.74	17535
906.857	17440
906.974	17573
907.091	17570
907.208	17764
907.324	17642
907.441	17520
907.557	17330
907.674	17345
907.79	17204
907.907	17269
908.023	17368
908.139	17258
908.256	17299
908.372	17204
908.488	17239
908.604	17052
908.72	16953
908.836	16957
908.952	17022
909.068	17067
909.184	17185
909.3	17037
909.415	17060
909.531	17018
909.647	16752
909.762	16847
909.878	16786
909.993	16797
910.108	16664
910.224	16565
910.339	16694
910.454	16611
910.57	16538
910.685	16421
910.8	16767
910.915	16645
911.03	16493
911.145	16367
911.259	16291
911.374	16341
911.489	16333
911.604	16131
911.718	15991
911.833	16040
911.947	15968
912.062	15953
912.176	16067
912.291	16131
912.405	16139
912.519	16314
912.633	16204
912.748	16093
912.862	15945
912.976	15903
913.09	15713
913.204	15816
913.318	15907
913.431	16002
913.545	15930
913.659	15987
913.772	15838
913.886	15812
914	15663
914.113	15759
914.226	15816
914.34	15679
914.453	15542
914.566	15720
914.68	15526
914.793	15466
914.906	15272
915.019	15386
915.132	15176
915.245	15294
915.358	15279
915.47	15351
915.583	15260
915.696	15332
915.809	15249
915.921	15405
916.034	15264
916.146	15161
916.259	15093
916.371	15317
916.483	15184
916.595	15077
916.708	15135
916.82	15135
916.932	15062
917.044	15085
917.156	14998
917.268	14952
917.38	14914
917.491	15032
917.603	14868
917.715	14979
917.826	15013
917.938	14796
918.049	14750
918.161	14811
918.272	15028
918.384	15020
918.495	14883
918.606	14655
918.717	14644
918.828	14678
918.939	14731
919.05	14533
919.161	14674
919.272	14442
919.383	14571
919.494	14765
919.604	14864
919.715	14640
919.826	14571
919.936	14625
920.047	14651
920.157	14613
920.267	14781
920.378	14689
920.488	14590
920.598	14826
920.708	14868
920.818	14750
920.928	14686
921.038	14804
921.148	14800
921.258	14610
921.368	14450
921.477	14423
921.587	14381
921.697	14275
921.806	14396
921.916	14294
922.025	13986
922.134	14031
922.244	13982
922.353	13982
922.462	13986
922.571	13803
922.68	13693
922.789	13643
922.898	13662
923.007	13620
923.116	13723
923.224	13647
923.333	13586
923.442	13426
923.55	13445
923.659	13415
923.767	13510
923.876	13411
923.984	13525
924.092	13358
924.201	13476
924.309	13434
924.417	13350
924.525	13259
924.633	13297
924.741	14176
924.849	13209
924.956	13190
925.064	13118
925.172	13000
925.279	12977
925.387	13160
925.494	13057
925.602	13213
925.709	13190
925.816	12981
925.924	12996
926.031	13118
926.138	13000
926.245	13114
926.352	12916
926.459	13050
926.566	13122
926.673	12985
926.779	12859
926.886	12833
926.993	12612
927.099	12627
927.206	12578
927.312	12578
927.419	12589
927.525	12677
927.631	12673
927.737	12528
927.843	12426
927.95	12285
928.056	12422
928.162	12350
928.267	12498
928.373	13126
928.479	12506
928.585	12262
928.69	12380
928.796	12437
928.901	12334
929.007	12209
929.112	12262
929.218	12205
929.323	12144
929.428	12171
929.533	12270
929.638	12041
929.743	12182
929.848	12216
929.953	12041
930.058	12068
930.163	11874
930.267	11904
930.372	12003
930.477	11859
930.581	11973
930.685	11984
930.79	11764
930.894	11729
930.998	11726
931.103	11882
931.207	11463
931.311	11379
931.415	11250
931.519	11105
931.623	11212
