Data from test_V78500241_1731.txt Node
Date: Fri Mar 25 15:53:47 CST 2022
User: usil
Spectrometer: V785-0024
Trigger mode: 0
Integration Time (sec): 4.000000E-1
Scans to average: 1
Nonlinearity correction enabled: false
Boxcar width: 0
Storing dark spectrum: false
XAxis mode: Wavelengths
Number of Pixels in Spectrum: 1024
>>>>>Begin Spectral Data<<<<<
801.071	27899
801.214	27975
801.356	27736
801.499	27572
801.641	27686
801.783	27595
801.926	27644
802.068	27447
802.211	27469
802.353	27310
802.496	27150
802.638	27104
802.78	27077
802.923	27104
803.065	27047
803.208	27123
803.35	27108
803.492	27275
803.635	27332
803.777	27173
803.919	27477
804.061	27694
804.204	27389
804.346	27268
804.488	27096
804.63	27572
804.773	27260
804.915	27424
805.057	27507
805.199	27359
805.341	27450
805.483	27564
805.626	27462
805.768	27477
805.91	27420
806.052	27564
806.194	27515
806.336	27671
806.478	27386
806.62	27496
806.762	27629
806.904	27751
807.046	28029
807.188	27972
807.33	27918
807.472	27949
807.614	27991
807.756	27941
807.898	27785
808.04	27835
808.182	27686
808.324	27781
808.465	27861
808.607	27949
808.749	28093
808.891	28135
809.033	28337
809.174	28272
809.316	28196
809.458	28143
809.6	28013
809.741	28246
809.883	28268
810.025	28375
810.166	28542
810.308	28481
810.45	28398
810.591	28280
810.733	28226
810.875	28135
811.016	28067
811.158	27983
811.299	28181
811.441	28276
811.582	28421
811.724	28223
811.865	28078
812.007	28261
812.148	28257
812.29	28200
812.431	28204
812.573	28401
812.714	28622
812.855	28546
812.997	28786
813.138	28869
813.279	28771
813.421	28721
813.562	28641
813.703	28443
813.845	28462
813.986	28128
814.127	27926
814.268	27956
814.41	27934
814.551	27842
814.692	27895
814.833	27724
814.974	27778
815.115	27743
815.256	27542
815.397	27652
815.539	27755
815.68	27557
815.821	27534
815.962	27564
816.103	27553
816.244	27450
816.385	27416
816.526	27435
816.666	27154
816.807	27146
816.948	27157
817.089	27142
817.23	27077
817.371	27123
817.512	27195
817.653	26914
817.793	27043
817.934	27108
818.075	27119
818.216	27036
818.356	27123
818.497	26910
818.638	26727
818.778	26796
818.919	26864
819.06	27005
819.2	26952
819.341	27214
819.481	27043
819.622	27222
819.762	27481
819.903	27412
820.043	27264
820.184	27260
820.324	27260
820.465	27245
820.605	27161
820.746	27332
820.886	27123
821.026	27291
821.167	27184
821.307	27329
821.447	27169
821.588	27058
821.728	26952
821.868	26735
822.008	26750
822.149	26575
822.289	26590
822.429	26259
822.569	26233
822.709	26317
822.849	26111
822.99	26088
823.13	26043
823.27	26046
823.41	25833
823.55	25833
823.69	25940
823.83	25997
823.97	25913
824.11	25769
824.25	25750
824.389	25693
824.529	25894
824.669	25738
824.809	25871
824.949	25811
825.089	25791
825.228	25822
825.368	25689
825.508	25548
825.648	25666
825.787	25731
825.927	25639
826.067	25605
826.206	25643
826.346	25685
826.485	25662
826.625	25586
826.765	25780
826.904	25731
827.044	25472
827.183	25255
827.323	25335
827.462	25350
827.601	25308
827.741	25388
827.88	25499
828.02	25324
828.159	25384
828.298	25377
828.437	25362
828.577	25259
828.716	25514
828.855	25320
828.994	25129
829.134	24992
829.273	24977
829.412	25084
829.551	24939
829.69	25183
829.829	25053
829.968	25110
830.107	25145
830.246	25141
830.385	25050
830.524	24996
830.663	24844
830.802	24658
830.941	24639
831.08	24669
831.219	24738
831.357	24650
831.496	24878
831.635	24719
831.774	24441
831.913	24566
832.051	24608
832.19	24502
832.329	24585
832.467	24292
832.606	24232
832.744	24155
832.883	24300
833.022	24277
833.16	24410
833.299	24258
833.437	24433
833.576	24452
833.714	24456
833.852	24327
833.991	24414
834.129	24395
834.267	24505
834.406	24376
834.544	24407
834.682	24441
834.821	24296
834.959	24585
835.097	24311
835.235	24437
835.373	24254
835.511	24365
835.65	24167
835.788	24365
835.926	24121
836.064	23958
836.202	24018
836.34	24277
836.478	24262
836.615	24178
836.753	24239
836.891	24346
837.029	24334
837.167	24148
837.305	24155
837.443	24011
837.58	24003
837.718	24091
837.856	24114
837.993	23912
838.131	24068
838.269	23992
838.406	24015
838.544	23874
838.681	23634
838.819	23714
838.956	23425
839.094	23512
839.231	23581
839.369	23699
839.506	23939
839.643	23882
839.781	23474
839.918	23436
840.055	23554
840.193	23379
840.33	23459
840.467	23444
840.604	23452
840.742	23608
840.879	23356
841.016	23509
841.153	23277
841.29	23520
841.427	23501
841.564	23448
841.701	23448
841.838	23406
841.975	23239
842.112	23341
842.249	23299
842.385	23159
842.522	23421
842.659	23242
842.796	23162
842.933	23098
843.069	23239
843.206	23075
843.343	23288
843.479	23178
843.616	23098
843.752	23083
843.889	23033
844.025	22984
844.162	22869
844.298	23018
844.435	22953
844.571	22847
844.708	23075
844.844	22965
844.98	22972
845.117	23117
845.253	22759
845.389	22778
845.525	22889
845.661	22831
845.798	22687
845.934	22736
846.07	22767
846.206	22793
846.342	22831
846.478	22664
846.614	22535
846.75	22417
846.886	22295
847.022	22443
847.158	22405
847.294	22489
847.429	22485
847.565	22310
847.701	22626
847.837	22143
847.972	22173
848.108	22147
848.244	22188
848.379	22036
848.515	21941
848.65	21941
848.786	22086
848.921	22067
849.057	22074
849.192	22078
849.328	22082
849.463	21979
849.598	21968
849.734	21926
849.869	21892
850.004	21812
850.14	21804
850.275	21724
850.41	21686
850.545	21682
850.68	21743
850.815	21770
850.95	21800
851.085	21945
851.22	21861
851.355	21652
851.49	21770
851.625	21774
851.76	21739
851.895	21892
852.03	21751
852.165	21679
852.299	21789
852.434	21751
852.569	21838
852.703	21922
852.838	21800
852.973	21869
853.107	21899
853.242	21720
853.376	21583
853.511	21458
853.645	21549
853.78	21538
853.914	21759
854.048	21629
854.183	21530
854.317	21679
854.451	21793
854.585	21614
854.72	21530
854.854	21789
854.988	21538
855.122	21568
855.256	21439
855.39	21496
855.524	21549
855.658	21675
855.792	21564
855.926	21633
856.06	21610
856.194	21785
856.327	21580
856.461	21496
856.595	21542
856.729	21637
856.862	21618
856.996	21633
857.13	21660
857.263	21728
857.397	21694
857.53	21557
857.664	21648
857.797	21583
857.931	21625
858.064	21679
858.197	21701
858.331	21667
858.464	21542
858.597	21435
858.731	21538
858.864	21595
858.997	21545
859.13	21610
859.263	21641
859.396	21614
859.529	21568
859.662	21595
859.795	21523
859.928	21561
860.061	21766
860.194	21892
860.327	21637
860.46	21545
860.592	21705
860.725	21770
860.858	21656
860.99	21656
861.123	21538
861.256	21641
861.388	21618
861.521	22447
861.653	21469
861.786	21412
861.918	21511
862.05	21507
862.183	21507
862.315	21530
862.447	21515
862.58	21534
862.712	21389
862.844	21218
862.976	21454
863.108	21443
863.24	21698
863.372	21237
863.504	21260
863.636	21272
863.768	21279
863.9	21268
864.032	21329
864.164	21302
864.296	21397
864.428	21408
864.559	21378
864.691	21416
864.823	21252
864.954	21241
865.086	21207
865.217	21294
865.349	21157
865.48	21116
865.612	21169
865.743	21306
865.875	21230
866.006	21173
866.137	21199
866.269	21199
866.4	21268
866.531	21287
866.662	21135
866.793	21150
866.924	21100
867.055	21173
867.186	21203
867.317	21085
867.448	20986
867.579	21036
867.71	21096
867.841	21009
867.972	21146
868.103	21123
868.233	21104
868.364	21108
868.495	21264
868.625	21260
868.756	21443
868.886	21317
869.017	21420
869.147	21473
869.278	21500
869.408	21473
869.539	21439
869.669	21572
869.799	21462
869.929	21515
870.06	21492
870.19	21648
870.32	21595
870.45	21720
870.58	21838
870.71	21876
870.84	21838
870.97	21781
871.1	21736
871.23	21922
871.36	21873
871.489	21827
871.619	21979
871.749	21873
871.879	21956
872.008	22135
872.138	21987
872.267	21903
872.397	21808
872.526	21865
872.656	21861
872.785	21804
872.915	22074
873.044	21949
873.173	22006
873.303	22135
873.432	22143
873.561	22048
873.69	22055
873.819	22002
873.948	22101
874.077	21915
874.206	22032
874.335	22036
874.464	22059
874.593	22200
874.722	22139
874.851	22246
874.979	22139
875.108	22291
875.237	22196
875.365	21945
875.494	22223
875.623	22337
875.751	22272
875.88	22109
876.008	22303
876.136	22459
876.265	22459
876.393	22771
876.521	22717
876.65	22653
876.778	22675
876.906	22542
877.034	22375
877.162	22436
877.29	22508
877.418	22466
877.546	22470
877.674	22527
877.802	22474
877.93	22497
878.058	22538
878.185	22436
878.313	22481
878.441	22489
878.568	22459
878.696	22565
878.824	22603
878.951	22592
879.079	22782
879.206	22767
879.333	22698
879.461	22637
879.588	22584
879.715	22805
879.842	22763
879.97	22717
880.097	22432
880.224	22398
880.351	22363
880.478	22447
880.605	22363
880.732	22394
880.859	22611
880.986	22291
881.112	22303
881.239	22181
881.366	22246
881.493	22120
881.619	22010
881.746	22082
881.872	21911
881.999	21915
882.125	21888
882.252	21960
882.378	21873
882.505	22120
882.631	21842
882.757	21755
882.883	21789
883.01	21694
883.136	21660
883.262	21538
883.388	21291
883.514	21587
883.64	21633
883.766	21614
883.892	21382
884.018	21477
884.143	21500
884.269	21663
884.395	21351
884.52	21222
884.646	21462
884.772	21256
884.897	21184
885.023	21351
885.148	21447
885.274	21545
885.399	21336
885.524	21340
885.65	21336
885.775	21264
885.9	21317
886.025	21408
886.15	21298
886.275	21203
886.4	21093
886.525	21237
886.65	21222
886.775	21127
886.9	21370
887.025	21523
887.149	21348
887.274	21089
887.399	21017
887.523	21051
887.648	20914
887.773	21051
887.897	21077
888.021	21024
888.146	20998
888.27	21176
888.395	21249
888.519	21039
888.643	21150
888.767	21085
888.891	20960
889.015	20845
889.139	20902
889.263	20815
889.387	20963
889.511	21028
889.635	20975
889.759	20815
889.883	20880
890.006	20819
890.13	21020
890.254	20697
890.377	20880
890.501	20617
890.624	20556
890.748	20636
890.871	20552
890.995	20400
891.118	20358
891.241	20396
891.364	20454
891.488	20541
891.611	20533
891.734	20396
891.857	20393
891.98	20450
892.103	20317
892.226	20476
892.349	20393
892.471	20214
892.594	20298
892.717	20305
892.839	20374
892.962	20412
893.085	20347
893.207	20290
893.33	20229
893.452	20161
893.575	20252
893.697	20191
893.819	20526
893.941	20457
894.064	20431
894.186	20317
894.308	20221
894.43	20240
894.552	20495
894.674	20278
894.796	20221
894.918	20187
895.04	20271
895.161	20423
895.283	20286
895.405	20240
895.526	20332
895.648	20271
895.769	20362
895.891	20332
896.012	20282
896.134	20381
896.255	20206
896.376	20366
896.498	20221
896.619	20396
896.74	20301
896.861	20366
896.982	20655
897.103	20902
897.224	20552
897.345	20617
897.466	20438
897.587	20480
897.708	20617
897.828	20655
897.949	20442
898.07	20396
898.19	20457
898.311	20571
898.431	20488
898.552	20571
898.672	20568
898.792	20629
898.913	20541
899.033	20442
899.153	20298
899.273	20142
899.393	20313
899.513	20317
899.633	20290
899.753	20278
899.873	20149
899.993	20339
900.113	20244
900.232	20248
900.352	20183
900.472	20134
900.591	20016
900.711	19947
900.83	20012
900.95	20100
901.069	20077
901.189	19993
901.308	19715
901.427	19620
901.546	19643
901.665	19643
901.784	19734
901.904	19499
902.023	19396
902.141	19251
902.26	19297
902.379	19194
902.498	19126
902.617	19050
902.735	19164
902.854	19053
902.973	18916
903.091	18768
903.21	18749
903.328	18867
903.446	18646
903.565	18665
903.683	18654
903.801	18525
903.919	18646
904.038	18445
904.156	18369
904.274	18441
904.392	18323
904.51	18346
904.627	18380
904.745	18486
904.863	18445
904.981	18190
905.098	18072
905.216	18026
905.334	18140
905.451	18053
905.569	17927
905.686	18064
905.803	17908
905.921	17805
906.038	17790
906.155	17843
906.272	17866
906.389	17695
906.506	17524
906.623	17482
906.74	17547
906.857	17532
906.974	17532
907.091	17581
907.208	17672
907.324	17543
907.441	17433
907.557	17395
907.674	17246
907.79	17174
907.907	17261
908.023	17269
908.139	17311
908.256	17254
908.372	17212
908.488	17220
908.604	16972
908.72	16972
908.836	17018
908.952	16938
909.068	17037
909.184	17056
909.3	16957
909.415	17022
909.531	17052
909.647	16736
909.762	16679
909.878	16744
909.993	16759
910.108	16672
910.224	16679
910.339	16755
910.454	16596
910.57	16504
910.685	16493
910.8	16748
910.915	16706
911.03	16554
911.145	16436
911.259	16238
911.374	16337
911.489	16268
911.604	16261
911.718	15991
911.833	16032
911.947	16021
912.062	15915
912.176	16036
912.291	15983
912.405	15998
912.519	16394
912.633	16246
912.748	16154
912.862	15987
912.976	15884
913.09	15724
913.204	15911
913.318	15907
913.431	15930
913.545	15907
913.659	15945
913.772	15854
913.886	15709
914	15648
914.113	15762
914.226	15838
914.34	15629
914.453	15538
914.566	15732
914.68	15542
914.793	15507
914.906	15329
915.019	15272
915.132	15351
915.245	15249
915.358	15222
915.47	15298
915.583	15188
915.696	15272
915.809	15313
915.921	15245
916.034	15237
916.146	15112
916.259	15116
916.371	15226
916.483	15180
916.595	15165
916.708	15089
916.82	15157
916.932	15097
917.044	15043
917.156	15051
917.268	14815
917.38	14963
917.491	14918
917.603	14910
917.715	14918
917.826	14956
917.938	14796
918.049	14712
918.161	14815
918.272	15058
918.384	14998
918.495	14849
918.606	14648
918.717	14488
918.828	14686
918.939	14670
919.05	14629
919.161	14708
919.272	14400
919.383	14495
919.494	14674
919.604	14868
919.715	14564
919.826	14530
919.936	14610
920.047	14754
920.157	14754
920.267	14815
920.378	14765
920.488	14659
920.598	14750
920.708	14933
920.818	14724
920.928	14724
921.038	14887
921.148	14853
921.258	14564
921.368	14450
921.477	14419
921.587	14362
921.697	14240
921.806	14263
921.916	14229
922.025	14081
922.134	14035
922.244	13917
922.353	14065
922.462	13955
922.571	13822
922.68	13590
922.789	13753
922.898	13582
923.007	13586
923.116	13639
923.224	13655
923.333	13628
923.442	13487
923.55	13483
923.659	13430
923.767	13464
923.876	13381
923.984	13544
924.092	13396
924.201	13388
924.309	13312
924.417	13403
924.525	13278
924.633	13308
924.741	14058
924.849	13107
924.956	13228
925.064	13213
925.172	13046
925.279	13004
925.387	13046
925.494	13012
925.602	13183
925.709	13095
925.816	12962
925.924	12954
926.031	13050
926.138	12981
926.245	13065
926.352	12947
926.459	13110
926.566	13126
926.673	12901
926.779	12859
926.886	12787
926.993	12642
927.099	12627
927.206	12601
927.312	12544
927.419	12635
927.525	12635
927.631	12608
927.737	12486
927.843	12456
927.95	12300
928.056	12445
928.162	12456
928.267	12521
928.373	13046
928.479	12563
928.585	12266
928.69	12391
928.796	12422
928.901	12319
929.007	12152
929.112	12399
929.218	12388
929.323	12125
929.428	12095
929.533	12361
929.638	12072
929.743	12095
929.848	12144
929.953	12117
930.058	11920
930.163	11958
930.267	11790
930.372	11969
930.477	11767
930.581	12178
930.685	11885
930.79	11657
930.894	11813
930.998	11615
931.103	11863
931.207	11524
931.311	11459
931.415	11337
931.519	11121
931.623	11098
