Data from test_V78500241_682.txt Node
Date: Fri Mar 25 15:46:31 CST 2022
User: usil
Spectrometer: V785-0024
Trigger mode: 0
Integration Time (sec): 4.000000E-1
Scans to average: 1
Nonlinearity correction enabled: false
Boxcar width: 0
Storing dark spectrum: false
XAxis mode: Wavelengths
Number of Pixels in Spectrum: 1024
>>>>>Begin Spectral Data<<<<<
801.071	28135
801.214	28051
801.356	27926
801.499	27873
801.641	27667
801.783	27633
801.926	27831
802.068	27736
802.211	27591
802.353	27667
802.496	27424
802.638	27340
802.78	27329
802.923	27298
803.065	27355
803.208	27260
803.35	27481
803.492	27587
803.635	27663
803.777	27504
803.919	27656
804.061	27823
804.204	27606
804.346	27427
804.488	27542
804.63	27641
804.773	27427
804.915	27610
805.057	27679
805.199	27644
805.341	27618
805.483	27739
805.626	27766
805.768	27652
805.91	27732
806.052	27857
806.194	27667
806.336	27903
806.478	27762
806.62	27762
806.762	27949
806.904	28074
807.046	28352
807.188	28192
807.33	28139
807.472	28173
807.614	27983
807.756	28090
807.898	27960
808.04	28006
808.182	27991
808.324	28059
808.465	28044
808.607	28185
808.749	28421
808.891	28557
809.033	28744
809.174	28523
809.316	28497
809.458	28428
809.6	28569
809.741	28584
809.883	28656
810.025	28672
810.166	28641
810.308	28713
810.45	28592
810.591	28538
810.733	28497
810.875	28405
811.016	28360
811.158	28405
811.299	28436
811.441	28580
811.582	28622
811.724	28474
811.865	28344
812.007	28413
812.148	28656
812.29	28455
812.431	28615
812.573	28710
812.714	28850
812.855	28911
812.997	29071
813.138	29273
813.279	29075
813.421	28961
813.562	28949
813.703	28660
813.845	28611
813.986	28333
814.127	28280
814.268	28188
814.41	28090
814.551	28188
814.692	28268
814.833	28162
814.974	28078
815.115	28303
815.256	28017
815.397	27922
815.539	27892
815.68	27781
815.821	27797
815.962	27941
816.103	27987
816.244	27709
816.385	27682
816.526	27682
816.666	27599
816.807	27469
816.948	27500
817.089	27488
817.23	27458
817.371	27378
817.512	27458
817.653	27359
817.793	27344
817.934	27412
818.075	27397
818.216	27351
818.356	27283
818.497	27260
818.638	27260
818.778	27211
818.919	27165
819.06	27146
819.2	27222
819.341	27382
819.481	27447
819.622	27625
819.762	27751
819.903	27724
820.043	27481
820.184	27526
820.324	27439
820.465	27629
820.605	27660
820.746	27614
820.886	27382
821.026	27515
821.167	27477
821.307	27568
821.447	27496
821.588	27321
821.728	27207
821.868	27127
822.008	26960
822.149	26937
822.289	26887
822.429	26777
822.569	26541
822.709	26678
822.849	26385
822.99	26499
823.13	26317
823.27	26423
823.41	26225
823.55	26054
823.69	26187
823.83	26332
823.97	26210
824.11	26016
824.25	25906
824.389	26138
824.529	26100
824.669	26142
824.809	26126
824.949	26180
825.089	26210
825.228	26145
825.368	25936
825.508	25974
825.648	25955
825.787	25940
825.927	25959
826.067	25780
826.206	25955
826.346	25959
826.485	26027
826.625	25936
826.765	26001
826.904	25822
827.044	25613
827.183	25624
827.323	25487
827.462	25651
827.601	25715
827.741	25696
827.88	25670
828.02	25472
828.159	25594
828.298	25696
828.437	25658
828.577	25499
828.716	25582
828.855	25506
828.994	25400
829.134	25312
829.273	25316
829.412	25194
829.551	25312
829.69	25266
829.829	25270
829.968	25419
830.107	25499
830.246	25343
830.385	25270
830.524	25247
830.663	25129
830.802	25168
830.941	24837
831.08	25004
831.219	25118
831.357	25027
831.496	25088
831.635	24985
831.774	25095
831.913	24833
832.051	24757
832.19	24783
832.329	24798
832.467	24502
832.606	24544
832.744	24525
832.883	24513
833.022	24513
833.16	24665
833.299	24719
833.437	24639
833.576	24757
833.714	24665
833.852	24661
833.991	24779
834.129	24878
834.267	24795
834.406	24627
834.544	24787
834.682	24795
834.821	24536
834.959	24703
835.097	24589
835.235	24719
835.373	24738
835.511	24753
835.65	24505
835.788	24498
835.926	24445
836.064	24388
836.202	24296
836.34	24475
836.478	24547
836.615	24566
836.753	24513
836.891	24574
837.029	24475
837.167	24399
837.305	24369
837.443	24441
837.58	24475
837.718	24578
837.856	24357
837.993	24292
838.131	24391
838.269	24235
838.406	24216
838.544	24205
838.681	23942
838.819	23805
838.956	23904
839.094	23836
839.231	23847
839.369	24045
839.506	24102
839.643	24087
839.781	23851
839.918	23707
840.055	23802
840.193	23741
840.33	23634
840.467	23783
840.604	23859
840.742	24026
840.879	23665
841.016	23718
841.153	23608
841.29	23783
841.427	23775
841.564	23832
841.701	23813
841.838	23718
841.975	23665
842.112	23611
842.249	23436
842.385	23551
842.522	23767
842.659	23524
842.796	23509
842.933	23402
843.069	23478
843.206	23284
843.343	23509
843.479	23455
843.616	23482
843.752	23239
843.889	23273
844.025	23448
844.162	23208
844.298	23299
844.435	23303
844.571	23277
844.708	23296
844.844	23414
844.98	23311
845.117	23258
845.253	23360
845.389	23136
845.525	23105
845.661	23014
845.798	22873
845.934	23079
846.07	23025
846.206	23044
846.342	23124
846.478	22987
846.614	22881
846.75	22649
846.886	22664
847.022	22809
847.158	22698
847.294	22881
847.429	22649
847.565	22721
847.701	22995
847.837	22497
847.972	22371
848.108	22459
848.244	22527
848.379	22443
848.515	22386
848.65	22314
848.786	22299
848.921	22390
849.057	22344
849.192	22405
849.328	22268
849.463	22272
849.598	22207
849.734	22097
849.869	22173
850.004	22059
850.14	22131
850.275	22112
850.41	21998
850.545	22063
850.68	21979
850.815	22074
850.95	22093
851.085	22226
851.22	22238
851.355	22105
851.49	22044
851.625	21979
851.76	22070
851.895	22002
852.03	22055
852.165	22017
852.299	21998
852.434	22131
852.569	22185
852.703	21994
852.838	22147
852.973	22185
853.107	22120
853.242	21953
853.376	21907
853.511	21869
853.645	21739
853.78	21956
853.914	21831
854.048	21785
854.183	21907
854.317	21812
854.451	22120
854.585	21846
854.72	21964
854.854	21857
854.988	21918
855.122	21728
855.256	21694
855.39	21899
855.524	21972
855.658	21953
855.792	21915
855.926	21975
856.06	21876
856.194	21865
856.327	21945
856.461	21816
856.595	21918
856.729	21911
856.862	21903
856.996	22078
857.13	21922
857.263	21926
857.397	22067
857.53	21865
857.664	22002
857.797	21846
857.931	21972
858.064	21907
858.197	21991
858.331	21903
858.464	21835
858.597	21789
858.731	21770
858.864	21846
858.997	21747
859.13	21968
859.263	21876
859.396	22059
859.529	21941
859.662	21759
859.795	21751
859.928	21873
860.061	22040
860.194	22147
860.327	22036
860.46	21838
860.592	21934
860.725	22090
860.858	22013
860.99	21823
861.123	21915
861.256	21800
861.388	21850
861.521	22375
861.653	21743
861.786	21682
861.918	21736
862.05	21808
862.183	21835
862.315	21835
862.447	21842
862.58	21759
862.712	21511
862.844	21511
862.976	21564
863.108	21747
863.24	21945
863.372	21530
863.504	21538
863.636	21599
863.768	21583
863.9	21545
864.032	21454
864.164	21504
864.296	21633
864.428	21739
864.559	21671
864.691	21660
864.823	21591
864.954	21538
865.086	21549
865.217	21485
865.349	21428
865.48	21504
865.612	21473
865.743	21686
865.875	21359
866.006	21408
866.137	21606
866.269	21359
866.4	21492
866.531	21412
866.662	21355
866.793	21412
866.924	21355
867.055	21477
867.186	21420
867.317	21298
867.448	21272
867.579	21401
867.71	21367
867.841	21351
867.972	21462
868.103	21420
868.233	21564
868.364	21393
868.495	21450
868.625	21637
868.756	21800
868.886	21469
869.017	21603
869.147	21698
869.278	21793
869.408	21553
869.539	21698
869.669	21705
869.799	21701
869.929	21762
870.06	21713
870.19	21991
870.32	21785
870.45	21926
870.58	22086
870.71	22101
870.84	22109
870.97	22105
871.1	22173
871.23	22295
871.36	22154
871.489	22192
871.619	22204
871.749	22173
871.879	22253
872.008	22386
872.138	22291
872.267	22135
872.397	22185
872.526	22051
872.656	22162
872.785	22139
872.915	22287
873.044	22272
873.173	22219
873.303	22409
873.432	22303
873.561	22352
873.69	22246
873.819	22352
873.948	22371
874.077	22230
874.206	22204
874.335	22265
874.464	22462
874.593	22531
874.722	22550
874.851	22516
874.979	22497
875.108	22508
875.237	22497
875.365	22394
875.494	22379
875.623	22538
875.751	22474
875.88	22497
876.008	22599
876.136	22584
876.265	22850
876.393	23006
876.521	22938
876.65	22854
876.778	22828
876.906	22866
877.034	22786
877.162	22786
877.29	22759
877.418	22847
877.546	22881
877.674	22843
877.802	22839
877.93	22812
878.058	22721
878.185	22752
878.313	22793
878.441	22782
878.568	22694
878.696	22790
878.824	22961
878.951	22915
879.079	23022
879.206	23216
879.333	23037
879.461	22816
879.588	22946
879.715	23022
879.842	23102
879.97	22953
880.097	22740
880.224	22573
880.351	22656
880.478	22721
880.605	22603
880.732	22702
880.859	22858
880.986	22615
881.112	22683
881.239	22455
881.366	22538
881.493	22348
881.619	22192
881.746	22223
881.872	22360
881.999	22188
882.125	22059
882.252	22295
882.378	22124
882.505	22196
882.631	22029
882.757	21915
882.883	22021
883.01	21873
883.136	21911
883.262	21812
883.388	21819
883.514	21968
883.64	22070
883.766	21827
883.892	21671
884.018	21641
884.143	21770
884.269	21987
884.395	21568
884.52	21488
884.646	21618
884.772	21450
884.897	21435
885.023	21545
885.148	21675
885.274	21614
885.399	21595
885.524	21389
885.65	21572
885.775	21557
885.9	21492
886.025	21679
886.15	21610
886.275	21431
886.4	21424
886.525	21389
886.65	21519
886.775	21466
886.9	21580
887.025	21778
887.149	21595
887.274	21428
887.399	21348
887.523	21344
887.648	21306
887.773	21245
887.897	21374
888.021	21302
888.146	21226
888.27	21302
888.395	21405
888.519	21378
888.643	21351
888.767	21370
888.891	21169
889.015	21093
889.139	21074
889.263	20937
889.387	21184
889.511	21294
889.635	21249
889.759	21032
889.883	21116
890.006	21207
890.13	21199
890.254	20956
890.377	21051
890.501	20826
890.624	20845
890.748	20921
890.871	20788
890.995	20568
891.118	20503
891.241	20667
891.364	20746
891.488	20762
891.611	20659
891.734	20587
891.857	20701
891.98	20587
892.103	20701
892.226	20743
892.349	20682
892.471	20450
892.594	20598
892.717	20579
892.839	20495
892.962	20465
893.085	20705
893.207	20602
893.33	20362
893.452	20526
893.575	20617
893.697	20530
893.819	20708
893.941	20720
894.064	20735
894.186	20412
894.308	20377
894.43	20693
894.552	20796
894.674	20686
894.796	20473
894.918	20598
895.04	20579
895.161	20606
895.283	20598
895.405	20423
895.526	20541
895.648	20499
895.769	20575
895.891	20495
896.012	20617
896.134	20636
896.255	20533
896.376	20507
896.498	20625
896.619	20549
896.74	20518
896.861	20590
896.982	20887
897.103	21070
897.224	20826
897.345	20899
897.466	20648
897.587	20701
897.708	20880
897.828	20880
897.949	20754
898.07	20579
898.19	20762
898.311	20819
898.431	20632
898.552	20667
898.672	20864
898.792	20667
898.913	20842
899.033	20617
899.153	20594
899.273	20438
899.393	20499
899.513	20457
899.633	20552
899.753	20526
899.873	20484
899.993	20575
900.113	20396
900.232	20389
900.352	20377
900.472	20317
900.591	20130
900.711	20317
900.83	20240
900.95	20389
901.069	20377
901.189	20100
901.308	19970
901.427	19936
901.546	19875
901.665	19799
901.784	19951
901.904	19753
902.023	19590
902.141	19487
902.26	19316
902.379	19441
902.498	19293
902.617	19297
902.735	19297
902.854	19293
902.973	19209
903.091	18947
903.21	18977
903.328	18947
903.446	18928
903.565	18875
903.683	18821
903.801	18700
903.919	18833
904.038	18726
904.156	18528
904.274	18696
904.392	18551
904.51	18506
904.627	18631
904.745	18673
904.863	18696
904.981	18426
905.098	18323
905.216	18334
905.334	18304
905.451	18323
905.569	18270
905.686	18266
905.803	18251
905.921	18053
906.038	18133
906.155	18133
906.272	17920
906.389	18076
906.506	17813
906.623	17901
906.74	17863
906.857	17665
906.974	17741
907.091	17882
907.208	17927
907.324	17847
907.441	17714
907.557	17649
907.674	17493
907.79	17444
907.907	17581
908.023	17532
908.139	17524
908.256	17520
908.372	17235
908.488	17414
908.604	17204
908.72	17231
908.836	17235
908.952	17208
909.068	17307
909.184	17353
909.3	17204
909.415	17197
909.531	17223
909.647	16915
909.762	16995
909.878	16862
909.993	16889
910.108	16957
910.224	16850
910.339	16904
910.454	16733
910.57	16740
910.685	16698
910.8	16987
910.915	16820
911.03	16634
911.145	16550
911.259	16478
911.374	16504
911.489	16417
911.604	16398
911.718	16314
911.833	16344
911.947	16211
912.062	16124
912.176	16211
912.291	16223
912.405	16348
912.519	16432
912.633	16398
912.748	16306
912.862	16204
912.976	16059
913.09	15869
913.204	16029
913.318	16067
913.431	16226
913.545	16128
913.659	16093
913.772	15956
913.886	15857
914	15869
914.113	15949
914.226	16032
914.34	15903
914.453	15766
914.566	15827
914.68	15770
914.793	15698
914.906	15545
915.019	15538
915.132	15374
915.245	15477
915.358	15473
915.47	15416
915.583	15435
915.696	15488
915.809	15568
915.921	15504
916.034	15359
916.146	15485
916.259	15386
916.371	15450
916.483	15405
916.595	15272
916.708	15340
916.82	15401
916.932	15199
917.044	15199
917.156	15150
917.268	15135
917.38	15112
917.491	15104
917.603	15127
917.715	15085
917.826	15241
917.938	15062
918.049	14849
918.161	14994
918.272	15116
918.384	15058
918.495	15058
918.606	14861
918.717	14765
918.828	14800
918.939	14880
919.05	14823
919.161	14906
919.272	14632
919.383	14693
919.494	14857
919.604	15001
919.715	14765
919.826	14891
919.936	14804
920.047	14861
920.157	14899
920.267	14906
920.378	14739
920.488	14815
920.598	15020
920.708	15085
920.818	14937
920.928	14929
921.038	15085
921.148	15032
921.258	14769
921.368	14674
921.477	14583
921.587	14507
921.697	14351
921.806	14488
921.916	14446
922.025	14218
922.134	14130
922.244	14096
922.353	14145
922.462	14008
922.571	14031
922.68	13868
922.789	13871
922.898	13772
923.007	13784
923.116	13898
923.224	13788
923.333	13811
923.442	13708
923.55	13719
923.659	13685
923.767	13567
923.876	13567
923.984	13620
924.092	13510
924.201	13556
924.309	13548
924.417	13506
924.525	13445
924.633	13476
924.741	14465
924.849	13320
924.956	13316
925.064	13297
925.172	13069
925.279	13320
925.387	13228
925.494	13206
925.602	13365
925.709	13324
925.816	13023
925.924	13088
926.031	13251
926.138	13209
926.245	13179
926.352	13050
926.459	13129
926.566	13228
926.673	13110
926.779	12958
926.886	12966
926.993	12776
927.099	12852
927.206	12696
927.312	12806
927.419	12810
927.525	12715
927.631	12806
927.737	12677
927.843	12692
927.95	12460
928.056	12585
928.162	12559
928.267	12601
928.373	13190
928.479	12711
928.585	12433
928.69	12486
928.796	12597
928.901	12486
929.007	12319
929.112	12483
929.218	12437
929.323	12311
929.428	12346
929.533	12467
929.638	12243
929.743	12144
929.848	12315
929.953	12201
930.058	12144
930.163	11931
930.267	11965
930.372	12159
930.477	11973
930.581	12232
930.685	12053
930.79	11889
930.894	11908
930.998	11866
931.103	11927
931.207	11649
931.311	11554
931.415	11471
931.519	11258
931.623	11284
