Data from test_V78500241_688.txt Node
Date: Fri Mar 25 15:46:34 CST 2022
User: usil
Spectrometer: V785-0024
Trigger mode: 0
Integration Time (sec): 4.000000E-1
Scans to average: 1
Nonlinearity correction enabled: false
Boxcar width: 0
Storing dark spectrum: false
XAxis mode: Wavelengths
Number of Pixels in Spectrum: 1024
>>>>>Begin Spectral Data<<<<<
801.071	27561
801.214	27351
801.356	27127
801.499	27036
801.641	27096
801.783	27009
801.926	26910
802.068	27055
802.211	26746
802.353	26659
802.496	26640
802.638	26621
802.78	26686
802.923	26522
803.065	26499
803.208	26499
803.35	26606
803.492	26693
803.635	26670
803.777	26724
803.919	26746
804.061	26940
804.204	26667
804.346	26636
804.488	26598
804.63	26720
804.773	26583
804.915	26708
805.057	26899
805.199	26773
805.341	26838
805.483	26788
805.626	26807
805.768	26727
805.91	26807
806.052	26891
806.194	26849
806.336	26960
806.478	26895
806.62	26800
806.762	26914
806.904	27043
807.046	27454
807.188	27321
807.33	27241
807.472	27310
807.614	27230
807.756	27142
807.898	27154
808.04	27169
808.182	27001
808.324	27112
808.465	27161
808.607	27321
808.749	27549
808.891	27485
809.033	27606
809.174	27583
809.316	27595
809.458	27694
809.6	27412
809.741	27641
809.883	27648
810.025	27762
810.166	27660
810.308	27603
810.45	27671
810.591	27648
810.733	27515
810.875	27359
811.016	27332
811.158	27355
811.299	27469
811.441	27705
811.582	27652
811.724	27325
811.865	27283
812.007	27389
812.148	27431
812.29	27443
812.431	27747
812.573	27663
812.714	27914
812.855	27991
812.997	27994
813.138	28230
813.279	28067
813.421	27926
813.562	28032
813.703	27713
813.845	27709
813.986	27603
814.127	27272
814.268	27104
814.41	27283
814.551	27161
814.692	27252
814.833	27089
814.974	27020
815.115	27173
815.256	27005
815.397	26933
815.539	27089
815.68	26830
815.821	26834
815.962	27039
816.103	26990
816.244	26705
816.385	26765
816.526	26564
816.666	26594
816.807	26358
816.948	26503
817.089	26613
817.23	26415
817.371	26419
817.512	26552
817.653	26286
817.793	26324
817.934	26442
818.075	26355
818.216	26423
818.356	26427
818.497	26237
818.638	26043
818.778	26164
818.919	26062
819.06	26252
819.2	26355
819.341	26492
819.481	26473
819.622	26495
819.762	26575
819.903	26716
820.043	26629
820.184	26473
820.324	26507
820.465	26571
820.605	26511
820.746	26450
820.886	26240
821.026	26518
821.167	26480
821.307	26434
821.447	26480
821.588	26366
821.728	26206
821.868	26202
822.008	25833
822.149	25906
822.289	25780
822.429	25666
822.569	25609
822.709	25559
822.849	25438
822.99	25377
823.13	25388
823.27	25244
823.41	25156
823.55	25179
823.69	25194
823.83	25266
823.97	25251
824.11	25042
824.25	24894
824.389	25050
824.529	25145
824.669	24886
824.809	25194
824.949	25221
825.089	25038
825.228	25023
825.368	24878
825.508	24871
825.648	24837
825.787	24844
825.927	24909
826.067	24909
826.206	24867
826.346	24871
826.485	24821
826.625	24856
826.765	25019
826.904	24924
827.044	24654
827.183	24745
827.323	24593
827.462	24719
827.601	24559
827.741	24547
827.88	24719
828.02	24544
828.159	24448
828.298	24528
828.437	24639
828.577	24612
828.716	24722
828.855	24525
828.994	24243
829.134	24315
829.273	24311
829.412	24220
829.551	24285
829.69	24361
829.829	24281
829.968	24220
830.107	24376
830.246	24308
830.385	24083
830.524	24015
830.663	24007
830.802	23927
830.941	23809
831.08	23855
831.219	24076
831.357	23984
831.496	24022
831.635	23931
831.774	23950
831.913	23851
832.051	23668
832.19	23699
832.329	23668
832.467	23573
832.606	23452
832.744	23516
832.883	23570
833.022	23478
833.16	23471
833.299	23558
833.437	23554
833.576	23623
833.714	23714
833.852	23729
833.991	23680
834.129	23707
834.267	23726
834.406	23756
834.544	23539
834.682	23627
834.821	23562
834.959	23813
835.097	23539
835.235	23668
835.373	23642
835.511	23691
835.65	23429
835.788	23387
835.926	23288
836.064	23277
836.202	23178
836.34	23490
836.478	23558
836.615	23360
836.753	23573
836.891	23600
837.029	23531
837.167	23482
837.305	23452
837.443	23284
837.58	23227
837.718	23318
837.856	23421
837.993	23124
838.131	23303
838.269	23151
838.406	23315
838.544	23075
838.681	23056
838.819	23060
838.956	22786
839.094	22736
839.231	22771
839.369	22942
839.506	23261
839.643	23018
839.781	22805
839.918	22721
840.055	22820
840.193	22778
840.33	22839
840.467	22793
840.604	22866
840.742	22995
840.879	22542
841.016	22618
841.153	22653
841.29	22752
841.427	22824
841.564	22729
841.701	22660
841.838	22698
841.975	22618
842.112	22622
842.249	22436
842.385	22405
842.522	22577
842.659	22474
842.796	22497
842.933	22352
843.069	22257
843.206	22344
843.343	22626
843.479	22424
843.616	22382
843.752	22268
843.889	22215
844.025	22436
844.162	22181
844.298	22424
844.435	22211
844.571	22322
844.708	22291
844.844	22459
844.98	22428
845.117	22344
845.253	22135
845.389	22032
845.525	22139
845.661	22040
845.798	21979
845.934	22067
846.07	21949
846.206	21884
846.342	22090
846.478	21899
846.614	21698
846.75	21717
846.886	21671
847.022	21743
847.158	21732
847.294	21561
847.429	21629
847.565	21652
847.701	21869
847.837	21374
847.972	21450
848.108	21431
848.244	21405
848.379	21351
848.515	21260
848.65	21211
848.786	21272
848.921	21249
849.057	21412
849.192	21351
849.328	21264
849.463	21294
849.598	21279
849.734	21131
849.869	21135
850.004	21066
850.14	21077
850.275	21062
850.41	20868
850.545	20952
850.68	21100
850.815	21047
850.95	20990
851.085	21291
851.22	21222
851.355	20998
851.49	20998
851.625	21089
851.76	21081
851.895	21104
852.03	21051
852.165	21237
852.299	21085
852.434	21150
852.569	20982
852.703	21070
852.838	21058
852.973	21131
853.107	21192
853.242	21058
853.376	20914
853.511	20678
853.645	20891
853.78	21028
853.914	20857
854.048	20883
854.183	20868
854.317	20914
854.451	21112
854.585	20743
854.72	20781
854.854	20967
854.988	20857
855.122	20948
855.256	20724
855.39	20811
855.524	20929
855.658	20876
855.792	21017
855.926	20895
856.06	20883
856.194	21020
856.327	20880
856.461	20773
856.595	20845
856.729	20899
856.862	20960
856.996	20906
857.13	20944
857.263	20952
857.397	20986
857.53	20800
857.664	20986
857.797	20941
857.931	20944
858.064	20883
858.197	20979
858.331	20921
858.464	20876
858.597	20750
858.731	20834
858.864	20952
858.997	20788
859.13	21017
859.263	20880
859.396	20925
859.529	20883
859.662	20792
859.795	20853
859.928	21039
860.061	21047
860.194	21074
860.327	21009
860.46	20876
860.592	21005
860.725	21066
860.858	21142
860.99	20941
861.123	20883
861.256	20777
861.388	20864
861.521	21378
861.653	20807
861.786	20625
861.918	20765
862.05	20689
862.183	20796
862.315	20838
862.447	20887
862.58	20762
862.712	20678
862.844	20564
862.976	20708
863.108	20651
863.24	21062
863.372	20594
863.504	20579
863.636	20644
863.768	20693
863.9	20651
864.032	20499
864.164	20457
864.296	20663
864.428	20651
864.559	20678
864.691	20632
864.823	20587
864.954	20663
865.086	20659
865.217	20499
865.349	20415
865.48	20503
865.612	20659
865.743	20659
865.875	20549
866.006	20514
866.137	20503
866.269	20469
866.4	20442
866.531	20514
866.662	20336
866.793	20579
866.924	20431
867.055	20469
867.186	20492
867.317	20377
867.448	20408
867.579	20423
867.71	20286
867.841	20267
867.972	20412
868.103	20461
868.233	20377
868.364	20499
868.495	20560
868.625	20609
868.756	20769
868.886	20590
869.017	20682
869.147	20792
869.278	20842
869.408	20697
869.539	20674
869.669	20857
869.799	20743
869.929	20845
870.06	20750
870.19	20842
870.32	20902
870.45	21036
870.58	21116
870.71	21161
870.84	21089
870.97	21096
871.1	21123
871.23	21192
871.36	21298
871.489	21230
871.619	21203
871.749	21313
871.879	21252
872.008	21370
872.138	21291
872.267	21325
872.397	21138
872.526	21123
872.656	21138
872.785	21096
872.915	21439
873.044	21389
873.173	21325
873.303	21397
873.432	21348
873.561	21492
873.69	21306
873.819	21348
873.948	21515
874.077	21428
874.206	21218
874.335	21363
874.464	21439
874.593	21629
874.722	21416
874.851	21671
874.979	21542
875.108	21644
875.237	21401
875.365	21500
875.494	21526
875.623	21564
875.751	21420
875.88	21568
876.008	21663
876.136	21724
876.265	22032
876.393	22074
876.521	21964
876.65	22025
876.778	21949
876.906	21941
877.034	21876
877.162	21956
877.29	21884
877.418	21918
877.546	21934
877.674	21812
877.802	21899
877.93	21857
878.058	21819
878.185	21846
878.313	21762
878.441	21884
878.568	21739
878.696	21728
878.824	22010
878.951	21975
879.079	22086
879.206	22139
879.333	22021
879.461	21861
879.588	22147
879.715	22063
879.842	22291
879.97	21998
880.097	21698
880.224	21736
880.351	21717
880.478	21762
880.605	21606
880.732	21610
880.859	22036
880.986	21739
881.112	21739
881.239	21603
881.366	21542
881.493	21450
881.619	21310
881.746	21317
881.872	21359
881.999	21359
882.125	21214
882.252	21241
882.378	21275
882.505	21416
882.631	21279
882.757	21005
882.883	21066
883.01	21047
883.136	20807
883.262	20918
883.388	20914
883.514	21070
883.64	21062
883.766	20944
883.892	20781
884.018	20880
884.143	20979
884.269	20918
884.395	20701
884.52	20731
884.646	20602
884.772	20598
884.897	20579
885.023	20598
885.148	20598
885.274	20853
885.399	20655
885.524	20640
885.65	20663
885.775	20613
885.9	20564
886.025	20712
886.15	20762
886.275	20533
886.4	20457
886.525	20678
886.65	20552
886.775	20594
886.9	20743
887.025	20781
887.149	20678
887.274	20507
887.399	20450
887.523	20446
887.648	20389
887.773	20286
887.897	20499
888.021	20609
888.146	20343
888.27	20522
888.395	20465
888.519	20434
888.643	20484
888.767	20541
888.891	20290
889.015	20229
889.139	20237
889.263	20187
889.387	20400
889.511	20385
889.635	20351
889.759	20259
889.883	20126
890.006	20317
890.13	20324
890.254	20187
890.377	20221
890.501	20084
890.624	19887
890.748	19928
890.871	19955
890.995	19932
891.118	19780
891.241	19784
891.364	19932
891.488	19936
891.611	19776
891.734	19803
891.857	19757
891.98	19860
892.103	19868
892.226	19807
892.349	19769
892.471	19681
892.594	19677
892.717	19807
892.839	19655
892.962	19708
893.085	19746
893.207	19731
893.33	19647
893.452	19628
893.575	19731
893.697	19575
893.819	19811
893.941	19883
894.064	19875
894.186	19719
894.308	19556
894.43	19818
894.552	19822
894.674	19830
894.796	19700
894.918	19700
895.04	19708
895.161	19746
895.283	19826
895.405	19529
895.526	19750
895.648	19761
895.769	19776
895.891	19890
896.012	19856
896.134	19776
896.255	19753
896.376	19670
896.498	19685
896.619	19757
896.74	19613
896.861	19879
896.982	20001
897.103	20153
897.224	19982
897.345	19963
897.466	19849
897.587	19959
897.708	20016
897.828	19997
897.949	19837
898.07	19750
898.19	19841
898.311	20008
898.431	19951
898.552	19913
898.672	19997
898.792	19944
898.913	19974
899.033	19833
899.153	19871
899.273	19651
899.393	19712
899.513	19826
899.633	19738
899.753	19807
899.873	19674
899.993	19681
900.113	19670
900.232	19613
900.352	19666
900.472	19556
900.591	19495
900.711	19487
900.83	19460
900.95	19647
901.069	19590
901.189	19259
901.308	19088
901.427	19069
901.546	19133
901.665	19061
901.784	19103
901.904	19004
902.023	18966
902.141	18688
902.26	18544
902.379	18684
902.498	18597
902.617	18517
902.735	18673
902.854	18631
902.973	18483
903.091	18178
903.21	18304
903.328	18270
903.446	18155
903.565	18068
903.683	17999
903.801	18011
903.919	17973
904.038	18034
904.156	17939
904.274	18038
904.392	17904
904.51	17764
904.627	17802
904.745	17798
904.863	17916
904.981	17798
905.098	17467
905.216	17474
905.334	17505
905.451	17554
905.569	17577
905.686	17547
905.803	17535
905.921	17341
906.038	17463
906.155	17360
906.272	17212
906.389	17360
906.506	17208
906.623	17140
906.74	17128
906.857	16961
906.974	17064
907.091	17170
907.208	17174
907.324	17117
907.441	17056
907.557	16778
907.674	16790
907.79	16824
907.907	16733
908.023	16850
908.139	16797
908.256	16774
908.372	16748
908.488	16797
908.604	16535
908.72	16485
908.836	16493
908.952	16531
909.068	16527
909.184	16596
909.3	16577
909.415	16588
909.531	16531
909.647	16360
909.762	16299
909.878	16265
909.993	16272
910.108	16162
910.224	16166
910.339	16177
910.454	16154
910.57	16040
910.685	15899
910.8	16215
910.915	16234
911.03	16185
911.145	15987
911.259	15892
911.374	15865
911.489	15751
911.604	15762
911.718	15595
911.833	15660
911.947	15538
912.062	15500
912.176	15686
912.291	15610
912.405	15694
912.519	15816
912.633	15918
912.748	15679
912.862	15568
912.976	15481
913.09	15321
913.204	15485
913.318	15458
913.431	15591
913.545	15553
913.659	15561
913.772	15332
913.886	15211
914	15256
914.113	15344
914.226	15378
914.34	15260
914.453	15077
914.566	15256
914.68	15112
914.793	15123
914.906	14887
915.019	14819
915.132	14727
915.245	14864
915.358	14921
915.47	14868
915.583	14796
915.696	14967
915.809	14956
915.921	15009
916.034	14807
916.146	14705
916.259	14765
916.371	14830
916.483	14792
916.595	14651
916.708	14720
916.82	14613
916.932	14617
917.044	14564
917.156	14632
917.268	14594
917.38	14511
917.491	14438
917.603	14583
917.715	14655
917.826	14571
917.938	14454
918.049	14362
918.161	14552
918.272	14518
918.384	14526
918.495	14495
918.606	14396
918.717	14206
918.828	14317
918.939	14282
919.05	14183
919.161	14199
919.272	14065
919.383	14084
919.494	14339
919.604	14484
919.715	14339
919.826	14164
919.936	14259
920.047	14328
920.157	14183
920.267	14389
920.378	14210
920.488	14081
920.598	14400
920.708	14537
920.818	14385
920.928	14374
921.038	14530
921.148	14454
921.258	14187
921.368	14142
921.477	14001
921.587	14020
921.697	13837
921.806	13978
921.916	13890
922.025	13723
922.134	13693
922.244	13575
922.353	13677
922.462	13582
922.571	13552
922.68	13312
922.789	13343
922.898	13365
923.007	13202
923.116	13194
923.224	13274
923.333	13297
923.442	13190
923.55	13126
923.659	13137
923.767	13175
923.876	13034
923.984	13091
924.092	12928
924.201	13057
924.309	13012
924.417	13099
924.525	12981
924.633	12958
924.741	13769
924.849	12776
924.956	12856
925.064	12802
925.172	12703
925.279	12681
925.387	12791
925.494	12760
925.602	12783
925.709	12650
925.816	12578
925.924	12696
926.031	12768
926.138	12715
926.245	12722
926.352	12509
926.459	12772
926.566	12738
926.673	12585
926.779	12506
926.886	12429
926.993	12315
927.099	12327
927.206	12247
927.312	12220
927.419	12350
927.525	12330
927.631	12384
927.737	12235
927.843	12125
927.95	12015
928.056	12060
928.162	12068
928.267	12148
928.373	12852
928.479	12178
928.585	12011
928.69	12057
928.796	12114
928.901	11988
929.007	11912
929.112	11950
929.218	11950
929.323	11840
929.428	11916
929.533	11969
929.638	11764
929.743	11851
929.848	11836
929.953	11828
930.058	11752
930.163	11539
930.267	11539
930.372	11722
930.477	11493
930.581	11733
930.685	11577
930.79	11455
930.894	11474
930.998	11410
931.103	11554
931.207	11174
931.311	11181
931.415	11060
931.519	10835
931.623	10816
