Data from test_V78500241_512.txt Node
Date: Fri Mar 25 15:45:20 CST 2022
User: usil
Spectrometer: V785-0024
Trigger mode: 0
Integration Time (sec): 4.000000E-1
Scans to average: 1
Nonlinearity correction enabled: false
Boxcar width: 0
Storing dark spectrum: false
XAxis mode: Wavelengths
Number of Pixels in Spectrum: 1024
>>>>>Begin Spectral Data<<<<<
801.071	27218
801.214	27077
801.356	27036
801.499	26857
801.641	26769
801.783	26777
801.926	26842
802.068	26705
802.211	26678
802.353	26514
802.496	26366
802.638	26415
802.78	26434
802.923	26377
803.065	26195
803.208	26294
803.35	26221
803.492	26598
803.635	26522
803.777	26396
803.919	26412
804.061	26842
804.204	26625
804.346	26507
804.488	26366
804.63	26366
804.773	26431
804.915	26427
805.057	26625
805.199	26415
805.341	26632
805.483	26663
805.626	26564
805.768	26450
805.91	26606
806.052	26804
806.194	26522
806.336	26792
806.478	26590
806.62	26724
806.762	26769
806.904	26819
807.046	27138
807.188	26982
807.33	27062
807.472	27055
807.614	27032
807.756	26876
807.898	26864
808.04	26720
808.182	26686
808.324	26887
808.465	26788
808.607	27119
808.749	27264
808.891	27283
809.033	27454
809.174	27340
809.316	27252
809.458	27283
809.6	27291
809.741	27310
809.883	27447
810.025	27496
810.166	27424
810.308	27526
810.45	27473
810.591	27389
810.733	27241
810.875	27256
811.016	27146
811.158	27062
811.299	27401
811.441	27332
811.582	27363
811.724	27233
811.865	27085
812.007	27165
812.148	27218
812.29	27203
812.431	27378
812.573	27488
812.714	27656
812.855	27701
812.997	27869
813.138	28006
813.279	27823
813.421	27922
813.562	27717
813.703	27553
813.845	27408
813.986	27157
814.127	26914
814.268	26845
814.41	26944
814.551	26864
814.692	26918
814.833	26781
814.974	26819
815.115	26785
815.256	26655
815.397	26598
815.539	26678
815.68	26583
815.821	26594
815.962	26587
816.103	26682
816.244	26408
816.385	26450
816.526	26446
816.666	26400
816.807	26149
816.948	26233
817.089	26229
817.23	26126
817.371	26119
817.512	26172
817.653	26157
817.793	25951
817.934	26256
818.075	26214
818.216	26142
818.356	26088
818.497	26039
818.638	25833
818.778	25860
818.919	25868
819.06	25898
819.2	25837
819.341	26088
819.481	25951
819.622	26191
819.762	26446
819.903	26301
820.043	26271
820.184	26142
820.324	26225
820.465	26161
820.605	26195
820.746	26301
820.886	26027
821.026	26214
821.167	26278
821.307	26278
821.447	26084
821.588	26134
821.728	26027
821.868	25670
822.008	25693
822.149	25537
822.289	25666
822.429	25350
822.569	25278
822.709	25175
822.849	25171
822.99	25202
823.13	25118
823.27	25122
823.41	24840
823.55	24791
823.69	24932
823.83	24829
823.97	24825
824.11	24726
824.25	24669
824.389	24726
824.529	24604
824.669	24692
824.809	24939
824.949	24715
825.089	24696
825.228	24779
825.368	24509
825.508	24525
825.648	24582
825.787	24734
825.927	24772
826.067	24566
826.206	24513
826.346	24692
826.485	24757
826.625	24509
826.765	24654
826.904	24563
827.044	24414
827.183	24369
827.323	24190
827.462	24422
827.601	24330
827.741	24292
827.88	24285
828.02	24277
828.159	24247
828.298	24410
828.437	24426
828.577	24159
828.716	24224
828.855	24129
828.994	24057
829.134	24026
829.273	23935
829.412	23961
829.551	23855
829.69	24022
829.829	23908
829.968	24144
830.107	24022
830.246	24049
830.385	23802
830.524	23904
830.663	23832
830.802	23668
830.941	23524
831.08	23558
831.219	23642
831.357	23676
831.496	23718
831.635	23695
831.774	23501
831.913	23440
832.051	23455
832.19	23387
832.329	23326
832.467	23315
832.606	23277
832.744	23166
832.883	23258
833.022	23090
833.16	23178
833.299	23383
833.437	23277
833.576	23311
833.714	23402
833.852	23322
833.991	23402
834.129	23398
834.267	23372
834.406	23433
834.544	23341
834.682	23345
834.821	23303
834.959	23395
835.097	23322
835.235	23284
835.373	23318
835.511	23296
835.65	23353
835.788	23124
835.926	23014
836.064	22930
836.202	22953
836.34	23261
836.478	23223
836.615	23025
836.753	23121
836.891	23193
837.029	23162
837.167	23178
837.305	23056
837.443	23022
837.58	22984
837.718	23044
837.856	23037
837.993	22904
838.131	22850
838.269	22805
838.406	22774
838.544	22774
838.681	22713
838.819	22493
838.956	22440
839.094	22390
839.231	22493
839.369	22531
839.506	22831
839.643	22645
839.781	22481
839.918	22314
840.055	22405
840.193	22421
840.33	22310
840.467	22466
840.604	22489
840.742	22691
840.879	22192
841.016	22447
841.153	22303
841.29	22428
841.427	22363
841.564	22402
841.701	22386
841.838	22341
841.975	22363
842.112	22268
842.249	22207
842.385	22070
842.522	22447
842.659	22196
842.796	22131
842.933	22059
843.069	22090
843.206	22093
843.343	22181
843.479	22185
843.616	22067
843.752	21926
843.889	21953
844.025	22070
844.162	21991
844.298	21915
844.435	21899
844.571	22006
844.708	22010
844.844	21964
844.98	22032
845.117	22006
845.253	21930
845.389	21812
845.525	21690
845.661	21797
845.798	21663
845.934	21747
846.07	21580
846.206	21736
846.342	21709
846.478	21625
846.614	21473
846.75	21340
846.886	21428
847.022	21443
847.158	21389
847.294	21374
847.429	21317
847.565	21382
847.701	21625
847.837	21154
847.972	21070
848.108	21180
848.244	21154
848.379	21032
848.515	21013
848.65	20937
848.786	20994
848.921	21017
849.057	20982
849.192	21108
849.328	21009
849.463	21077
849.598	20963
849.734	20792
849.869	20853
850.004	20769
850.14	20800
850.275	20826
850.41	20720
850.545	20636
850.68	20693
850.815	20796
850.95	20663
851.085	20937
851.22	20887
851.355	20754
851.49	20712
851.625	20739
851.76	20857
851.895	20659
852.03	20678
852.165	20773
852.299	20746
852.434	20902
852.569	20811
852.703	20686
852.838	20746
852.973	20838
853.107	20868
853.242	20777
853.376	20617
853.511	20507
853.645	20648
853.78	20724
853.914	20564
854.048	20438
854.183	20606
854.317	20712
854.451	20735
854.585	20507
854.72	20499
854.854	20594
854.988	20412
855.122	20598
855.256	20457
855.39	20556
855.524	20689
855.658	20556
855.792	20609
855.926	20545
856.06	20651
856.194	20450
856.327	20579
856.461	20526
856.595	20594
856.729	20594
856.862	20568
856.996	20568
857.13	20640
857.263	20598
857.397	20625
857.53	20484
857.664	20625
857.797	20655
857.931	20701
858.064	20621
858.197	20735
858.331	20568
858.464	20549
858.597	20400
858.731	20556
858.864	20495
858.997	20484
859.13	20602
859.263	20560
859.396	20590
859.529	20480
859.662	20473
859.795	20495
859.928	20514
860.061	20655
860.194	20701
860.327	20651
860.46	20556
860.592	20731
860.725	20826
860.858	20746
860.99	20758
861.123	20427
861.256	20427
861.388	20575
861.521	21195
861.653	20465
861.786	20400
861.918	20434
862.05	20415
862.183	20495
862.315	20549
862.447	20526
862.58	20495
862.712	20278
862.844	20233
862.976	20427
863.108	20320
863.24	20727
863.372	20229
863.504	20336
863.636	20233
863.768	20328
863.9	20263
864.032	20210
864.164	20187
864.296	20286
864.428	20423
864.559	20290
864.691	20237
864.823	20374
864.954	20263
865.086	20336
865.217	20275
865.349	20092
865.48	20149
865.612	20180
865.743	20286
865.875	20218
866.006	20111
866.137	20183
866.269	20142
866.4	20035
866.531	20142
866.662	20069
866.793	20092
866.924	20176
867.055	20176
867.186	20187
867.317	20119
867.448	20043
867.579	20107
867.71	20050
867.841	19989
867.972	20172
868.103	20100
868.233	20183
868.364	20183
868.495	20172
868.625	20271
868.756	20457
868.886	20290
869.017	20313
869.147	20514
869.278	20511
869.408	20419
869.539	20320
869.669	20469
869.799	20484
869.929	20473
870.06	20507
870.19	20583
870.32	20716
870.45	20625
870.58	20727
870.71	20849
870.84	20948
870.97	20758
871.1	20773
871.23	20998
871.36	20891
871.489	20845
871.619	20975
871.749	20963
871.879	21055
872.008	21165
872.138	21020
872.267	21005
872.397	20986
872.526	20815
872.656	20724
872.785	20899
872.915	21001
873.044	21127
873.173	20975
873.303	21085
873.432	20944
873.561	20998
873.69	20971
873.819	20960
873.948	21032
874.077	21047
874.206	20895
874.335	21020
874.464	21081
874.593	21218
874.722	21009
874.851	21249
874.979	21241
875.108	21344
875.237	21112
875.365	21150
875.494	21138
875.623	21260
875.751	21249
875.88	21374
876.008	21329
876.136	21416
876.265	21656
876.393	21789
876.521	21614
876.65	21698
876.778	21667
876.906	21595
877.034	21618
877.162	21629
877.29	21401
877.418	21553
877.546	21625
877.674	21603
877.802	21603
877.93	21572
878.058	21549
878.185	21332
878.313	21553
878.441	21515
878.568	21344
878.696	21614
878.824	21656
878.951	21766
879.079	21778
879.206	21884
879.333	21732
879.461	21633
879.588	21686
879.715	21770
879.842	21991
879.97	21599
880.097	21424
880.224	21382
880.351	21492
880.478	21458
880.605	21359
880.732	21447
880.859	21622
880.986	21424
881.112	21572
881.239	21249
881.366	21214
881.493	21043
881.619	21009
881.746	21154
881.872	21009
881.999	20963
882.125	21039
882.252	21085
882.378	20975
882.505	21020
882.631	20899
882.757	20678
882.883	20689
883.01	20743
883.136	20701
883.262	20613
883.388	20560
883.514	20705
883.64	20640
883.766	20602
883.892	20476
884.018	20434
884.143	20651
884.269	20686
884.395	20355
884.52	20317
884.646	20469
884.772	20324
884.897	20309
885.023	20381
885.148	20469
885.274	20461
885.399	20415
885.524	20400
885.65	20336
885.775	20358
885.9	20332
886.025	20476
886.15	20355
886.275	20267
886.4	20347
886.525	20275
886.65	20271
886.775	20248
886.9	20393
887.025	20556
887.149	20347
887.274	20187
887.399	20187
887.523	20157
887.648	20229
887.773	19940
887.897	20191
888.021	20225
888.146	20313
888.27	20187
888.395	20294
888.519	20210
888.643	20259
888.767	20229
888.891	20027
889.015	20035
889.139	20077
889.263	19967
889.387	20039
889.511	20225
889.635	20001
889.759	19982
889.883	19875
890.006	19940
890.13	20077
890.254	19928
890.377	19845
890.501	19670
890.624	19677
890.748	19727
890.871	19719
890.995	19483
891.118	19445
891.241	19537
891.364	19499
891.488	19715
891.611	19552
891.734	19415
891.857	19750
891.98	19559
892.103	19597
892.226	19472
892.349	19422
892.471	19327
892.594	19403
892.717	19400
892.839	19438
892.962	19419
893.085	19499
893.207	19483
893.33	19316
893.452	19369
893.575	19491
893.697	19468
893.819	19415
893.941	19723
894.064	19533
894.186	19460
894.308	19365
894.43	19521
894.552	19559
894.674	19559
894.796	19362
894.918	19499
895.04	19430
895.161	19468
895.283	19495
895.405	19419
895.526	19445
895.648	19384
895.769	19384
895.891	19449
896.012	19616
896.134	19525
896.255	19358
896.376	19438
896.498	19449
896.619	19590
896.74	19362
896.861	19540
896.982	19708
897.103	19776
897.224	19647
897.345	19746
897.466	19761
897.587	19750
897.708	19868
897.828	19814
897.949	19628
898.07	19502
898.19	19670
898.311	19700
898.431	19624
898.552	19689
898.672	19727
898.792	19757
898.913	19822
899.033	19495
899.153	19472
899.273	19324
899.393	19518
899.513	19533
899.633	19377
899.753	19563
899.873	19403
899.993	19472
900.113	19506
900.232	19476
900.352	19377
900.472	19381
900.591	19270
900.711	19373
900.83	19198
900.95	19339
901.069	19263
901.189	19110
901.308	18909
901.427	18814
901.546	18852
901.665	18802
901.784	18939
901.904	18787
902.023	18677
902.141	18384
902.26	18422
902.379	18525
902.498	18342
902.617	18319
902.735	18407
902.854	18319
902.973	18273
903.091	17965
903.21	18060
903.328	18064
903.446	17973
903.565	17920
903.683	17836
903.801	17604
903.919	17798
904.038	17790
904.156	17653
904.274	17630
904.392	17566
904.51	17649
904.627	17592
904.745	17585
904.863	17710
904.981	17463
905.098	17345
905.216	17311
905.334	17292
905.451	17421
905.569	17280
905.686	17231
905.803	17292
905.921	17231
906.038	17250
906.155	17117
906.272	16885
906.389	17048
906.506	16763
906.623	16847
906.74	16896
906.857	16793
906.974	16748
907.091	16816
907.208	16999
907.324	16839
907.441	16736
907.557	16573
907.674	16500
907.79	16538
907.907	16432
908.023	16588
908.139	16535
908.256	16341
908.372	16325
908.488	16360
908.604	16284
908.72	16295
908.836	16215
908.952	16226
909.068	16360
909.184	16299
909.3	16287
909.415	16268
909.531	16295
909.647	15998
909.762	15930
909.878	16002
909.993	15918
910.108	15953
910.224	15842
910.339	15972
910.454	15819
910.57	15812
910.685	15713
910.8	15998
910.915	15926
911.03	15808
911.145	15644
911.259	15622
911.374	15606
911.489	15504
911.604	15492
911.718	15389
911.833	15367
911.947	15230
912.062	15256
912.176	15416
912.291	15359
912.405	15310
912.519	15545
912.633	15534
912.748	15504
912.862	15249
912.976	15199
913.09	15009
913.204	15097
913.318	15214
913.431	15230
913.545	15252
913.659	15252
913.772	15214
913.886	15024
914	14921
914.113	15005
914.226	15127
914.34	14925
914.453	14880
914.566	15032
914.68	14788
914.793	14853
914.906	14678
915.019	14651
915.132	14606
915.245	14651
915.358	14594
915.47	14610
915.583	14629
915.696	14594
915.809	14636
915.921	14765
916.034	14587
916.146	14537
916.259	14469
916.371	14556
916.483	14545
916.595	14492
916.708	14438
916.82	14355
916.932	14408
917.044	14355
917.156	14370
917.268	14229
917.38	14233
917.491	14233
917.603	14286
917.715	14267
917.826	14400
917.938	14199
918.049	14065
918.161	14263
918.272	14195
918.384	14362
918.495	14164
918.606	14115
918.717	13978
918.828	13974
918.939	14103
919.05	13936
919.161	14027
919.272	13795
919.383	13864
919.494	14115
919.604	14111
919.715	13993
919.826	13959
919.936	13902
920.047	13978
920.157	14039
920.267	14168
920.378	14138
920.488	13909
920.598	14100
920.708	14336
920.818	14164
920.928	14142
921.038	14317
921.148	14256
921.258	13967
921.368	13898
921.477	13814
921.587	13746
921.697	13712
921.806	13788
921.916	13636
922.025	13464
922.134	13453
922.244	13400
922.353	13487
922.462	13407
922.571	13206
922.68	13084
922.789	12977
922.898	13027
923.007	12989
923.116	13076
923.224	13137
923.333	13034
923.442	12897
923.55	12886
923.659	12791
923.767	12932
923.876	12829
923.984	12905
924.092	12745
924.201	12852
924.309	12783
924.417	12787
924.525	12791
924.633	12700
924.741	13506
924.849	12547
924.956	12601
925.064	12486
925.172	12456
925.279	12464
925.387	12513
925.494	12559
925.602	12570
925.709	12559
925.816	12384
925.924	12437
926.031	12547
926.138	12441
926.245	12490
926.352	12388
926.459	12502
926.566	12513
926.673	12460
926.779	12247
926.886	12239
926.993	12140
927.099	12030
927.206	12022
927.312	12060
927.419	12213
927.525	12041
927.631	12163
927.737	12072
927.843	11996
927.95	11817
928.056	11973
928.162	11901
928.267	11946
928.373	12566
928.479	11996
928.585	11703
928.69	11931
928.796	11824
928.901	11840
929.007	11615
929.112	11828
929.218	11748
929.323	11676
929.428	11657
929.533	11843
929.638	11535
929.743	11642
929.848	11707
929.953	11535
930.058	11566
930.163	11402
930.267	11395
930.372	11566
930.477	11223
930.581	11528
930.685	11360
930.79	11250
930.894	11208
930.998	11216
931.103	11349
931.207	10949
931.311	10984
931.415	10831
931.519	10649
931.623	10599
