Data from test_V78500241_3443.txt Node
Date: Fri Mar 25 16:05:39 CST 2022
User: usil
Spectrometer: V785-0024
Trigger mode: 0
Integration Time (sec): 4.000000E-1
Scans to average: 1
Nonlinearity correction enabled: false
Boxcar width: 0
Storing dark spectrum: false
XAxis mode: Wavelengths
Number of Pixels in Spectrum: 1024
>>>>>Begin Spectral Data<<<<<
801.071	28900
801.214	28900
801.356	28828
801.499	28721
801.641	28500
801.783	28527
801.926	28550
802.068	28584
802.211	28375
802.353	28401
802.496	28200
802.638	28287
802.78	28120
802.923	28223
803.065	28059
803.208	28188
803.35	28242
803.492	28371
803.635	28417
803.777	28303
803.919	28462
804.061	28771
804.204	28489
804.346	28478
804.488	28462
804.63	28398
804.773	28348
804.915	28394
805.057	28687
805.199	28557
805.341	28740
805.483	28733
805.626	28687
805.768	28504
805.91	28653
806.052	28736
806.194	28535
806.336	28801
806.478	28596
806.62	28565
806.762	28900
806.904	29022
807.046	29227
807.188	29064
807.33	29064
807.472	29235
807.614	29143
807.756	29174
807.898	29003
808.04	28915
808.182	28801
808.324	29200
808.465	29010
808.607	29041
808.749	29353
808.891	29402
809.033	29615
809.174	29349
809.316	29448
809.458	29250
809.6	29223
809.741	29398
809.883	29562
810.025	29592
810.166	29764
810.308	29562
810.45	29471
810.591	29604
810.733	29326
810.875	29372
811.016	29204
811.158	29292
811.299	29368
811.441	29551
811.582	29535
811.724	29265
811.865	29315
812.007	29383
812.148	29379
812.29	29414
812.431	29707
812.573	29707
812.714	29904
812.855	29882
812.997	30038
813.138	30224
813.279	29988
813.421	29942
813.562	29893
813.703	29771
813.845	29547
813.986	29349
814.127	29375
814.268	29060
814.41	29067
814.551	29136
814.692	29162
814.833	29010
814.974	28995
815.115	29124
815.256	28984
815.397	28927
815.539	28904
815.68	28896
815.821	28892
815.962	28911
816.103	28786
816.244	28793
816.385	28748
816.526	28675
816.666	28664
816.807	28405
816.948	28432
817.089	28508
817.23	28440
817.371	28398
817.512	28497
817.653	28459
817.793	28432
817.934	28379
818.075	28500
818.216	28337
818.356	28341
818.497	28295
818.638	28219
818.778	28173
818.919	28249
819.06	28196
819.2	28314
819.341	28462
819.481	28363
819.622	28637
819.762	28869
819.903	28729
820.043	28637
820.184	28523
820.324	28634
820.465	28470
820.605	28569
820.746	28489
820.886	28394
821.026	28516
821.167	28451
821.307	28527
821.447	28382
821.588	28375
821.728	28070
821.868	28010
822.008	28032
822.149	27903
822.289	27865
822.429	27629
822.569	27686
822.709	27606
822.849	27447
822.99	27416
823.13	27218
823.27	27374
823.41	27279
823.55	27211
823.69	27173
823.83	27340
823.97	27195
824.11	26990
824.25	27043
824.389	27112
824.529	27173
824.669	27058
824.809	27074
824.949	27036
825.089	27138
825.228	27150
825.368	27001
825.508	26914
825.648	26971
825.787	27039
825.927	26948
826.067	26910
826.206	26872
826.346	26986
826.485	27085
826.625	27009
826.765	27093
826.904	26979
827.044	26708
827.183	26663
827.323	26644
827.462	26769
827.601	26804
827.741	26636
827.88	26602
828.02	26587
828.159	26492
828.298	26648
828.437	26697
828.577	26514
828.716	26838
828.855	26659
828.994	26317
829.134	26320
829.273	26385
829.412	26339
829.551	26210
829.69	26294
829.829	26450
829.968	26598
830.107	26282
830.246	26290
830.385	26446
830.524	26278
830.663	26240
830.802	26126
830.941	25932
831.08	25906
831.219	25997
831.357	26092
831.496	26130
831.635	25898
831.774	25909
831.913	25788
832.051	25883
832.19	25811
832.329	25715
832.467	25613
832.606	25643
832.744	25575
832.883	25620
833.022	25696
833.16	25559
833.299	25791
833.437	25655
833.576	25685
833.714	25727
833.852	25864
833.991	25803
834.129	25837
834.267	25696
834.406	25689
834.544	25696
834.682	25685
834.821	25723
834.959	25753
835.097	25635
835.235	25575
835.373	25715
835.511	25651
835.65	25556
835.788	25464
835.926	25274
836.064	25297
836.202	25365
836.34	25407
836.478	25601
836.615	25449
836.753	25571
836.891	25639
837.029	25499
837.167	25529
837.305	25441
837.443	25472
837.58	25441
837.718	25449
837.856	25392
837.993	25335
838.131	25453
838.269	25274
838.406	25244
838.544	25141
838.681	24985
838.819	24966
838.956	24848
839.094	24722
839.231	24856
839.369	25072
839.506	25080
839.643	25061
839.781	24726
839.918	24715
840.055	24726
840.193	24768
840.33	24730
840.467	24764
840.604	24715
840.742	24985
840.879	24585
841.016	24570
841.153	24528
841.29	24833
841.427	24612
841.564	24650
841.701	24715
841.838	24631
841.975	24620
842.112	24642
842.249	24616
842.385	24441
842.522	24665
842.659	24498
842.796	24467
842.933	24467
843.069	24433
843.206	24536
843.343	24498
843.479	24289
843.616	24338
843.752	24277
843.889	24232
844.025	24357
844.162	24300
844.298	24498
844.435	24262
844.571	24232
844.708	24190
844.844	24376
844.98	24391
845.117	24456
845.253	24254
845.389	24018
845.525	24110
845.661	24106
845.798	24022
845.934	24072
846.07	23958
846.206	24114
846.342	24068
846.478	23954
846.614	23767
846.75	23619
846.886	23748
847.022	23764
847.158	23729
847.294	23691
847.429	23718
847.565	23596
847.701	23950
847.837	23421
847.972	23356
848.108	23490
848.244	23577
848.379	23353
848.515	23269
848.65	23174
848.786	23326
848.921	23299
849.057	23292
849.192	23406
849.328	23315
849.463	23436
849.598	23269
849.734	23155
849.869	23124
850.004	23117
850.14	23090
850.275	23109
850.41	22953
850.545	22942
850.68	22946
850.815	23064
850.95	23178
851.085	23353
851.22	23037
851.355	22999
851.49	23094
851.625	23079
851.76	22995
851.895	22873
852.03	23006
852.165	23094
852.299	22965
852.434	23170
852.569	23113
852.703	23025
852.838	23048
852.973	23105
853.107	23132
853.242	23109
853.376	22858
853.511	22877
853.645	22809
853.78	22930
853.914	22919
854.048	22919
854.183	22972
854.317	22927
854.451	22938
854.585	22965
854.72	22877
854.854	22908
854.988	22839
855.122	22774
855.256	22721
855.39	22919
855.524	22828
855.658	22987
855.792	22820
855.926	22862
856.06	22900
856.194	23010
856.327	22862
856.461	22881
856.595	22733
856.729	22797
856.862	22927
856.996	22869
857.13	22923
857.263	22942
857.397	22946
857.53	22869
857.664	22869
857.797	22790
857.931	22987
858.064	22889
858.197	22953
858.331	22923
858.464	22778
858.597	22763
858.731	22744
858.864	22847
858.997	22835
859.13	22972
859.263	22889
859.396	22873
859.529	22755
859.662	22812
859.795	22866
859.928	22850
860.061	22984
860.194	23071
860.327	22896
860.46	22923
860.592	22976
860.725	23018
860.858	22999
860.99	22972
861.123	22755
861.256	22824
861.388	22889
861.521	23433
861.653	22755
861.786	22691
861.918	22797
862.05	22755
862.183	22805
862.315	22733
862.447	22877
862.58	22641
862.712	22656
862.844	22504
862.976	22535
863.108	22622
863.24	22919
863.372	22466
863.504	22599
863.636	22500
863.768	22592
863.9	22573
864.032	22382
864.164	22497
864.296	22759
864.428	22660
864.559	22649
864.691	22687
864.823	22653
864.954	22573
865.086	22538
865.217	22538
865.349	22310
865.48	22424
865.612	22470
865.743	22451
865.875	22402
866.006	22363
866.137	22447
866.269	22455
866.4	22325
866.531	22356
866.662	22344
866.793	22268
866.924	22390
867.055	22261
867.186	22474
867.317	22447
867.448	22352
867.579	22276
867.71	22291
867.841	22287
867.972	22386
868.103	22382
868.233	22318
868.364	22413
868.495	22440
868.625	22596
868.756	22679
868.886	22607
869.017	22561
869.147	22854
869.278	22801
869.408	22683
869.539	22599
869.669	22615
869.799	22713
869.929	22831
870.06	22664
870.19	22930
870.32	22869
870.45	22877
870.58	22953
870.71	23079
870.84	23113
870.97	22984
871.1	22957
871.23	23216
871.36	23155
871.489	23162
871.619	23185
871.749	23162
871.879	23250
872.008	23280
872.138	23197
872.267	23132
872.397	23166
872.526	23060
872.656	23143
872.785	23056
872.915	23185
873.044	23280
873.173	23235
873.303	23273
873.432	23425
873.561	23318
873.69	23204
873.819	23284
873.948	23242
874.077	23212
874.206	23159
874.335	23128
874.464	23406
874.593	23349
874.722	23414
874.851	23501
874.979	23448
875.108	23516
875.237	23372
875.365	23200
875.494	23425
875.623	23493
875.751	23376
875.88	23368
876.008	23539
876.136	23764
876.265	23893
876.393	23965
876.521	23832
876.65	23958
876.778	23775
876.906	23741
877.034	23798
877.162	23775
877.29	23767
877.418	23752
877.546	23851
877.674	23699
877.802	23821
877.93	23710
878.058	23661
878.185	23699
878.313	23726
878.441	23832
878.568	23459
878.696	23672
878.824	23756
878.951	23912
879.079	23908
879.206	24095
879.333	23950
879.461	23752
879.588	23878
879.715	23969
879.842	24053
879.97	23733
880.097	23646
880.224	23592
880.351	23486
880.478	23676
880.605	23638
880.732	23623
880.859	23729
880.986	23471
881.112	23604
881.239	23414
881.366	23330
881.493	23269
881.619	23200
881.746	23231
881.872	23090
881.999	23174
882.125	23033
882.252	23105
882.378	23064
882.505	23288
882.631	22987
882.757	23025
882.883	22965
883.01	22896
883.136	22858
883.262	22675
883.388	22611
883.514	22816
883.64	22812
883.766	22637
883.892	22592
884.018	22580
884.143	22687
884.269	22839
884.395	22523
884.52	22390
884.646	22447
884.772	22341
884.897	22295
885.023	22447
885.148	22542
885.274	22550
885.399	22504
885.524	22424
885.65	22413
885.775	22417
885.9	22470
886.025	22580
886.15	22421
886.275	22390
886.4	22303
886.525	22322
886.65	22295
886.775	22341
886.9	22405
887.025	22653
887.149	22409
887.274	22192
887.399	22306
887.523	22196
887.648	22238
887.773	22112
887.897	22314
888.021	22112
888.146	22139
888.27	22284
888.395	22249
888.519	22261
888.643	22082
888.767	22310
888.891	22090
889.015	21964
889.139	22036
889.263	22029
889.387	22196
889.511	22192
889.635	22116
889.759	22010
889.883	21983
890.006	21968
890.13	21991
890.254	21926
890.377	21930
890.501	21656
890.624	21667
890.748	21781
890.871	21667
890.995	21454
891.118	21473
891.241	21580
891.364	21595
891.488	21663
891.611	21629
891.734	21507
891.857	21629
891.98	21545
892.103	21492
892.226	21625
892.349	21458
892.471	21348
892.594	21481
892.717	21336
892.839	21332
892.962	21443
893.085	21523
893.207	21313
893.33	21310
893.452	21363
893.575	21401
893.697	21424
893.819	21580
893.941	21644
894.064	21614
894.186	21268
894.308	21313
894.43	21389
894.552	21587
894.674	21530
894.796	21306
894.918	21344
895.04	21310
895.161	21447
895.283	21412
895.405	21291
895.526	21401
895.648	21397
895.769	21344
895.891	21485
896.012	21401
896.134	21306
896.255	21523
896.376	21405
896.498	21306
896.619	21424
896.74	21351
896.861	21481
896.982	21679
897.103	21857
897.224	21629
897.345	21576
897.466	21523
897.587	21652
897.708	21644
897.828	21580
897.949	21572
898.07	21443
898.19	21428
898.311	21656
898.431	21488
898.552	21401
898.672	21633
898.792	21610
898.913	21580
899.033	21530
899.153	21386
899.273	21249
899.393	21264
899.513	21321
899.633	21287
899.753	21268
899.873	21336
899.993	21283
900.113	21264
900.232	21325
900.352	21310
900.472	21214
900.591	21020
900.711	21058
900.83	21127
900.95	21150
901.069	21070
901.189	20921
901.308	20735
901.427	20613
901.546	20564
901.665	20663
901.784	20720
901.904	20438
902.023	20404
902.141	20259
902.26	20168
902.379	20366
902.498	20149
902.617	20145
902.735	20092
902.854	20115
902.973	20130
903.091	19883
903.21	19757
903.328	19761
903.446	19693
903.565	19643
903.683	19518
903.801	19407
903.919	19655
904.038	19552
904.156	19407
904.274	19407
904.392	19327
904.51	19316
904.627	19263
904.745	19468
904.863	19362
904.981	19171
905.098	19042
905.216	19034
905.334	18996
905.451	19088
905.569	19019
905.686	19012
905.803	19103
905.921	18894
906.038	18928
906.155	18810
906.272	18642
906.389	18650
906.506	18582
906.623	18650
906.74	18521
906.857	18479
906.974	18483
907.091	18566
907.208	18566
907.324	18570
907.441	18559
907.557	18243
907.674	18319
907.79	18243
907.907	18228
908.023	18376
908.139	18197
908.256	18292
908.372	18155
908.488	18140
908.604	17923
908.72	18003
908.836	17920
908.952	17912
909.068	17950
909.184	18072
909.3	17961
909.415	18072
909.531	17889
909.647	17729
909.762	17790
909.878	17608
909.993	17714
910.108	17710
910.224	17592
910.339	17638
910.454	17444
910.57	17379
910.685	17398
910.8	17687
910.915	17581
911.03	17444
911.145	17334
911.259	17242
911.374	17265
911.489	17143
911.604	17102
911.718	16957
911.833	17022
911.947	16923
912.062	16911
912.176	16908
912.291	17018
912.405	17060
912.519	17189
912.633	17094
912.748	16984
912.862	16892
912.976	16900
913.09	16778
913.204	16691
913.318	16771
913.431	16862
913.545	16892
913.659	16877
913.772	16672
913.886	16626
914	16660
914.113	16599
914.226	16713
914.34	16535
914.453	16470
914.566	16466
914.68	16523
914.793	16413
914.906	16261
915.019	16166
915.132	16093
915.245	16188
915.358	16082
915.47	16173
915.583	16169
915.696	16086
915.809	16135
915.921	16295
916.034	16116
916.146	16124
916.259	16025
916.371	16074
916.483	16116
916.595	15972
916.708	15907
916.82	15918
916.932	15854
917.044	15869
917.156	15850
917.268	15823
917.38	15774
917.491	15808
917.603	15759
917.715	15812
917.826	15922
917.938	15656
918.049	15614
918.161	15713
918.272	15865
918.384	15800
918.495	15694
918.606	15534
918.717	15416
918.828	15523
918.939	15576
919.05	15435
919.161	15515
919.272	15195
919.383	15363
919.494	15523
919.604	15679
919.715	15469
919.826	15382
919.936	15412
920.047	15496
920.157	15428
920.267	15652
920.378	15393
920.488	15443
920.598	15595
920.708	15701
920.818	15553
920.928	15542
921.038	15667
921.148	15675
921.258	15374
921.368	15241
921.477	15195
921.587	15142
921.697	15055
921.806	15176
921.916	15009
922.025	14788
922.134	14769
922.244	14735
922.353	14788
922.462	14594
922.571	14625
922.68	14492
922.789	14412
922.898	14469
923.007	14298
923.116	14415
923.224	14332
923.333	14377
923.442	14347
923.55	14237
923.659	14305
923.767	14332
923.876	14161
923.984	14267
924.092	14103
924.201	14138
924.309	14126
924.417	14161
924.525	14069
924.633	14058
924.741	15013
924.849	13871
924.956	14024
925.064	13871
925.172	13753
925.279	13708
925.387	13837
925.494	13765
925.602	13871
925.709	13852
925.816	13674
925.924	13727
926.031	13814
926.138	13708
926.245	13681
926.352	13636
926.459	13696
926.566	13811
926.673	13624
926.779	13548
926.886	13620
926.993	13354
927.099	13392
927.206	13202
927.312	13255
927.419	13365
927.525	13308
927.631	13331
927.737	13099
927.843	13107
927.95	13069
928.056	13031
928.162	13141
928.267	13206
928.373	13761
928.479	13244
928.585	12962
928.69	13072
928.796	13152
928.901	13023
929.007	12848
929.112	12973
929.218	12954
929.323	12901
929.428	12821
929.533	13015
929.638	12753
929.743	12840
929.848	12814
929.953	12741
930.058	12589
930.163	12547
930.267	12585
930.372	12578
930.477	12418
930.581	12715
930.685	12551
930.79	12372
930.894	12399
930.998	12494
931.103	12441
931.207	12068
931.311	11984
931.415	11954
931.519	11802
931.623	11756
