Data from test_V78500241_598.txt Node
Date: Fri Mar 25 15:45:56 CST 2022
User: usil
Spectrometer: V785-0024
Trigger mode: 0
Integration Time (sec): 4.000000E-1
Scans to average: 1
Nonlinearity correction enabled: false
Boxcar width: 0
Storing dark spectrum: false
XAxis mode: Wavelengths
Number of Pixels in Spectrum: 1024
>>>>>Begin Spectral Data<<<<<
801.071	27557
801.214	27412
801.356	27317
801.499	27138
801.641	27161
801.783	27055
801.926	27218
802.068	27043
802.211	27055
802.353	26876
802.496	26857
802.638	26693
802.78	26693
802.923	26613
803.065	26686
803.208	26765
803.35	26682
803.492	26720
803.635	26823
803.777	26670
803.919	26876
804.061	26990
804.204	26899
804.346	26781
804.488	26921
804.63	26940
804.773	26781
804.915	26994
805.057	26940
805.199	26883
805.341	26986
805.483	26929
805.626	26910
805.768	26838
805.91	27028
806.052	26994
806.194	26834
806.336	27252
806.478	27039
806.62	26921
806.762	27089
806.904	27370
807.046	27412
807.188	27576
807.33	27389
807.472	27526
807.614	27272
807.756	27256
807.898	27332
808.04	27241
808.182	27245
808.324	27279
808.465	27237
808.607	27458
808.749	27481
808.891	27606
809.033	27720
809.174	27682
809.316	27587
809.458	27625
809.6	27458
809.741	27804
809.883	27781
810.025	27774
810.166	27797
810.308	27937
810.45	27903
810.591	27831
810.733	27545
810.875	27580
811.016	27416
811.158	27534
811.299	27800
811.441	27705
811.582	27656
811.724	27591
811.865	27507
812.007	27500
812.148	27618
812.29	27785
812.431	27831
812.573	27983
812.714	28067
812.855	28147
812.997	28219
813.138	28333
813.279	28287
813.421	28188
813.562	28101
813.703	27899
813.845	27903
813.986	27507
814.127	27348
814.268	27138
814.41	27233
814.551	27287
814.692	27325
814.833	27237
814.974	27264
815.115	27325
815.256	27127
815.397	27203
815.539	27192
815.68	27020
815.821	26956
815.962	27211
816.103	27055
816.244	27051
816.385	26807
816.526	26788
816.666	26556
816.807	26609
816.948	26476
817.089	26659
817.23	26530
817.371	26499
817.512	26606
817.653	26636
817.793	26533
817.934	26663
818.075	26552
818.216	26514
818.356	26602
818.497	26446
818.638	26351
818.778	26343
818.919	26214
819.06	26351
819.2	26495
819.341	26465
819.481	26461
819.622	26712
819.762	26887
819.903	26872
820.043	26659
820.184	26636
820.324	26552
820.465	26674
820.605	26663
820.746	26583
820.886	26522
821.026	26552
821.167	26606
821.307	26754
821.447	26590
821.588	26396
821.728	26351
821.868	26187
822.008	26069
822.149	26081
822.289	25925
822.429	25772
822.569	25742
822.709	25712
822.849	25495
822.99	25582
823.13	25381
823.27	25487
823.41	25365
823.55	25202
823.69	25301
823.83	25297
823.97	25244
824.11	25129
824.25	25031
824.389	25187
824.529	25156
824.669	25198
824.809	25301
824.949	25240
825.089	25152
825.228	25308
825.368	24924
825.508	25019
825.648	24890
825.787	25019
825.927	25034
826.067	25053
826.206	24943
826.346	25076
826.485	25190
826.625	25038
826.765	25110
826.904	25080
827.044	24764
827.183	24783
827.323	24772
827.462	24783
827.601	24696
827.741	24608
827.88	24833
828.02	24696
828.159	24578
828.298	24692
828.437	24719
828.577	24681
828.716	24844
828.855	24597
828.994	24540
829.134	24388
829.273	24483
829.412	24414
829.551	24399
829.69	24388
829.829	24475
829.968	24410
830.107	24479
830.246	24403
830.385	24410
830.524	24300
830.663	24182
830.802	24057
830.941	24045
831.08	23946
831.219	24129
831.357	24011
831.496	24247
831.635	23935
831.774	24026
831.913	24087
832.051	23813
832.19	23729
832.329	23809
832.467	23764
832.606	23623
832.744	23596
832.883	23741
833.022	23764
833.16	23604
833.299	23771
833.437	23703
833.576	23813
833.714	23752
833.852	23737
833.991	23859
834.129	23786
834.267	23946
834.406	23714
834.544	23912
834.682	23794
834.821	23764
834.959	23942
835.097	23672
835.235	23767
835.373	23707
835.511	23634
835.65	23638
835.788	23604
835.926	23463
836.064	23360
836.202	23410
836.34	23608
836.478	23752
836.615	23615
836.753	23703
836.891	23737
837.029	23573
837.167	23649
837.305	23486
837.443	23421
837.58	23421
837.718	23493
837.856	23524
837.993	23372
838.131	23391
838.269	23311
838.406	23341
838.544	23239
838.681	23044
838.819	23022
838.956	22919
839.094	22987
839.231	23014
839.369	23090
839.506	23231
839.643	23197
839.781	23025
839.918	22828
840.055	23029
840.193	22866
840.33	22835
840.467	22809
840.604	22927
840.742	23090
840.879	22660
841.016	22869
841.153	22668
841.29	22930
841.427	22938
841.564	22866
841.701	22896
841.838	22763
841.975	22668
842.112	22649
842.249	22622
842.385	22561
842.522	22763
842.659	22649
842.796	22519
842.933	22603
843.069	22523
843.206	22592
843.343	22653
843.479	22611
843.616	22596
843.752	22436
843.889	22310
844.025	22493
844.162	22341
844.298	22459
844.435	22341
844.571	22230
844.708	22421
844.844	22550
844.98	22428
845.117	22348
845.253	22234
845.389	22177
845.525	22249
845.661	22185
845.798	22280
845.934	22147
846.07	22242
846.206	22109
846.342	22150
846.478	22063
846.614	21945
846.75	21705
846.886	21743
847.022	21937
847.158	21762
847.294	21812
847.429	21819
847.565	21842
847.701	22032
847.837	21523
847.972	21439
848.108	21679
848.244	21583
848.379	21485
848.515	21477
848.65	21336
848.786	21408
848.921	21500
849.057	21595
849.192	21439
849.328	21534
849.463	21424
849.598	21348
849.734	21203
849.869	21241
850.004	21096
850.14	21245
850.275	21131
850.41	21024
850.545	21176
850.68	21138
850.815	21138
850.95	21154
851.085	21245
851.22	21367
851.355	21218
851.49	21142
851.625	21161
851.76	21062
851.895	21001
852.03	21135
852.165	21211
852.299	21176
852.434	21195
852.569	21146
852.703	21230
852.838	21211
852.973	21260
853.107	21192
853.242	21123
853.376	20956
853.511	20864
853.645	20941
853.78	21131
853.914	20967
854.048	20842
854.183	21020
854.317	20967
854.451	21237
854.585	20982
854.72	20925
854.854	21161
854.988	20910
855.122	21093
855.256	20857
855.39	21032
855.524	21001
855.658	21085
855.792	21005
855.926	20994
856.06	21009
856.194	20948
856.327	21047
856.461	21009
856.595	20872
856.729	21013
856.862	21055
856.996	20998
857.13	21017
857.263	21119
857.397	21085
857.53	20967
857.664	21005
857.797	21032
857.931	21043
858.064	21005
858.197	21116
858.331	21005
858.464	20925
858.597	20785
858.731	20925
858.864	20956
858.997	20933
859.13	20864
859.263	21051
859.396	21180
859.529	20929
859.662	20910
859.795	20975
859.928	21009
860.061	21142
860.194	21283
860.327	21116
860.46	20990
860.592	21108
860.725	21104
860.858	21089
860.99	20956
861.123	20895
861.256	20971
861.388	20990
861.521	21477
861.653	20872
861.786	20853
861.918	20807
862.05	20895
862.183	20902
862.315	20883
862.447	20899
862.58	20842
862.712	20887
862.844	20632
862.976	20811
863.108	20720
863.24	21298
863.372	20735
863.504	20716
863.636	20693
863.768	20773
863.9	20724
864.032	20667
864.164	20602
864.296	20762
864.428	20819
864.559	20845
864.691	20762
864.823	20727
864.954	20636
865.086	20735
865.217	20621
865.349	20609
865.48	20602
865.612	20602
865.743	20743
865.875	20571
866.006	20530
866.137	20590
866.269	20533
866.4	20613
866.531	20511
866.662	20602
866.793	20412
866.924	20579
867.055	20602
867.186	20602
867.317	20415
867.448	20446
867.579	20419
867.71	20488
867.841	20408
867.972	20465
868.103	20621
868.233	20514
868.364	20465
868.495	20788
868.625	20872
868.756	20796
868.886	20686
869.017	20876
869.147	20895
869.278	20883
869.408	20872
869.539	20804
869.669	20902
869.799	20705
869.929	20834
870.06	20819
870.19	21020
870.32	21081
870.45	21188
870.58	21218
870.71	21241
870.84	21230
870.97	21184
871.1	21138
871.23	21256
871.36	21408
871.489	21325
871.619	21450
871.749	21428
871.879	21389
872.008	21447
872.138	21363
872.267	21302
872.397	21321
872.526	21096
872.656	21260
872.785	21287
872.915	21393
873.044	21492
873.173	21488
873.303	21332
873.432	21431
873.561	21462
873.69	21268
873.819	21344
873.948	21416
874.077	21454
874.206	21408
874.335	21275
874.464	21511
874.593	21618
874.722	21572
874.851	21694
874.979	21690
875.108	21663
875.237	21610
875.365	21492
875.494	21583
875.623	21660
875.751	21660
875.88	21656
876.008	21781
876.136	21903
876.265	22025
876.393	22135
876.521	22044
876.65	22086
876.778	22032
876.906	21972
877.034	22029
877.162	22010
877.29	21911
877.418	22010
877.546	22010
877.674	22025
877.802	21922
877.93	21903
878.058	21956
878.185	21911
878.313	21846
878.441	21994
878.568	21827
878.696	22006
878.824	21930
878.951	22101
879.079	22226
879.206	22287
879.333	22131
879.461	22055
879.588	22074
879.715	22196
879.842	22284
879.97	22055
880.097	21831
880.224	21797
880.351	21766
880.478	21778
880.605	21831
880.732	21759
880.859	21937
880.986	21880
881.112	21720
881.239	21694
881.366	21576
881.493	21561
881.619	21397
881.746	21405
881.872	21435
881.999	21325
882.125	21275
882.252	21458
882.378	21530
882.505	21507
882.631	21241
882.757	21176
882.883	21237
883.01	21032
883.136	21055
883.262	20994
883.388	20910
883.514	21165
883.64	21127
883.766	21062
883.892	20906
884.018	20899
884.143	21039
884.269	20998
884.395	20765
884.52	20788
884.646	20830
884.772	20579
884.897	20686
885.023	20765
885.148	20781
885.274	21051
885.399	20891
885.524	20689
885.65	20731
885.775	20754
885.9	20788
886.025	20880
886.15	20800
886.275	20712
886.4	20716
886.525	20716
886.65	20651
886.775	20575
886.9	20941
887.025	21020
887.149	20708
887.274	20514
887.399	20549
887.523	20526
887.648	20385
887.773	20404
887.897	20583
888.021	20568
888.146	20484
888.27	20537
888.395	20484
888.519	20609
888.643	20465
888.767	20488
888.891	20549
889.015	20313
889.139	20370
889.263	20442
889.387	20469
889.511	20473
889.635	20427
889.759	20195
889.883	20332
890.006	20446
890.13	20362
890.254	20275
890.377	20252
890.501	20172
890.624	20039
890.748	20164
890.871	20012
890.995	19871
891.118	19795
891.241	19803
891.364	19898
891.488	19875
891.611	19852
891.734	19955
891.857	19932
891.98	19913
892.103	19974
892.226	19993
892.349	19845
892.471	19784
892.594	19784
892.717	19917
892.839	19791
892.962	19784
893.085	19852
893.207	19776
893.33	19719
893.452	19734
893.575	19860
893.697	19822
893.819	19826
893.941	19974
894.064	20039
894.186	19780
894.308	19685
894.43	19864
894.552	19875
894.674	19814
894.796	19655
894.918	19746
895.04	19814
895.161	19833
895.283	19731
895.405	19750
895.526	19723
895.648	19757
895.769	19845
895.891	19921
896.012	19963
896.134	19822
896.255	19830
896.376	19833
896.498	19769
896.619	19932
896.74	19875
896.861	19837
896.982	20161
897.103	20317
897.224	20206
897.345	19974
897.466	20020
897.587	20001
897.708	20237
897.828	20088
897.949	19951
898.07	19818
898.19	19879
898.311	20001
898.431	19963
898.552	20058
898.672	20153
898.792	20062
898.913	20126
899.033	19989
899.153	19913
899.273	19750
899.393	19795
899.513	19833
899.633	19757
899.753	19811
899.873	19769
899.993	19814
900.113	19715
900.232	19803
900.352	19826
900.472	19632
900.591	19548
900.711	19616
900.83	19529
900.95	19624
901.069	19772
901.189	19377
901.308	19301
901.427	19251
901.546	19160
901.665	19145
901.784	19232
901.904	19080
902.023	18890
902.141	18753
902.26	18768
902.379	18867
902.498	18623
902.617	18650
902.735	18783
902.854	18631
902.973	18585
903.091	18342
903.21	18262
903.328	18483
903.446	18209
903.565	18064
903.683	18129
903.801	17996
903.919	18072
904.038	18079
904.156	17920
904.274	17958
904.392	17904
904.51	17984
904.627	17889
904.745	17999
904.863	17923
904.981	17832
905.098	17608
905.216	17532
905.334	17707
905.451	17668
905.569	17566
905.686	17600
905.803	17585
905.921	17501
906.038	17520
906.155	17516
906.272	17227
906.389	17349
906.506	17250
906.623	17254
906.74	17159
906.857	16934
906.974	17086
907.091	17284
907.208	17174
907.324	17174
907.441	17067
907.557	16961
907.674	16942
907.79	16801
907.907	16786
908.023	16915
908.139	16942
908.256	16896
908.372	16694
908.488	16668
908.604	16565
908.72	16580
908.836	16683
908.952	16493
909.068	16546
909.184	16615
909.3	16554
909.415	16656
909.531	16607
909.647	16394
909.762	16329
909.878	16196
909.993	16325
910.108	16196
910.224	16352
910.339	16238
910.454	16192
910.57	16139
910.685	16097
910.8	16341
910.915	16219
911.03	16021
911.145	15854
911.259	15751
911.374	15869
911.489	15895
911.604	15766
911.718	15694
911.833	15705
911.947	15572
912.062	15401
912.176	15724
912.291	15656
912.405	15686
912.519	15918
912.633	15743
912.748	15694
912.862	15698
912.976	15500
913.09	15336
913.204	15370
913.318	15397
913.431	15496
913.545	15580
913.659	15526
913.772	15454
913.886	15336
914	15268
914.113	15340
914.226	15344
914.34	15313
914.453	15188
914.566	15287
914.68	15097
914.793	15146
914.906	15001
915.019	14868
915.132	14800
915.245	14811
915.358	14910
915.47	14982
915.583	14902
915.696	14864
915.809	14960
915.921	15047
916.034	14781
916.146	14864
916.259	14746
916.371	14902
916.483	14769
916.595	14716
916.708	14663
916.82	14708
916.932	14693
917.044	14716
917.156	14644
917.268	14575
917.38	14511
917.491	14556
917.603	14552
917.715	14632
917.826	14629
917.938	14549
918.049	14358
918.161	14541
918.272	14632
918.384	14533
918.495	14533
918.606	14362
918.717	14168
918.828	14324
918.939	14309
919.05	14248
919.161	14259
919.272	14008
919.383	14123
919.494	14332
919.604	14514
919.715	14271
919.826	14088
919.936	14275
920.047	14332
920.157	14290
920.267	14488
920.378	14248
920.488	14259
920.598	14427
920.708	14575
920.818	14419
920.928	14355
921.038	14587
921.148	14442
921.258	14195
921.368	14039
921.477	14096
921.587	13978
921.697	13902
921.806	14046
921.916	13841
922.025	13666
922.134	13715
922.244	13639
922.353	13719
922.462	13658
922.571	13460
922.68	13327
922.789	13198
922.898	13255
923.007	13209
923.116	13274
923.224	13263
923.333	13278
923.442	13129
923.55	13137
923.659	13209
923.767	13247
923.876	13149
923.984	13149
924.092	13088
924.201	13072
924.309	13080
924.417	13053
924.525	13012
924.633	12951
924.741	13928
924.849	12802
924.956	12833
925.064	12798
925.172	12734
925.279	12635
925.387	12745
925.494	12791
925.602	12871
925.709	12715
925.816	12608
925.924	12601
926.031	12768
926.138	12677
926.245	12757
926.352	12585
926.459	12696
926.566	12745
926.673	12631
926.779	12376
926.886	12445
926.993	12311
927.099	12266
927.206	12277
927.312	12190
927.419	12391
927.525	12384
927.631	12350
927.737	12163
927.843	12148
927.95	12091
928.056	12136
928.162	12163
928.267	12171
928.373	12757
928.479	12197
928.585	11916
928.69	12057
928.796	12148
928.901	11961
929.007	11908
929.112	11988
929.218	11893
929.323	11851
929.428	11935
929.533	11999
929.638	11866
929.743	11843
929.848	11836
929.953	11813
930.058	11760
930.163	11566
930.267	11539
930.372	11638
930.477	11646
930.581	11737
930.685	11604
930.79	11444
930.894	11558
930.998	11440
931.103	11634
931.207	11208
931.311	11212
931.415	11121
931.519	10881
931.623	10824
