Data from test_V78500241_496.txt Node
Date: Fri Mar 25 15:45:14 CST 2022
User: usil
Spectrometer: V785-0024
Trigger mode: 0
Integration Time (sec): 4.000000E-1
Scans to average: 1
Nonlinearity correction enabled: false
Boxcar width: 0
Storing dark spectrum: false
XAxis mode: Wavelengths
Number of Pixels in Spectrum: 1024
>>>>>Begin Spectral Data<<<<<
801.071	27618
801.214	27519
801.356	27165
801.499	27222
801.641	27176
801.783	27135
801.926	27173
802.068	27039
802.211	27036
802.353	26861
802.496	26815
802.638	26948
802.78	26632
802.923	26678
803.065	26613
803.208	26609
803.35	26697
803.492	26785
803.635	26735
803.777	26731
803.919	26849
804.061	27211
804.204	26998
804.346	26785
804.488	26769
804.63	26883
804.773	26686
804.915	26781
805.057	26887
805.199	26800
805.341	26914
805.483	26948
805.626	26986
805.768	26796
805.91	27039
806.052	26925
806.194	26857
806.336	27195
806.478	26918
806.62	27005
806.762	27176
806.904	27450
807.046	27530
807.188	27427
807.33	27443
807.472	27427
807.614	27294
807.756	27435
807.898	27268
808.04	27180
808.182	27173
808.324	27176
808.465	27245
808.607	27507
808.749	27564
808.891	27652
809.033	27861
809.174	27755
809.316	27667
809.458	27614
809.6	27564
809.741	27622
809.883	27778
810.025	27998
810.166	27766
810.308	27888
810.45	27770
810.591	27850
810.733	27656
810.875	27534
811.016	27637
811.158	27633
811.299	27709
811.441	27827
811.582	27751
811.724	27686
811.865	27488
812.007	27644
812.148	27603
812.29	27526
812.431	27751
812.573	27975
812.714	28067
812.855	28310
812.997	28242
813.138	28432
813.279	28322
813.421	28128
813.562	28143
813.703	27865
813.845	27945
813.986	27549
814.127	27374
814.268	27192
814.41	27378
814.551	27351
814.692	27397
814.833	27264
814.974	27173
815.115	27279
815.256	27009
815.397	27017
815.539	27233
815.68	27039
815.821	26952
815.962	27032
816.103	27032
816.244	26899
816.385	26785
816.526	26842
816.666	26689
816.807	26678
816.948	26636
817.089	26743
817.23	26522
817.371	26533
817.512	26606
817.653	26374
817.793	26446
817.934	26552
818.075	26499
818.216	26564
818.356	26419
818.497	26453
818.638	26313
818.778	26412
818.919	26336
819.06	26434
819.2	26328
819.341	26465
819.481	26495
819.622	26648
819.762	26746
819.903	26845
820.043	26701
820.184	26587
820.324	26625
820.465	26705
820.605	26682
820.746	26583
820.886	26552
821.026	26564
821.167	26632
821.307	26625
821.447	26648
821.588	26434
821.728	26362
821.868	26058
822.008	26054
822.149	26012
822.289	25906
822.429	25780
822.569	25719
822.709	25586
822.849	25639
822.99	25308
823.13	25537
823.27	25373
823.41	25289
823.55	25145
823.69	25354
823.83	25228
823.97	25316
824.11	25080
824.25	25012
824.389	25084
824.529	25194
824.669	25194
824.809	25168
824.949	25278
825.089	25148
825.228	25217
825.368	24905
825.508	25072
825.648	25099
825.787	25141
825.927	24996
826.067	24798
826.206	25084
826.346	24973
826.485	25129
826.625	25095
826.765	25107
826.904	24966
827.044	24802
827.183	24703
827.323	24684
827.462	24738
827.601	24677
827.741	24772
827.88	24776
828.02	24570
828.159	24715
828.298	24692
828.437	24677
828.577	24616
828.716	24985
828.855	24597
828.994	24456
829.134	24410
829.273	24388
829.412	24414
829.551	24399
829.69	24464
829.829	24445
829.968	24429
830.107	24456
830.246	24429
830.385	24262
830.524	24308
830.663	24213
830.802	24171
830.941	24140
831.08	24030
831.219	24068
831.357	24087
831.496	24281
831.635	24068
831.774	24034
831.913	23855
832.051	23760
832.19	23802
832.329	23866
832.467	23661
832.606	23581
832.744	23528
832.883	23592
833.022	23642
833.16	23672
833.299	23710
833.437	23718
833.576	23710
833.714	23824
833.852	23836
833.991	23676
834.129	23874
834.267	23874
834.406	23695
834.544	23733
834.682	23615
834.821	23741
834.959	23920
835.097	23634
835.235	23859
835.373	23764
835.511	23623
835.65	23478
835.788	23619
835.926	23535
836.064	23364
836.202	23296
836.34	23524
836.478	23653
836.615	23573
836.753	23585
836.891	23520
837.029	23638
837.167	23562
837.305	23512
837.443	23459
837.58	23402
837.718	23493
837.856	23505
837.993	23318
838.131	23311
838.269	23216
838.406	23364
838.544	23254
838.681	23159
838.819	23067
838.956	22927
839.094	22850
839.231	22930
839.369	22965
839.506	23273
839.643	23235
839.781	22923
839.918	22793
840.055	22892
840.193	22858
840.33	22812
840.467	22847
840.604	22835
840.742	23102
840.879	22771
841.016	22694
841.153	22713
841.29	22900
841.427	22767
841.564	22755
841.701	22717
841.838	22596
841.975	22660
842.112	22801
842.249	22656
842.385	22561
842.522	22736
842.659	22569
842.796	22672
842.933	22462
843.069	22478
843.206	22489
843.343	22535
843.479	22592
843.616	22512
843.752	22325
843.889	22470
844.025	22546
844.162	22253
844.298	22432
844.435	22382
844.571	22246
844.708	22424
844.844	22493
844.98	22413
845.117	22379
845.253	22226
845.389	22169
845.525	22188
845.661	22272
845.798	22116
845.934	22166
846.07	22055
846.206	22086
846.342	22185
846.478	22078
846.614	21922
846.75	21682
846.886	21880
847.022	21838
847.158	21842
847.294	21736
847.429	21793
847.565	21812
847.701	22109
847.837	21492
847.972	21405
848.108	21542
848.244	21591
848.379	21329
848.515	21374
848.65	21386
848.786	21367
848.921	21397
849.057	21416
849.192	21553
849.328	21355
849.463	21348
849.598	21306
849.734	21146
849.869	21173
850.004	21264
850.14	21203
850.275	21062
850.41	21146
850.545	21062
850.68	21119
850.815	21195
850.95	21146
851.085	21340
851.22	21344
851.355	21157
851.49	21165
851.625	21100
851.76	21230
851.895	21112
852.03	20960
852.165	21093
852.299	21195
852.434	21226
852.569	21146
852.703	21184
852.838	21207
852.973	21233
853.107	21222
853.242	21214
853.376	21005
853.511	20834
853.645	20899
853.78	21108
853.914	21062
854.048	20921
854.183	20891
854.317	20925
854.451	21249
854.585	20998
854.72	21009
854.854	21085
854.988	20861
855.122	21005
855.256	20868
855.39	21013
855.524	21070
855.658	20994
855.792	20994
855.926	20982
856.06	21024
856.194	21207
856.327	21036
856.461	21089
856.595	20979
856.729	21043
856.862	20948
856.996	21005
857.13	21089
857.263	21070
857.397	21180
857.53	20937
857.664	21093
857.797	21085
857.931	21142
858.064	20952
858.197	21039
858.331	20982
858.464	20944
858.597	20872
858.731	20975
858.864	20971
858.997	20979
859.13	20982
859.263	20876
859.396	21104
859.529	20963
859.662	20880
859.795	20933
859.928	20929
860.061	21055
860.194	21173
860.327	20941
860.46	20941
860.592	21070
860.725	21199
860.858	21214
860.99	21009
861.123	20845
861.256	21039
861.388	20887
861.521	21553
861.653	20792
861.786	20800
861.918	20876
862.05	20914
862.183	20986
862.315	20861
862.447	21028
862.58	20864
862.712	20716
862.844	20602
862.976	20811
863.108	20762
863.24	21131
863.372	20465
863.504	20754
863.636	20701
863.768	20731
863.9	20716
864.032	20640
864.164	20625
864.296	20701
864.428	20735
864.559	20796
864.691	20777
864.823	20682
864.954	20571
865.086	20693
865.217	20484
865.349	20526
865.48	20590
865.612	20507
865.743	20625
865.875	20587
866.006	20575
866.137	20648
866.269	20640
866.4	20533
866.531	20431
866.662	20415
866.793	20556
866.924	20606
867.055	20693
867.186	20636
867.317	20514
867.448	20484
867.579	20400
867.71	20434
867.841	20457
867.972	20583
868.103	20465
868.233	20476
868.364	20602
868.495	20625
868.625	20811
868.756	20845
868.886	20705
869.017	20708
869.147	20998
869.278	20948
869.408	20849
869.539	20769
869.669	20701
869.799	20823
869.929	21077
870.06	21005
870.19	21047
870.32	21039
870.45	21020
870.58	21154
870.71	21306
870.84	21207
870.97	21256
871.1	21207
871.23	21374
871.36	21306
871.489	21275
871.619	21393
871.749	21393
871.879	21462
872.008	21469
872.138	21317
872.267	21306
872.397	21302
872.526	21192
872.656	21184
872.785	21173
872.915	21397
873.044	21439
873.173	21374
873.303	21428
873.432	21473
873.561	21606
873.69	21344
873.819	21359
873.948	21545
874.077	21389
874.206	21344
874.335	21370
874.464	21644
874.593	21614
874.722	21698
874.851	21709
874.979	21523
875.108	21576
875.237	21580
875.365	21644
875.494	21431
875.623	21568
875.751	21641
875.88	21652
876.008	21808
876.136	21873
876.265	22036
876.393	22093
876.521	22063
876.65	22036
876.778	21998
876.906	21972
877.034	21983
877.162	22036
877.29	21857
877.418	21975
877.546	22002
877.674	21937
877.802	21998
877.93	22010
878.058	21934
878.185	21854
878.313	21945
878.441	21998
878.568	21781
878.696	21953
878.824	21998
878.951	21994
879.079	22341
879.206	22360
879.333	22169
879.461	21960
879.588	22177
879.715	22097
879.842	22166
879.97	22055
880.097	21884
880.224	21823
880.351	21876
880.478	21835
880.605	21682
880.732	21778
880.859	22002
880.986	21743
881.112	21762
881.239	21610
881.366	21557
881.493	21523
881.619	21374
881.746	21367
881.872	21321
881.999	21298
882.125	21374
882.252	21507
882.378	21462
882.505	21473
882.631	21310
882.757	21157
882.883	21237
883.01	21028
883.136	20967
883.262	21032
883.388	20967
883.514	21127
883.64	21058
883.766	21055
883.892	20941
884.018	20994
884.143	21081
884.269	21032
884.395	20823
884.52	20670
884.646	20632
884.772	20606
884.897	20552
885.023	20712
885.148	20788
885.274	20944
885.399	20712
885.524	20781
885.65	20739
885.775	20762
885.9	20678
886.025	20826
886.15	20758
886.275	20769
886.4	20659
886.525	20724
886.65	20655
886.775	20537
886.9	20845
887.025	21020
887.149	20632
887.274	20556
887.399	20545
887.523	20530
887.648	20469
887.773	20362
887.897	20522
888.021	20564
888.146	20347
888.27	20587
888.395	20648
888.519	20503
888.643	20571
888.767	20408
888.891	20446
889.015	20339
889.139	20347
889.263	20298
889.387	20347
889.511	20461
889.635	20431
889.759	20286
889.883	20328
890.006	20248
890.13	20347
890.254	20248
890.377	20161
890.501	19989
890.624	19967
890.748	19951
890.871	19986
890.995	19849
891.118	19780
891.241	19864
891.364	19894
891.488	19936
891.611	19875
891.734	19849
891.857	19864
891.98	19761
892.103	19932
892.226	19784
892.349	19849
892.471	19765
892.594	19818
892.717	19849
892.839	19704
892.962	19791
893.085	19803
893.207	19712
893.33	19639
893.452	19746
893.575	19799
893.697	19666
893.819	19951
893.941	20012
894.064	19944
894.186	19761
894.308	19685
894.43	19734
894.552	19894
894.674	19746
894.796	19628
894.918	19803
895.04	19830
895.161	20020
895.283	19841
895.405	19742
895.526	19856
895.648	19723
895.769	19807
895.891	19719
896.012	19909
896.134	19791
896.255	19811
896.376	19917
896.498	19833
896.619	19902
896.74	19849
896.861	19776
896.982	20065
897.103	20256
897.224	20138
897.345	20046
897.466	20016
897.587	20058
897.708	20168
897.828	20103
897.949	19974
898.07	19860
898.19	19978
898.311	20081
898.431	19989
898.552	20050
898.672	20180
898.792	20100
898.913	20035
899.033	19883
899.153	19727
899.273	19746
899.393	19795
899.513	19944
899.633	19753
899.753	19826
899.873	19719
899.993	19776
900.113	19731
900.232	19772
900.352	19700
900.472	19582
900.591	19464
900.711	19582
900.83	19499
900.95	19674
901.069	19601
901.189	19438
901.308	19217
901.427	19168
901.546	19145
901.665	19129
901.784	19213
901.904	19050
902.023	18970
902.141	18719
902.26	18745
902.379	18738
902.498	18665
902.617	18681
902.735	18730
902.854	18673
902.973	18540
903.091	18292
903.21	18403
903.328	18311
903.446	18281
903.565	18171
903.683	18247
903.801	18022
903.919	18121
904.038	18091
904.156	17901
904.274	17874
904.392	17927
904.51	17859
904.627	17866
904.745	17866
904.863	17908
904.981	17646
905.098	17566
905.216	17524
905.334	17634
905.451	17608
905.569	17570
905.686	17585
905.803	17539
905.921	17368
906.038	17551
906.155	17425
906.272	17356
906.389	17311
906.506	17178
906.623	17105
906.74	17086
906.857	16961
906.974	17010
907.091	17128
907.208	17235
907.324	17181
907.441	17064
907.557	16911
907.674	16889
907.79	16767
907.907	16801
908.023	16793
908.139	16953
908.256	16801
908.372	16801
908.488	16672
908.604	16531
908.72	16588
908.836	16577
908.952	16481
909.068	16580
909.184	16668
909.3	16538
909.415	16569
909.531	16512
909.647	16382
909.762	16211
909.878	16215
909.993	16139
910.108	16265
910.224	16257
910.339	16242
910.454	16147
910.57	16040
910.685	15998
910.8	16303
910.915	16166
911.03	16188
911.145	16006
911.259	15816
911.374	15739
911.489	15812
911.604	15705
911.718	15644
911.833	15660
911.947	15553
912.062	15511
912.176	15606
912.291	15580
912.405	15637
912.519	15816
912.633	15755
912.748	15641
912.862	15507
912.976	15473
913.09	15325
913.204	15241
913.318	15450
913.431	15511
913.545	15507
913.659	15469
913.772	15450
913.886	15294
914	15176
914.113	15230
914.226	15329
914.34	15287
914.453	15093
914.566	15256
914.68	15154
914.793	15097
914.906	14941
915.019	14986
915.132	14788
915.245	14838
915.358	14853
915.47	14925
915.583	14826
915.696	14952
915.809	14975
915.921	14979
916.034	14701
916.146	14807
916.259	14792
916.371	14765
916.483	14830
916.595	14697
916.708	14663
916.82	14655
916.932	14659
917.044	14781
917.156	14587
917.268	14461
917.38	14606
917.491	14473
917.603	14579
917.715	14636
917.826	14587
917.938	14457
918.049	14336
918.161	14533
918.272	14636
918.384	14499
918.495	14450
918.606	14275
918.717	14248
918.828	14263
918.939	14294
919.05	14233
919.161	14252
919.272	14077
919.383	14123
919.494	14358
919.604	14499
919.715	14191
919.826	14180
919.936	14244
920.047	14332
920.157	14339
920.267	14457
920.378	14187
920.488	14172
920.598	14374
920.708	14606
920.818	14393
920.928	14317
921.038	14598
921.148	14541
921.258	14259
921.368	14180
921.477	14126
921.587	13951
921.697	13742
921.806	14119
921.916	13898
922.025	13746
922.134	13647
922.244	13563
922.353	13734
922.462	13525
922.571	13445
922.68	13312
922.789	13282
922.898	13358
923.007	13373
923.116	13331
923.224	13266
923.333	13179
923.442	13069
923.55	13107
923.659	13152
923.767	13198
923.876	13095
923.984	13168
924.092	13027
924.201	13008
924.309	13053
924.417	12935
924.525	12909
924.633	13008
924.741	13628
924.849	12772
924.956	12882
925.064	12692
925.172	12677
925.279	12650
925.387	12798
925.494	12738
925.602	12882
925.709	12719
925.816	12669
925.924	12772
926.031	12726
926.138	12707
926.245	12662
926.352	12547
926.459	12692
926.566	12726
926.673	12601
926.779	12422
926.886	12456
926.993	12327
927.099	12235
927.206	12277
927.312	12224
927.419	12258
927.525	12319
927.631	12319
927.737	12133
927.843	12163
927.95	11992
928.056	12106
928.162	12148
928.267	12205
928.373	12795
928.479	12281
928.585	12030
928.69	12095
928.796	12079
928.901	11908
929.007	11824
929.112	12019
929.218	11935
929.323	11878
929.428	11851
929.533	11931
929.638	11729
929.743	11828
929.848	11859
929.953	11817
930.058	11680
930.163	11509
930.267	11653
930.372	11630
930.477	11512
930.581	11699
930.685	11535
930.79	11448
930.894	11383
930.998	11520
931.103	11516
931.207	11201
931.311	11151
931.415	11071
931.519	10850
931.623	10744
