Data from test_V78500241_2194.txt Node
Date: Fri Mar 25 15:56:59 CST 2022
User: usil
Spectrometer: V785-0024
Trigger mode: 0
Integration Time (sec): 4.000000E-1
Scans to average: 1
Nonlinearity correction enabled: false
Boxcar width: 0
Storing dark spectrum: false
XAxis mode: Wavelengths
Number of Pixels in Spectrum: 1024
>>>>>Begin Spectral Data<<<<<
801.071	28489
801.214	28440
801.356	28143
801.499	28166
801.641	28135
801.783	28013
801.926	28093
802.068	28017
802.211	27998
802.353	27911
802.496	27808
802.638	27625
802.78	27652
802.923	27732
803.065	27511
803.208	27701
803.35	27675
803.492	27892
803.635	27857
803.777	27850
803.919	27945
804.061	28223
804.204	27991
804.346	27926
804.488	27861
804.63	27991
804.773	27846
804.915	28078
805.057	28177
805.199	27861
805.341	28177
805.483	28078
805.626	28188
805.768	27968
805.91	28128
806.052	28131
806.194	28006
806.336	28246
806.478	28139
806.62	28059
806.762	28223
806.904	28386
807.046	28615
807.188	28611
807.33	28500
807.472	28660
807.614	28451
807.756	28557
807.898	28451
808.04	28360
808.182	28409
808.324	28508
808.465	28337
808.607	28649
808.749	28672
808.891	28934
809.033	28934
809.174	28854
809.316	28733
809.458	28862
809.6	28607
809.741	28911
809.883	28927
810.025	29037
810.166	28987
810.308	28991
810.45	29033
810.591	29018
810.733	28801
810.875	28710
811.016	28668
811.158	28710
811.299	28869
811.441	28847
811.582	28885
811.724	28820
811.865	28733
812.007	28797
812.148	28763
812.29	28809
812.431	28930
812.573	29140
812.714	29254
812.855	29159
812.997	29345
813.138	29531
813.279	29474
813.421	29318
813.562	29337
813.703	29162
813.845	28972
813.986	28672
814.127	28645
814.268	28485
814.41	28584
814.551	28523
814.692	28470
814.833	28512
814.974	28413
815.115	28455
815.256	28386
815.397	28352
815.539	28219
815.68	28261
815.821	28147
815.962	28257
816.103	28272
816.244	28211
816.385	28002
816.526	28120
816.666	27953
816.807	27671
816.948	27819
817.089	27934
817.23	27766
817.371	27846
817.512	27804
817.653	27739
817.793	27709
817.934	27816
818.075	27720
818.216	27774
818.356	27686
818.497	27701
818.638	27648
818.778	27515
818.919	27526
819.06	27561
819.2	27682
819.341	27663
819.481	27785
819.622	27914
819.762	28044
819.903	27911
820.043	27956
820.184	28032
820.324	27968
820.465	27831
820.605	27930
820.746	27911
820.886	27774
821.026	27914
821.167	27762
821.307	27914
821.447	27804
821.588	27656
821.728	27599
821.868	27439
822.008	27332
822.149	27302
822.289	27233
822.429	27017
822.569	26940
822.709	27051
822.849	26788
822.99	26864
823.13	26861
823.27	26720
823.41	26522
823.55	26453
823.69	26712
823.83	26750
823.97	26746
824.11	26434
824.25	26362
824.389	26377
824.529	26545
824.669	26396
824.809	26499
824.949	26389
825.089	26412
825.228	26499
825.368	26278
825.508	26351
825.648	26332
825.787	26309
825.927	26317
826.067	26453
826.206	26381
826.346	26290
826.485	26298
826.625	26259
826.765	26343
826.904	26366
827.044	26069
827.183	26134
827.323	25993
827.462	26111
827.601	25959
827.741	25951
827.88	26031
828.02	25913
828.159	25963
828.298	26115
828.437	26069
828.577	25883
828.716	26126
828.855	25803
828.994	25712
829.134	25674
829.273	25624
829.412	25750
829.551	25594
829.69	25635
829.829	25731
829.968	25856
830.107	25605
830.246	25670
830.385	25731
830.524	25525
830.663	25403
830.802	25403
830.941	25240
831.08	25259
831.219	25453
831.357	25464
831.496	25521
831.635	25308
831.774	25160
831.913	25194
832.051	25187
832.19	25076
832.329	25221
832.467	25000
832.606	24970
832.744	25023
832.883	25095
833.022	24863
833.16	24943
833.299	24992
833.437	24871
833.576	25069
833.714	24909
833.852	25145
833.991	25065
834.129	25141
834.267	25069
834.406	24989
834.544	25023
834.682	25031
834.821	25050
834.959	25183
835.097	24970
835.235	25095
835.373	25034
835.511	25057
835.65	24992
835.788	24886
835.926	24779
836.064	24669
836.202	24738
836.34	25034
836.478	24833
836.615	24833
836.753	24798
836.891	24973
837.029	24844
837.167	24779
837.305	24837
837.443	24783
837.58	24692
837.718	24673
837.856	24741
837.993	24578
838.131	24703
838.269	24505
838.406	24566
838.544	24437
838.681	24399
838.819	24174
838.956	24304
839.094	24194
839.231	24182
839.369	24315
839.506	24616
839.643	24388
839.781	24114
839.918	24083
840.055	24026
840.193	24117
840.33	24095
840.467	24159
840.604	24182
840.742	24426
840.879	23908
841.016	24034
841.153	23836
841.29	24209
841.427	24095
841.564	24216
841.701	24015
841.838	23980
841.975	23973
842.112	23988
842.249	23942
842.385	23832
842.522	23958
842.659	23916
842.796	23775
842.933	23828
843.069	23771
843.206	23649
843.343	23840
843.479	23847
843.616	23847
843.752	23482
843.889	23619
844.025	23786
844.162	23425
844.298	23573
844.435	23440
844.571	23577
844.708	23608
844.844	23691
844.98	23699
845.117	23767
845.253	23417
845.389	23490
845.525	23493
845.661	23482
845.798	23273
845.934	23429
846.07	23273
846.206	23368
846.342	23512
846.478	23235
846.614	23105
846.75	22965
846.886	23044
847.022	23200
847.158	23052
847.294	23178
847.429	23044
847.565	23170
847.701	23197
847.837	22805
847.972	22740
848.108	22885
848.244	22946
848.379	22637
848.515	22481
848.65	22687
848.786	22607
848.921	22645
849.057	22694
849.192	22698
849.328	22748
849.463	22615
849.598	22485
849.734	22653
849.869	22478
850.004	22550
850.14	22470
850.275	22462
850.41	22367
850.545	22348
850.68	22322
850.815	22462
850.95	22322
851.085	22588
851.22	22451
851.355	22360
851.49	22363
851.625	22379
851.76	22348
851.895	22436
852.03	22204
852.165	22382
852.299	22428
852.434	22443
852.569	22474
852.703	22474
852.838	22402
852.973	22455
853.107	22413
853.242	22211
853.376	22230
853.511	22154
853.645	22253
853.78	22291
853.914	22181
854.048	22230
854.183	22162
854.317	22280
854.451	22451
854.585	22192
854.72	22173
854.854	22234
854.988	22139
855.122	22188
855.256	22074
855.39	22238
855.524	22268
855.658	22303
855.792	22177
855.926	22192
856.06	22246
856.194	22325
856.327	22207
856.461	22097
856.595	22173
856.729	22295
856.862	22257
856.996	22177
857.13	22257
857.263	22314
857.397	22295
857.53	22268
857.664	22276
857.797	22333
857.931	22306
858.064	22204
858.197	22226
858.331	22135
858.464	22006
858.597	22059
858.731	22105
858.864	22143
858.997	22207
859.13	22196
859.263	22356
859.396	22287
859.529	22131
859.662	22158
859.795	22078
859.928	22207
860.061	22428
860.194	22284
860.327	22375
860.46	22272
860.592	22371
860.725	22436
860.858	22481
860.99	22272
861.123	22173
861.256	22082
861.388	22196
861.521	22839
861.653	21930
861.786	22029
861.918	21941
862.05	22131
862.183	22124
862.315	22059
862.447	22188
862.58	22074
862.712	21983
862.844	21960
862.976	22040
863.108	21842
863.24	22375
863.372	21873
863.504	21941
863.636	21926
863.768	21915
863.9	21930
864.032	21876
864.164	21846
864.296	22013
864.428	22044
864.559	21979
864.691	21998
864.823	21850
864.954	21778
865.086	21861
865.217	21835
865.349	21755
865.48	21850
865.612	21739
865.743	21918
865.875	21736
866.006	21690
866.137	21842
866.269	21842
866.4	21781
866.531	21652
866.662	21709
866.793	21755
866.924	21667
867.055	21686
867.186	21705
867.317	21827
867.448	21663
867.579	21671
867.71	21724
867.841	21663
867.972	21899
868.103	21759
868.233	21865
868.364	21682
868.495	21705
868.625	22002
868.756	22070
868.886	22006
869.017	21949
869.147	22097
869.278	22093
869.408	21983
869.539	21915
869.669	22131
869.799	22051
869.929	22097
870.06	22135
870.19	22242
870.32	22215
870.45	22207
870.58	22474
870.71	22443
870.84	22421
870.97	22284
871.1	22443
871.23	22485
871.36	22531
871.489	22478
871.619	22577
871.749	22489
871.879	22500
872.008	22717
872.138	22523
872.267	22523
872.397	22451
872.526	22333
872.656	22428
872.785	22352
872.915	22634
873.044	22527
873.173	22622
873.303	22668
873.432	22767
873.561	22660
873.69	22637
873.819	22561
873.948	22717
874.077	22561
874.206	22405
874.335	22588
874.464	22645
874.593	22812
874.722	22687
874.851	22748
874.979	22869
875.108	22854
875.237	22721
875.365	22615
875.494	22839
875.623	22889
875.751	22812
875.88	22919
876.008	22911
876.136	23003
876.265	23189
876.393	23296
876.521	23242
876.65	23273
876.778	23132
876.906	23128
877.034	22991
877.162	23254
877.29	23102
877.418	23098
877.546	23113
877.674	23105
877.802	23174
877.93	23121
878.058	23132
878.185	23033
878.313	23094
878.441	23162
878.568	22991
878.696	23033
878.824	23147
878.951	23193
879.079	23353
879.206	23444
879.333	23353
879.461	23151
879.588	23181
879.715	23261
879.842	23341
879.97	23235
880.097	23037
880.224	22892
880.351	22927
880.478	22972
880.605	23025
880.732	22972
880.859	23162
880.986	22953
881.112	22885
881.239	22831
881.366	22725
881.493	22607
881.619	22474
881.746	22569
881.872	22535
881.999	22470
882.125	22466
882.252	22603
882.378	22489
882.505	22603
882.631	22382
882.757	22303
882.883	22109
883.01	22177
883.136	22162
883.262	22074
883.388	21949
883.514	22242
883.64	22215
883.766	22109
883.892	21918
884.018	22017
884.143	22173
884.269	22215
884.395	21972
884.52	21831
884.646	21854
884.772	21808
884.897	21747
885.023	21766
885.148	21846
885.274	22169
885.399	21941
885.524	21694
885.65	22025
885.775	21873
885.9	21854
886.025	21994
886.15	21941
886.275	21751
886.4	21766
886.525	21922
886.65	21679
886.775	21713
886.9	22013
887.025	22017
887.149	21804
887.274	21663
887.399	21675
887.523	21568
887.648	21526
887.773	21534
887.897	21606
888.021	21705
888.146	21629
888.27	21576
888.395	21610
888.519	21572
888.643	21618
888.767	21542
888.891	21382
889.015	21344
889.139	21462
889.263	21321
889.387	21450
889.511	21454
889.635	21454
889.759	21359
889.883	21256
890.006	21397
890.13	21374
890.254	21412
890.377	21294
890.501	21089
890.624	21020
890.748	21127
890.871	21066
890.995	20857
891.118	20899
891.241	21009
891.364	20994
891.488	21104
891.611	21020
891.734	20902
891.857	21074
891.98	20921
892.103	20925
892.226	20918
892.349	20792
892.471	20724
892.594	20864
892.717	20746
892.839	20948
892.962	20925
893.085	20963
893.207	20758
893.33	20686
893.452	20807
893.575	20864
893.697	20857
893.819	20929
893.941	21058
894.064	20944
894.186	20754
894.308	20697
894.43	20963
894.552	20921
894.674	20971
894.796	20689
894.918	20830
895.04	20815
895.161	20937
895.283	20792
895.405	20864
895.526	20914
895.648	20743
895.769	20929
895.891	20921
896.012	20872
896.134	20819
896.255	20883
896.376	20735
896.498	20864
896.619	20838
896.74	20788
896.861	20887
896.982	21100
897.103	21351
897.224	21146
897.345	21032
897.466	20902
897.587	21032
897.708	21256
897.828	20963
897.949	21039
898.07	20902
898.19	20929
898.311	21074
898.431	21039
898.552	21051
898.672	21028
898.792	20967
898.913	21058
899.033	20895
899.153	20826
899.273	20735
899.393	20857
899.513	20708
899.633	20887
899.753	20834
899.873	20583
899.993	20762
900.113	20632
900.232	20773
900.352	20743
900.472	20526
900.591	20545
900.711	20522
900.83	20476
900.95	20579
901.069	20549
901.189	20473
901.308	20164
901.427	20084
901.546	20107
901.665	20107
901.784	20092
901.904	19921
902.023	19982
902.141	19731
902.26	19738
902.379	19719
902.498	19533
902.617	19540
902.735	19712
902.854	19567
902.973	19514
903.091	19240
903.21	19335
903.328	19285
903.446	19236
903.565	19061
903.683	19118
903.801	18932
903.919	19084
904.038	18996
904.156	18947
904.274	18958
904.392	18821
904.51	18856
904.627	18764
904.745	18863
904.863	18928
904.981	18620
905.098	18525
905.216	18502
905.334	18555
905.451	18532
905.569	18525
905.686	18578
905.803	18532
905.921	18391
906.038	18327
906.155	18285
906.272	18178
906.389	18091
906.506	18110
906.623	18072
906.74	17859
906.857	17950
906.974	18045
907.091	18053
907.208	18117
907.324	18064
907.441	17893
907.557	17760
907.674	17684
907.79	17646
907.907	17596
908.023	17729
908.139	17767
908.256	17687
908.372	17634
908.488	17649
908.604	17493
908.72	17429
908.836	17520
908.952	17444
909.068	17493
909.184	17474
909.3	17486
909.415	17493
909.531	17372
909.647	17254
909.762	17159
909.878	17200
909.993	17181
910.108	17132
910.224	17029
910.339	17056
910.454	17006
910.57	16934
910.685	16858
910.8	17105
910.915	17090
911.03	16915
911.145	16839
911.259	16683
911.374	16717
911.489	16725
911.604	16531
911.718	16436
911.833	16447
911.947	16371
912.062	16306
912.176	16455
912.291	16516
912.405	16550
912.519	16664
912.633	16538
912.748	16558
912.862	16466
912.976	16303
913.09	16185
913.204	16287
913.318	16360
913.431	16303
913.545	16421
913.659	16375
913.772	16295
913.886	16272
914	16105
914.113	16036
914.226	16166
914.34	16128
914.453	16036
914.566	16109
914.68	15926
914.793	16010
914.906	15743
915.019	15648
915.132	15599
915.245	15542
915.358	15644
915.47	15698
915.583	15606
915.696	15808
915.809	15747
915.921	15816
916.034	15625
916.146	15587
916.259	15519
916.371	15580
916.483	15606
916.595	15542
916.708	15622
916.82	15321
916.932	15485
917.044	15454
917.156	15424
917.268	15306
917.38	15397
917.491	15298
917.603	15325
917.715	15393
917.826	15370
917.938	15272
918.049	15138
918.161	15256
918.272	15340
918.384	15294
918.495	15161
918.606	15154
918.717	15017
918.828	15077
918.939	15089
919.05	14994
919.161	14971
919.272	14781
919.383	14861
919.494	14979
919.604	15249
919.715	14948
919.826	14998
919.936	14982
920.047	15074
920.157	15036
920.267	15154
920.378	15161
920.488	15005
920.598	15142
920.708	15291
920.818	15207
920.928	15150
921.038	15401
921.148	15237
921.258	14979
921.368	14887
921.477	14743
921.587	14708
921.697	14655
921.806	14682
921.916	14648
922.025	14427
922.134	14427
922.244	14240
922.353	14389
922.462	14233
922.571	14206
922.68	14123
922.789	14084
922.898	14130
923.007	13902
923.116	13940
923.224	14001
923.333	14035
923.442	13849
923.55	13883
923.659	13894
923.767	13894
923.876	13731
923.984	13845
924.092	13780
924.201	13788
924.309	13731
924.417	13715
924.525	13712
924.633	13738
924.741	14454
924.849	13556
924.956	13681
925.064	13464
925.172	13388
925.279	13411
925.387	13449
925.494	13400
925.602	13529
925.709	13457
925.816	13247
925.924	13430
926.031	13499
926.138	13373
926.245	13415
926.352	13236
926.459	13381
926.566	13483
926.673	13297
926.779	13232
926.886	13206
926.993	13095
927.099	13019
927.206	12958
927.312	13023
927.419	13000
927.525	13012
927.631	13061
927.737	12856
927.843	12802
927.95	12741
928.056	12768
928.162	12806
928.267	12886
928.373	13422
928.479	12863
928.585	12700
928.69	12768
928.796	12787
928.901	12688
929.007	12547
929.112	12722
929.218	12608
929.323	12559
929.428	12506
929.533	12669
929.638	12494
929.743	12448
929.848	12551
929.953	12403
930.058	12361
930.163	12155
930.267	12178
930.372	12277
930.477	12129
930.581	12308
930.685	12220
930.79	12053
930.894	12026
930.998	12041
931.103	12190
931.207	11882
931.311	11779
931.415	11642
931.519	11467
931.623	11444
