Data from test_V78500241_510.txt Node
Date: Fri Mar 25 15:45:20 CST 2022
User: usil
Spectrometer: V785-0024
Trigger mode: 0
Integration Time (sec): 4.000000E-1
Scans to average: 1
Nonlinearity correction enabled: false
Boxcar width: 0
Storing dark spectrum: false
XAxis mode: Wavelengths
Number of Pixels in Spectrum: 1024
>>>>>Begin Spectral Data<<<<<
801.071	27374
801.214	27085
801.356	26933
801.499	26979
801.641	26781
801.783	26826
801.926	26861
802.068	26743
802.211	26674
802.353	26575
802.496	26438
802.638	26469
802.78	26503
802.923	26358
803.065	26328
803.208	26233
803.35	26298
803.492	26347
803.635	26522
803.777	26362
803.919	26419
804.061	26838
804.204	26560
804.346	26358
804.488	26484
804.63	26446
804.773	26476
804.915	26503
805.057	26564
805.199	26488
805.341	26503
805.483	26640
805.626	26613
805.768	26453
805.91	26571
806.052	26629
806.194	26568
806.336	26796
806.478	26739
806.62	26503
806.762	26762
806.904	26967
807.046	27028
807.188	27028
807.33	26868
807.472	27119
807.614	27009
807.756	27077
807.898	26975
808.04	26800
808.182	26921
808.324	26971
808.465	26864
808.607	27009
808.749	27207
808.891	27275
809.033	27401
809.174	27325
809.316	27279
809.458	27313
809.6	27294
809.741	27382
809.883	27310
810.025	27507
810.166	27427
810.308	27500
810.45	27583
810.591	27412
810.733	27336
810.875	27329
811.016	27165
811.158	27096
811.299	27325
811.441	27439
811.582	27226
811.724	27268
811.865	27306
812.007	27066
812.148	27138
812.29	27241
812.431	27237
812.573	27549
812.714	27850
812.855	27823
812.997	27797
813.138	27979
813.279	27991
813.421	27724
813.562	27816
813.703	27629
813.845	27469
813.986	27119
814.127	26998
814.268	26857
814.41	26933
814.551	26845
814.692	26944
814.833	26990
814.974	26887
815.115	26887
815.256	26864
815.397	26746
815.539	26796
815.68	26617
815.821	26670
815.962	26663
816.103	26674
816.244	26621
816.385	26446
816.526	26514
816.666	26275
816.807	26065
816.948	26282
817.089	26332
817.23	26172
817.371	26134
817.512	26180
817.653	26142
817.793	26031
817.934	26065
818.075	26221
818.216	26115
818.356	26081
818.497	26100
818.638	25868
818.778	25966
818.919	25750
819.06	26027
819.2	25982
819.341	26043
819.481	26054
819.622	26366
819.762	26419
819.903	26389
820.043	26336
820.184	26328
820.324	26339
820.465	26317
820.605	26218
820.746	26275
820.886	26218
821.026	26225
821.167	26240
821.307	26294
821.447	26206
821.588	25951
821.728	25917
821.868	25849
822.008	25594
822.149	25704
822.289	25544
822.429	25217
822.569	25346
822.709	25255
822.849	25076
822.99	24985
823.13	25072
823.27	24882
823.41	25099
823.55	24802
823.69	24894
823.83	24970
823.97	24871
824.11	24768
824.25	24620
824.389	24665
824.529	24829
824.669	24677
824.809	24871
824.949	24901
825.089	24833
825.228	24802
825.368	24639
825.508	24688
825.648	24753
825.787	24551
825.927	24749
826.067	24464
826.206	24635
826.346	24654
826.485	24578
826.625	24593
826.765	24738
826.904	24612
827.044	24285
827.183	24247
827.323	24315
827.462	24262
827.601	24182
827.741	24372
827.88	24323
828.02	24178
828.159	24372
828.298	24300
828.437	24479
828.577	24270
828.716	24407
828.855	24258
828.994	24026
829.134	24087
829.273	24018
829.412	24057
829.551	24072
829.69	24030
829.829	24083
829.968	24114
830.107	24133
830.246	24079
830.385	23973
830.524	23931
830.663	23714
830.802	23691
830.941	23630
831.08	23604
831.219	23748
831.357	23623
831.496	23893
831.635	23691
831.774	23589
831.913	23570
832.051	23467
832.19	23395
832.329	23265
832.467	23280
832.606	23220
832.744	23136
832.883	23231
833.022	23273
833.16	23372
833.299	23372
833.437	23273
833.576	23345
833.714	23318
833.852	23322
833.991	23387
834.129	23322
834.267	23414
834.406	23341
834.544	23383
834.682	23341
834.821	23277
834.959	23425
835.097	23185
835.235	23414
835.373	23360
835.511	23235
835.65	23200
835.788	23242
835.926	23010
836.064	23064
836.202	23113
836.34	23086
836.478	23254
836.615	23261
836.753	23204
836.891	23284
837.029	23159
837.167	23105
837.305	23155
837.443	23029
837.58	23025
837.718	23041
837.856	22934
837.993	23033
838.131	23018
838.269	22862
838.406	22881
838.544	22923
838.681	22603
838.819	22599
838.956	22497
839.094	22462
839.231	22611
839.369	22668
839.506	22759
839.643	22774
839.781	22596
839.918	22356
840.055	22451
840.193	22527
840.33	22447
840.467	22466
840.604	22550
840.742	22778
840.879	22276
841.016	22337
841.153	22375
841.29	22546
841.427	22459
841.564	22409
841.701	22413
841.838	22306
841.975	22246
842.112	22234
842.249	22291
842.385	22200
842.522	22390
842.659	22230
842.796	22143
842.933	22242
843.069	22116
843.206	22166
843.343	22211
843.479	22173
843.616	22139
843.752	21903
843.889	21983
844.025	22074
844.162	21983
844.298	21975
844.435	21907
844.571	21972
844.708	21895
844.844	22090
844.98	21953
845.117	22021
845.253	21835
845.389	21804
845.525	21876
845.661	21835
845.798	21622
845.934	21865
846.07	21797
846.206	21682
846.342	21838
846.478	21694
846.614	21511
846.75	21386
846.886	21447
847.022	21458
847.158	21435
847.294	21473
847.429	21462
847.565	21492
847.701	21644
847.837	21245
847.972	21089
848.108	21230
848.244	21249
848.379	21192
848.515	20906
848.65	20925
848.786	21146
848.921	21032
849.057	21028
849.192	21214
849.328	21047
849.463	21028
849.598	21001
849.734	20990
849.869	20826
850.004	20644
850.14	20868
850.275	20849
850.41	20731
850.545	20659
850.68	20762
850.815	20689
850.95	20682
851.085	20838
851.22	20872
851.355	20762
851.49	20750
851.625	20754
851.76	20819
851.895	20644
852.03	20674
852.165	20735
852.299	20773
852.434	20975
852.569	20773
852.703	20769
852.838	20815
852.973	20899
853.107	20804
853.242	20549
853.376	20659
853.511	20431
853.645	20587
853.78	20724
853.914	20746
854.048	20549
854.183	20537
854.317	20731
854.451	20746
854.585	20686
854.72	20560
854.854	20621
854.988	20492
855.122	20564
855.256	20355
855.39	20579
855.524	20670
855.658	20640
855.792	20598
855.926	20606
856.06	20746
856.194	20644
856.327	20530
856.461	20526
856.595	20518
856.729	20602
856.862	20644
856.996	20625
857.13	20617
857.263	20708
857.397	20629
857.53	20492
857.664	20743
857.797	20629
857.931	20693
858.064	20545
858.197	20720
858.331	20632
858.464	20461
858.597	20571
858.731	20670
858.864	20526
858.997	20476
859.13	20575
859.263	20575
859.396	20674
859.529	20583
859.662	20606
859.795	20522
859.928	20629
860.061	20746
860.194	20769
860.327	20625
860.46	20571
860.592	20629
860.725	20712
860.858	20716
860.99	20754
861.123	20465
861.256	20602
861.388	20602
861.521	21272
861.653	20492
861.786	20495
861.918	20423
862.05	20632
862.183	20556
862.315	20545
862.447	20575
862.58	20594
862.712	20343
862.844	20267
862.976	20396
863.108	20339
863.24	20788
863.372	20244
863.504	20336
863.636	20347
863.768	20320
863.9	20244
864.032	20240
864.164	20275
864.296	20415
864.428	20442
864.559	20408
864.691	20404
864.823	20336
864.954	20324
865.086	20142
865.217	20142
865.349	20252
865.48	20256
865.612	20328
865.743	20362
865.875	20221
866.006	20233
866.137	20275
866.269	20202
866.4	20286
866.531	20138
866.662	20172
866.793	20161
866.924	20096
867.055	20138
867.186	20115
867.317	20081
867.448	20058
867.579	20145
867.71	20024
867.841	20073
867.972	20138
868.103	20164
868.233	20195
868.364	20161
868.495	20218
868.625	20347
868.756	20427
868.886	20305
869.017	20309
869.147	20438
869.278	20560
869.408	20404
869.539	20415
869.669	20495
869.799	20446
869.929	20457
870.06	20514
870.19	20712
870.32	20632
870.45	20796
870.58	20796
870.71	20883
870.84	20929
870.97	20773
871.1	20906
871.23	20967
871.36	20948
871.489	20849
871.619	20956
871.749	20967
871.879	21028
872.008	21169
872.138	20941
872.267	21062
872.397	20857
872.526	20777
872.656	20826
872.785	20842
872.915	21005
873.044	21085
873.173	21062
873.303	21123
873.432	20960
873.561	21024
873.69	20998
873.819	20967
873.948	21119
874.077	21009
874.206	20956
874.335	21081
874.464	21096
874.593	21142
874.722	21230
874.851	21321
874.979	21214
875.108	21329
875.237	21222
875.365	21211
875.494	21154
875.623	21226
875.751	21199
875.88	21275
876.008	21447
876.136	21496
876.265	21694
876.393	21705
876.521	21713
876.65	21667
876.778	21568
876.906	21652
877.034	21523
877.162	21652
877.29	21580
877.418	21583
877.546	21766
877.674	21614
877.802	21656
877.93	21580
878.058	21637
878.185	21405
878.313	21583
878.441	21724
878.568	21408
878.696	21507
878.824	21755
878.951	21747
879.079	21781
879.206	21888
879.333	21797
879.461	21610
879.588	21705
879.715	21800
879.842	21857
879.97	21682
880.097	21408
880.224	21389
880.351	21393
880.478	21435
880.605	21458
880.732	21370
880.859	21747
880.986	21500
881.112	21367
881.239	21332
881.366	21169
881.493	21131
881.619	21039
881.746	21062
881.872	20994
881.999	20986
882.125	21009
882.252	21051
882.378	20975
882.505	21017
882.631	20899
882.757	20868
882.883	20720
883.01	20587
883.136	20598
883.262	20522
883.388	20556
883.514	20697
883.64	20804
883.766	20640
883.892	20499
884.018	20522
884.143	20682
884.269	20739
884.395	20423
884.52	20347
884.646	20317
884.772	20347
884.897	20396
885.023	20305
885.148	20461
885.274	20560
885.399	20408
885.524	20358
885.65	20374
885.775	20408
885.9	20332
886.025	20454
886.15	20545
886.275	20332
886.4	20157
886.525	20393
886.65	20305
886.775	20282
886.9	20469
887.025	20609
887.149	20366
887.274	20225
887.399	20210
887.523	20122
887.648	20126
887.773	20107
887.897	20263
888.021	20157
888.146	20016
888.27	20122
888.395	20214
888.519	20176
888.643	20069
888.767	20248
888.891	20138
889.015	19864
889.139	19982
889.263	19955
889.387	20039
889.511	20122
889.635	20119
889.759	19830
889.883	19898
890.006	19951
890.13	20008
890.254	19776
890.377	19830
890.501	19757
890.624	19746
890.748	19704
890.871	19704
890.995	19548
891.118	19468
891.241	19556
891.364	19590
891.488	19693
891.611	19556
891.734	19487
891.857	19578
891.98	19594
892.103	19712
892.226	19518
892.349	19521
892.471	19392
892.594	19472
892.717	19480
892.839	19449
892.962	19460
893.085	19521
893.207	19529
893.33	19324
893.452	19316
893.575	19533
893.697	19369
893.819	19605
893.941	19689
894.064	19510
894.186	19411
894.308	19445
894.43	19502
894.552	19609
894.674	19601
894.796	19373
894.918	19411
895.04	19415
895.161	19556
895.283	19525
895.405	19415
895.526	19499
895.648	19365
895.769	19552
895.891	19510
896.012	19441
896.134	19635
896.255	19495
896.376	19457
896.498	19483
896.619	19521
896.74	19441
896.861	19651
896.982	19864
897.103	20073
897.224	19689
897.345	19674
897.466	19582
897.587	19719
897.708	19822
897.828	19772
897.949	19693
898.07	19609
898.19	19571
898.311	19890
898.431	19677
898.552	19818
898.672	19769
898.792	19818
898.913	19811
899.033	19647
899.153	19537
899.273	19460
899.393	19525
899.513	19506
899.633	19460
899.753	19578
899.873	19419
899.993	19575
900.113	19449
900.232	19441
900.352	19430
900.472	19274
900.591	19190
900.711	19365
900.83	19171
900.95	19476
901.069	19308
901.189	19335
901.308	19012
901.427	18806
901.546	18848
901.665	18947
901.784	18928
901.904	18738
902.023	18665
902.141	18521
902.26	18418
902.379	18448
902.498	18433
902.617	18388
902.735	18414
902.854	18350
902.973	18289
903.091	18045
903.21	18030
903.328	18022
903.446	18034
903.565	17923
903.683	17863
903.801	17741
903.919	17798
904.038	17821
904.156	17649
904.274	17703
904.392	17554
904.51	17684
904.627	17554
904.745	17653
904.863	17619
904.981	17440
905.098	17318
905.216	17231
905.334	17372
905.451	17303
905.569	17227
905.686	17368
905.803	17334
905.921	17022
906.038	17231
906.155	17128
906.272	17105
906.389	16957
906.506	16835
906.623	16900
906.74	16900
906.857	16733
906.974	16801
907.091	16881
907.208	16961
907.324	16824
907.441	16729
907.557	16554
907.674	16729
907.79	16535
907.907	16561
908.023	16607
908.139	16535
908.256	16546
908.372	16478
908.488	16489
908.604	16371
908.72	16314
908.836	16314
908.952	16268
909.068	16253
909.184	16436
909.3	16314
909.415	16181
909.531	16314
909.647	16040
909.762	16086
909.878	15934
909.993	15987
910.108	16090
910.224	15926
910.339	16044
910.454	15979
910.57	15888
910.685	15838
910.8	16025
910.915	16093
911.03	15842
911.145	15713
911.259	15603
911.374	15663
911.489	15511
911.604	15587
911.718	15416
911.833	15310
911.947	15321
912.062	15241
912.176	15450
912.291	15420
912.405	15466
912.519	15629
912.633	15629
912.748	15473
912.862	15348
912.976	15252
913.09	15116
913.204	15275
913.318	15119
913.431	15348
913.545	15340
913.659	15329
913.772	15104
913.886	15036
914	15062
914.113	15043
914.226	15112
914.34	15032
914.453	14941
914.566	15081
914.68	14918
914.793	14948
914.906	14674
915.019	14636
915.132	14571
915.245	14678
915.358	14686
915.47	14613
915.583	14701
915.696	14727
915.809	14834
915.921	14842
916.034	14571
916.146	14583
916.259	14476
916.371	14594
916.483	14644
916.595	14495
916.708	14476
916.82	14484
916.932	14507
917.044	14465
917.156	14343
917.268	14328
917.38	14358
917.491	14267
917.603	14355
917.715	14400
917.826	14347
917.938	14259
918.049	14149
918.161	14305
918.272	14396
918.384	14396
918.495	14317
918.606	14073
918.717	13959
918.828	14168
918.939	14142
919.05	13921
919.161	14039
919.272	13887
919.383	14020
919.494	14069
919.604	14275
919.715	13967
919.826	13989
919.936	13951
920.047	14183
920.157	14111
920.267	14237
920.378	14050
920.488	13989
920.598	14218
920.708	14423
920.818	14126
920.928	14240
921.038	14320
921.148	14233
921.258	14027
921.368	13959
921.477	13826
921.587	13841
921.697	13750
921.806	13776
921.916	13674
922.025	13529
922.134	13457
922.244	13377
922.353	13518
922.462	13377
922.571	13145
922.68	13053
922.789	13046
922.898	13103
923.007	13023
923.116	13152
923.224	13141
923.333	13129
923.442	12890
923.55	12954
923.659	12935
923.767	13095
923.876	12943
923.984	12993
924.092	12852
924.201	12916
924.309	12894
924.417	12848
924.525	12791
924.633	12783
924.741	13578
924.849	12589
924.956	12783
925.064	12540
925.172	12521
925.279	12448
925.387	12506
925.494	12517
925.602	12673
925.709	12604
925.816	12517
925.924	12551
926.031	12570
926.138	12479
926.245	12426
926.352	12452
926.459	12509
926.566	12532
926.673	12452
926.779	12239
926.886	12300
926.993	12232
927.099	12083
927.206	12011
927.312	12083
927.419	12102
927.525	12175
927.631	12163
927.737	12038
927.843	12019
927.95	11908
928.056	11999
928.162	11961
928.267	11958
928.373	12582
928.479	11969
928.585	11745
928.69	11992
928.796	11939
928.901	11805
929.007	11722
929.112	11874
929.218	11794
929.323	11699
929.428	11718
929.533	11843
929.638	11589
929.743	11646
929.848	11646
929.953	11684
930.058	11638
930.163	11379
930.267	11406
930.372	11520
930.477	11356
930.581	11577
930.685	11452
930.79	11280
930.894	11322
930.998	11273
931.103	11414
931.207	11079
931.311	10911
931.415	10923
931.519	10721
931.623	10668
