Data from test_V78500241_2862.txt Node
Date: Fri Mar 25 16:01:37 CST 2022
User: usil
Spectrometer: V785-0024
Trigger mode: 0
Integration Time (sec): 4.000000E-1
Scans to average: 1
Nonlinearity correction enabled: false
Boxcar width: 0
Storing dark spectrum: false
XAxis mode: Wavelengths
Number of Pixels in Spectrum: 1024
>>>>>Begin Spectral Data<<<<<
801.071	28942
801.214	29010
801.356	28729
801.499	28630
801.641	28580
801.783	28580
801.926	28664
802.068	28675
802.211	28417
802.353	28413
802.496	28352
802.638	28306
802.78	28287
802.923	28188
803.065	28173
803.208	28215
803.35	28219
803.492	28390
803.635	28599
803.777	28504
803.919	28577
804.061	28763
804.204	28618
804.346	28489
804.488	28436
804.63	28615
804.773	28421
804.915	28550
805.057	28748
805.199	28337
805.341	28596
805.483	28519
805.626	28603
805.768	28622
805.91	28759
806.052	28664
806.194	28611
806.336	28999
806.478	28653
806.62	28820
806.762	28850
806.904	28991
807.046	29098
807.188	29162
807.33	29250
807.472	29128
807.614	29105
807.756	29254
807.898	28949
808.04	28976
808.182	29109
808.324	28991
808.465	29090
808.607	29273
808.749	29467
808.891	29387
809.033	29596
809.174	29543
809.316	29318
809.458	29452
809.6	29395
809.741	29474
809.883	29524
810.025	29760
810.166	29520
810.308	29611
810.45	29623
810.591	29703
810.733	29303
810.875	29436
811.016	29421
811.158	29474
811.299	29512
811.441	29661
811.582	29634
811.724	29452
811.865	29356
812.007	29497
812.148	29478
812.29	29509
812.431	29653
812.573	29745
812.714	29958
812.855	30007
812.997	30041
813.138	30251
813.279	30224
813.421	29931
813.562	29950
813.703	29695
813.845	29748
813.986	29436
814.127	29315
814.268	29132
814.41	29284
814.551	29193
814.692	29200
814.833	29242
814.974	29094
815.115	29075
815.256	29056
815.397	29102
815.539	29113
815.68	28957
815.821	28877
815.962	29102
816.103	29037
816.244	28873
816.385	28805
816.526	28782
816.666	28485
816.807	28451
816.948	28546
817.089	28672
817.23	28424
817.371	28546
817.512	28542
817.653	28451
817.793	28409
817.934	28512
818.075	28432
818.216	28580
818.356	28265
818.497	28325
818.638	28234
818.778	28246
818.919	28166
819.06	28398
819.2	28421
819.341	28599
819.481	28432
819.622	28656
819.762	28911
819.903	28774
820.043	28759
820.184	28538
820.324	28554
820.465	28698
820.605	28668
820.746	28535
820.886	28421
821.026	28485
821.167	28512
821.307	28717
821.447	28512
821.588	28394
821.728	28306
821.868	28139
822.008	27972
822.149	28002
822.289	27949
822.429	27827
822.569	27690
822.709	27774
822.849	27500
822.99	27473
823.13	27424
823.27	27431
823.41	27298
823.55	27275
823.69	27165
823.83	27367
823.97	27268
824.11	27188
824.25	27036
824.389	27047
824.529	27272
824.669	27237
824.809	27370
824.949	27241
825.089	27211
825.228	27214
825.368	27089
825.508	26990
825.648	27013
825.787	27047
825.927	27138
826.067	27017
826.206	27024
826.346	27036
826.485	27112
826.625	26998
826.765	27252
826.904	27138
827.044	26819
827.183	26807
827.323	26705
827.462	26826
827.601	26720
827.741	26838
827.88	26864
828.02	26629
828.159	26743
828.298	26731
828.437	26785
828.577	26716
828.716	26868
828.855	26579
828.994	26568
829.134	26568
829.273	26488
829.412	26419
829.551	26450
829.69	26389
829.829	26465
829.968	26526
830.107	26438
830.246	26461
830.385	26374
830.524	26320
830.663	26130
830.802	26149
830.941	26027
831.08	26008
831.219	26149
831.357	26176
831.496	26252
831.635	26027
831.774	25811
831.913	25970
832.051	25978
832.19	25868
832.329	25769
832.467	25689
832.606	25738
832.744	25582
832.883	25635
833.022	25841
833.16	25674
833.299	25780
833.437	25765
833.576	25780
833.714	25814
833.852	25864
833.991	25609
834.129	25944
834.267	25963
834.406	25772
834.544	25841
834.682	25780
834.821	25719
834.959	25769
835.097	25776
835.235	25913
835.373	25780
835.511	25845
835.65	25738
835.788	25719
835.926	25521
836.064	25415
836.202	25415
836.34	25666
836.478	25712
836.615	25616
836.753	25556
836.891	25643
837.029	25658
837.167	25415
837.305	25464
837.443	25430
837.58	25346
837.718	25457
837.856	25582
837.993	25415
838.131	25472
838.269	25240
838.406	25316
838.544	25282
838.681	25088
838.819	25042
838.956	24977
839.094	24837
839.231	24897
839.369	25004
839.506	25194
839.643	25061
839.781	24962
839.918	24677
840.055	24821
840.193	24776
840.33	24829
840.467	24886
840.604	24825
840.742	25057
840.879	24639
841.016	24806
841.153	24597
841.29	24814
841.427	24833
841.564	24856
841.701	24875
841.838	24726
841.975	24635
842.112	24684
842.249	24521
842.385	24513
842.522	24642
842.659	24521
842.796	24585
842.933	24559
843.069	24582
843.206	24494
843.343	24627
843.479	24513
843.616	24448
843.752	24422
843.889	24216
844.025	24563
844.162	24330
844.298	24380
844.435	24361
844.571	24327
844.708	24399
844.844	24555
844.98	24319
845.117	24433
845.253	24232
845.389	24087
845.525	24197
845.661	24098
845.798	24022
845.934	24163
846.07	23847
846.206	24129
846.342	24155
846.478	24026
846.614	23863
846.75	23646
846.886	23870
847.022	23836
847.158	23821
847.294	23672
847.429	23764
847.565	23699
847.701	24049
847.837	23528
847.972	23360
848.108	23649
848.244	23493
848.379	23349
848.515	23318
848.65	23277
848.786	23345
848.921	23349
849.057	23337
849.192	23398
849.328	23410
849.463	23334
849.598	23330
849.734	23086
849.869	23113
850.004	22957
850.14	23189
850.275	23128
850.41	22972
850.545	23018
850.68	23109
850.815	23147
850.95	23147
851.085	23330
851.22	23227
851.355	23258
851.49	23094
851.625	23147
851.76	23064
851.895	23094
852.03	23071
852.165	23113
852.299	23128
852.434	23098
852.569	23102
852.703	23117
852.838	23124
852.973	23216
853.107	23296
853.242	23056
853.376	22965
853.511	22885
853.645	22812
853.78	23010
853.914	22991
854.048	23033
854.183	22904
854.317	23006
854.451	23094
854.585	23018
854.72	22915
854.854	23010
854.988	22858
855.122	22873
855.256	22862
855.39	22896
855.524	23060
855.658	22995
855.792	22946
855.926	22869
856.06	22900
856.194	23022
856.327	22968
856.461	22782
856.595	22850
856.729	22965
856.862	23090
856.996	23048
857.13	22987
857.263	23048
857.397	22999
857.53	22877
857.664	23018
857.797	23006
857.931	22923
858.064	23010
858.197	22968
858.331	22965
858.464	22980
858.597	22820
858.731	22949
858.864	22949
858.997	22919
859.13	22919
859.263	22968
859.396	23010
859.529	22862
859.662	22980
859.795	22835
859.928	22885
860.061	23064
860.194	23102
860.327	22885
860.46	22885
860.592	23117
860.725	23223
860.858	23056
860.99	22839
861.123	22835
861.256	22835
861.388	22904
861.521	23577
861.653	22820
861.786	22706
861.918	22755
862.05	22862
862.183	22778
862.315	22725
862.447	22812
862.58	22862
862.712	22645
862.844	22630
862.976	22809
863.108	22702
863.24	23022
863.372	22535
863.504	22565
863.636	22630
863.768	22519
863.9	22733
864.032	22470
864.164	22557
864.296	22691
864.428	22736
864.559	22634
864.691	22664
864.823	22637
864.954	22729
865.086	22516
865.217	22588
865.349	22352
865.48	22443
865.612	22512
865.743	22535
865.875	22428
866.006	22417
866.137	22489
866.269	22421
866.4	22523
866.531	22398
866.662	22443
866.793	22348
866.924	22478
867.055	22382
867.186	22447
867.317	22424
867.448	22402
867.579	22432
867.71	22322
867.841	22344
867.972	22550
868.103	22386
868.233	22405
868.364	22550
868.495	22470
868.625	22668
868.756	22946
868.886	22550
869.017	22675
869.147	22713
869.278	22706
869.408	22664
869.539	22603
869.669	22683
869.799	22618
869.929	22752
870.06	22740
870.19	23105
870.32	22885
870.45	22915
870.58	23102
870.71	23079
870.84	23189
870.97	23041
871.1	23086
871.23	23307
871.36	23292
871.489	23227
871.619	23307
871.749	23239
871.879	23372
872.008	23410
872.138	23200
872.267	23349
872.397	23151
872.526	23151
872.656	23094
872.785	23170
872.915	23330
873.044	23402
873.173	23406
873.303	23280
873.432	23341
873.561	23307
873.69	23353
873.819	23326
873.948	23341
874.077	23284
874.206	23265
874.335	23311
874.464	23376
874.593	23589
874.722	23554
874.851	23509
874.979	23440
875.108	23452
875.237	23570
875.365	23539
875.494	23376
875.623	23516
875.751	23471
875.88	23554
876.008	23653
876.136	23653
876.265	23824
876.393	23954
876.521	23980
876.65	24068
876.778	23999
876.906	23958
877.034	23821
877.162	23855
877.29	23874
877.418	23874
877.546	23783
877.674	23745
877.802	23771
877.93	23783
878.058	23703
878.185	23668
878.313	23908
878.441	23726
878.568	23729
878.696	23790
878.824	23870
878.951	23866
879.079	24007
879.206	24018
879.333	24049
879.461	23855
879.588	23866
879.715	23908
879.842	24148
879.97	23843
880.097	23684
880.224	23668
880.351	23691
880.478	23638
880.605	23619
880.732	23581
880.859	23832
880.986	23687
881.112	23638
881.239	23531
881.366	23318
881.493	23307
881.619	23193
881.746	23280
881.872	23162
881.999	23014
882.125	23128
882.252	23159
882.378	23277
882.505	23337
882.631	22984
882.757	22892
882.883	23003
883.01	22908
883.136	22812
883.262	22668
883.388	22717
883.514	22839
883.64	22999
883.766	22744
883.892	22637
884.018	22755
884.143	22675
884.269	22869
884.395	22459
884.52	22424
884.646	22577
884.772	22455
884.897	22466
885.023	22447
885.148	22603
885.274	22519
885.399	22679
885.524	22462
885.65	22618
885.775	22535
885.9	22508
886.025	22580
886.15	22535
886.275	22413
886.4	22398
886.525	22546
886.65	22485
886.775	22348
886.9	22478
887.025	22717
887.149	22440
887.274	22367
887.399	22215
887.523	22284
887.648	22139
887.773	22074
887.897	22363
888.021	22234
888.146	22185
888.27	22413
888.395	22352
888.519	22181
888.643	22109
888.767	22386
888.891	22112
889.015	22025
889.139	22044
889.263	22109
889.387	22192
889.511	22284
889.635	22192
889.759	22082
889.883	21972
890.006	21941
890.13	22086
890.254	21930
890.377	21987
890.501	21835
890.624	21698
890.748	21743
890.871	21656
890.995	21496
891.118	21545
891.241	21538
891.364	21519
891.488	21770
891.611	21625
891.734	21690
891.857	21622
891.98	21622
892.103	21595
892.226	21644
892.349	21595
892.471	21447
892.594	21469
892.717	21564
892.839	21564
892.962	21549
893.085	21538
893.207	21462
893.33	21367
893.452	21321
893.575	21603
893.697	21466
893.819	21629
893.941	21713
894.064	21530
894.186	21294
894.308	21344
894.43	21530
894.552	21583
894.674	21473
894.796	21298
894.918	21370
895.04	21374
895.161	21564
895.283	21458
895.405	21450
895.526	21397
895.648	21264
895.769	21462
895.891	21526
896.012	21488
896.134	21507
896.255	21397
896.376	21412
896.498	21500
896.619	21492
896.74	21447
896.861	21610
896.982	21713
897.103	21941
897.224	21663
897.345	21625
897.466	21610
897.587	21724
897.708	21785
897.828	21526
897.949	21576
898.07	21477
898.19	21671
898.311	21701
898.431	21549
898.552	21622
898.672	21732
898.792	21751
898.913	21743
899.033	21439
899.153	21443
899.273	21389
899.393	21397
899.513	21500
899.633	21428
899.753	21325
899.873	21378
899.993	21492
900.113	21348
900.232	21428
900.352	21241
900.472	21306
900.591	21100
900.711	21222
900.83	21154
900.95	21173
901.069	21237
901.189	21028
901.308	20857
901.427	20773
901.546	20659
901.665	20781
901.784	20769
901.904	20682
902.023	20427
902.141	20221
902.26	20210
902.379	20294
902.498	20278
902.617	20103
902.735	20263
902.854	20149
902.973	20168
903.091	19993
903.21	19898
903.328	19906
903.446	19860
903.565	19674
903.683	19571
903.801	19533
903.919	19647
904.038	19723
904.156	19327
904.274	19472
904.392	19320
904.51	19403
904.627	19377
904.745	19567
904.863	19483
904.981	19228
905.098	18977
905.216	19110
905.334	19103
905.451	19129
905.569	19126
905.686	19084
905.803	19141
905.921	18776
906.038	18966
906.155	18981
906.272	18768
906.389	18688
906.506	18582
906.623	18608
906.74	18608
906.857	18506
906.974	18566
907.091	18631
907.208	18700
907.324	18681
907.441	18452
907.557	18475
907.674	18304
907.79	18251
907.907	18350
908.023	18327
908.139	18369
908.256	18296
908.372	18190
908.488	18251
908.604	18098
908.72	17935
908.836	18049
908.952	17988
909.068	18045
909.184	18171
909.3	18087
909.415	18079
909.531	18041
909.647	17767
909.762	17771
909.878	17668
909.993	17752
910.108	17718
910.224	17710
910.339	17684
910.454	17554
910.57	17429
910.685	17433
910.8	17809
910.915	17589
911.03	17459
911.145	17254
911.259	17231
911.374	17315
911.489	17200
911.604	17170
911.718	16911
911.833	17048
911.947	16957
912.062	16896
912.176	17048
912.291	16991
912.405	16965
912.519	17265
912.633	17166
912.748	17147
912.862	16934
912.976	16965
913.09	16752
913.204	16797
913.318	16820
913.431	16854
913.545	16900
913.659	16866
913.772	16793
913.886	16634
914	16615
914.113	16729
914.226	16660
914.34	16664
914.453	16462
914.566	16588
914.68	16462
914.793	16409
914.906	16341
915.019	16192
915.132	16131
915.245	16211
915.358	16139
915.47	16169
915.583	16112
915.696	16185
915.809	16291
915.921	16337
916.034	16067
916.146	16044
916.259	16036
916.371	16192
916.483	16097
916.595	16006
916.708	15964
916.82	15941
916.932	15918
917.044	15945
917.156	15922
917.268	15895
917.38	15755
917.491	15812
917.603	15808
917.715	15895
917.826	15835
917.938	15766
918.049	15606
918.161	15789
918.272	15892
918.384	15892
918.495	15694
918.606	15652
918.717	15462
918.828	15584
918.939	15576
919.05	15420
919.161	15542
919.272	15283
919.383	15401
919.494	15584
919.604	15739
919.715	15428
919.826	15488
919.936	15382
920.047	15584
920.157	15492
920.267	15572
920.378	15443
920.488	15408
920.598	15557
920.708	15747
920.818	15652
920.928	15644
921.038	15671
921.148	15694
921.258	15500
921.368	15336
921.477	15249
921.587	15195
921.697	15020
921.806	15260
921.916	15047
922.025	14975
922.134	14758
922.244	14651
922.353	14785
922.462	14758
922.571	14655
922.68	14473
922.789	14488
922.898	14469
923.007	14480
923.116	14465
923.224	14492
923.333	14385
923.442	14290
923.55	14328
923.659	14343
923.767	14298
923.876	14221
923.984	14252
924.092	14145
924.201	14259
924.309	14339
924.417	14008
924.525	14130
924.633	14081
924.741	15058
924.849	13917
924.956	13936
925.064	13856
925.172	13776
925.279	13788
925.387	13951
925.494	13746
925.602	13947
925.709	13795
925.816	13674
925.924	13750
926.031	13864
926.138	13765
926.245	13906
926.352	13590
926.459	13761
926.566	13784
926.673	13677
926.779	13476
926.886	13540
926.993	13422
927.099	13415
927.206	13304
927.312	13304
927.419	13407
927.525	13324
927.631	13339
927.737	13202
927.843	13206
927.95	13133
928.056	13133
928.162	13164
928.267	13198
928.373	13856
928.479	13240
928.585	12993
928.69	13072
928.796	13118
928.901	13015
929.007	12844
929.112	13072
929.218	12909
929.323	12840
929.428	12894
929.533	12962
929.638	12726
929.743	12768
929.848	12856
929.953	12825
930.058	12738
930.163	12563
930.267	12536
930.372	12707
930.477	12513
930.581	12677
930.685	12559
930.79	12437
930.894	12517
930.998	12353
931.103	12467
931.207	12117
931.311	12064
931.415	11942
931.519	11737
931.623	11733
