Data from test_V78500241_1977.txt Node
Date: Fri Mar 25 15:55:29 CST 2022
User: usil
Spectrometer: V785-0024
Trigger mode: 0
Integration Time (sec): 4.000000E-1
Scans to average: 1
Nonlinearity correction enabled: false
Boxcar width: 0
Storing dark spectrum: false
XAxis mode: Wavelengths
Number of Pixels in Spectrum: 1024
>>>>>Begin Spectral Data<<<<<
801.071	27435
801.214	27450
801.356	27252
801.499	27081
801.641	27085
801.783	26883
801.926	27070
802.068	26838
802.211	26800
802.353	26891
802.496	26598
802.638	26590
802.78	26590
802.923	26583
803.065	26514
803.208	26636
803.35	26602
803.492	26739
803.635	26864
803.777	26724
803.919	26876
804.061	27161
804.204	26807
804.346	26864
804.488	26750
804.63	26925
804.773	26785
804.915	26781
805.057	26868
805.199	26800
805.341	26918
805.483	26918
805.626	26940
805.768	26788
805.91	26929
806.052	26861
806.194	26883
806.336	27192
806.478	27036
806.62	27001
806.762	27100
806.904	27203
807.046	27450
807.188	27359
807.33	27363
807.472	27374
807.614	27184
807.756	27481
807.898	27146
808.04	27066
808.182	27127
808.324	27116
808.465	27325
808.607	27439
808.749	27679
808.891	27797
809.033	27625
809.174	27694
809.316	27591
809.458	27564
809.6	27488
809.741	27641
809.883	27736
810.025	27808
810.166	27812
810.308	27842
810.45	27652
810.591	27778
810.733	27477
810.875	27671
811.016	27477
811.158	27462
811.299	27427
811.441	27580
811.582	27603
811.724	27545
811.865	27389
812.007	27462
812.148	27496
812.29	27553
812.431	27637
812.573	27751
812.714	27934
812.855	27899
812.997	28116
813.138	28284
813.279	28185
813.421	27983
813.562	27892
813.703	27865
813.845	27785
813.986	27374
814.127	27298
814.268	27268
814.41	27291
814.551	27294
814.692	27195
814.833	27154
814.974	27047
815.115	27264
815.256	27085
815.397	27108
815.539	26933
815.68	27039
815.821	26819
815.962	26979
816.103	26906
816.244	26804
816.385	26880
816.526	26617
816.666	26594
816.807	26419
816.948	26609
817.089	26613
817.23	26514
817.371	26427
817.512	26434
817.653	26473
817.793	26347
817.934	26545
818.075	26568
818.216	26465
818.356	26244
818.497	26400
818.638	26191
818.778	26180
818.919	26309
819.06	26301
819.2	26336
819.341	26423
819.481	26336
819.622	26693
819.762	26823
819.903	26644
820.043	26602
820.184	26644
820.324	26469
820.465	26655
820.605	26651
820.746	26575
820.886	26465
821.026	26476
821.167	26549
821.307	26511
821.447	26537
821.588	26377
821.728	26309
821.868	26073
822.008	25982
822.149	25852
822.289	25883
822.429	25651
822.569	25548
822.709	25613
822.849	25365
822.99	25521
823.13	25316
823.27	25358
823.41	25285
823.55	25251
823.69	25373
823.83	25209
823.97	25213
824.11	25152
824.25	25065
824.389	25034
824.529	25091
824.669	25080
824.809	25164
824.949	25240
825.089	25362
825.228	25110
825.368	25122
825.508	24905
825.648	24985
825.787	24996
825.927	25019
826.067	24913
826.206	24992
826.346	24932
826.485	25015
826.625	24970
826.765	25080
826.904	24954
827.044	24791
827.183	24677
827.323	24661
827.462	24688
827.601	24741
827.741	24681
827.88	24604
828.02	24608
828.159	24608
828.298	24692
828.437	24856
828.577	24513
828.716	24745
828.855	24639
828.994	24289
829.134	24422
829.273	24475
829.412	24201
829.551	24209
829.69	24361
829.829	24445
829.968	24494
830.107	24319
830.246	24319
830.385	24148
830.524	24129
830.663	24110
830.802	24155
830.941	23973
831.08	24049
831.219	23893
831.357	23996
831.496	24140
831.635	23882
831.774	23802
831.913	23828
832.051	23745
832.19	23722
832.329	23707
832.467	23680
832.606	23528
832.744	23566
832.883	23684
833.022	23551
833.16	23551
833.299	23653
833.437	23649
833.576	23676
833.714	23714
833.852	23741
833.991	23824
834.129	23741
834.267	23737
834.406	23665
834.544	23771
834.682	23745
834.821	23760
834.959	23916
835.097	23691
835.235	23733
835.373	23729
835.511	23676
835.65	23520
835.788	23642
835.926	23547
836.064	23311
836.202	23425
836.34	23554
836.478	23596
836.615	23512
836.753	23558
836.891	23623
837.029	23520
837.167	23539
837.305	23421
837.443	23505
837.58	23326
837.718	23391
837.856	23528
837.993	23292
838.131	23288
838.269	23273
838.406	23212
838.544	23212
838.681	23048
838.819	22995
838.956	22965
839.094	22881
839.231	22843
839.369	22968
839.506	23239
839.643	23029
839.781	22831
839.918	22736
840.055	22828
840.193	22721
840.33	22698
840.467	22873
840.604	22763
840.742	23010
840.879	22645
841.016	22656
841.153	22637
841.29	22809
841.427	22679
841.564	22683
841.701	22694
841.838	22801
841.975	22565
842.112	22713
842.249	22573
842.385	22656
842.522	22694
842.659	22668
842.796	22557
842.933	22569
843.069	22504
843.206	22523
843.343	22599
843.479	22497
843.616	22500
843.752	22333
843.889	22242
844.025	22527
844.162	22344
844.298	22344
844.435	22295
844.571	22268
844.708	22405
844.844	22516
844.98	22363
845.117	22455
845.253	22299
845.389	22143
845.525	22150
845.661	21987
845.798	21968
845.934	22048
846.07	22017
846.206	22006
846.342	22051
846.478	21994
846.614	21895
846.75	21709
846.886	21732
847.022	21854
847.158	21739
847.294	21694
847.429	21797
847.565	21766
847.701	22010
847.837	21511
847.972	21557
848.108	21553
848.244	21568
848.379	21488
848.515	21192
848.65	21359
848.786	21302
848.921	21431
849.057	21370
849.192	21405
849.328	21435
849.463	21279
849.598	21241
849.734	21180
849.869	21241
850.004	21100
850.14	21135
850.275	21119
850.41	21135
850.545	21020
850.68	21024
850.815	21108
850.95	21051
851.085	21195
851.22	21363
851.355	21184
851.49	21116
851.625	21081
851.76	21192
851.895	20937
852.03	21028
852.165	21081
852.299	21161
852.434	21150
852.569	21157
852.703	21184
852.838	21131
852.973	21260
853.107	21180
853.242	21089
853.376	20967
853.511	20960
853.645	20880
853.78	21096
853.914	20960
854.048	20914
854.183	20864
854.317	20944
854.451	21138
854.585	21047
854.72	20979
854.854	21013
854.988	20815
855.122	20971
855.256	20845
855.39	20925
855.524	21020
855.658	20990
855.792	20849
855.926	20967
856.06	20872
856.194	21036
856.327	20975
856.461	20948
856.595	20876
856.729	20994
856.862	21039
856.996	21017
857.13	20948
857.263	21055
857.397	21047
857.53	20982
857.664	21051
857.797	21036
857.931	21001
858.064	20963
858.197	21055
858.331	20929
858.464	20925
858.597	20975
858.731	20910
858.864	20899
858.997	20998
859.13	20891
859.263	20941
859.396	21085
859.529	20990
859.662	20811
859.795	20849
859.928	20834
860.061	21104
860.194	21127
860.327	20902
860.46	21005
860.592	21001
860.725	21142
860.858	21089
860.99	20944
861.123	20880
861.256	20872
861.388	20902
861.521	21690
861.653	20781
861.786	20785
861.918	20811
862.05	20781
862.183	20891
862.315	20948
862.447	20876
862.58	20842
862.712	20648
862.844	20682
862.976	20754
863.108	20659
863.24	21119
863.372	20621
863.504	20518
863.636	20606
863.768	20743
863.9	20792
864.032	20651
864.164	20621
864.296	20705
864.428	20815
864.559	20838
864.691	20842
864.823	20682
864.954	20731
865.086	20629
865.217	20518
865.349	20541
865.48	20560
865.612	20594
865.743	20682
865.875	20598
866.006	20712
866.137	20507
866.269	20632
866.4	20541
866.531	20514
866.662	20446
866.793	20442
866.924	20423
867.055	20556
867.186	20568
867.317	20511
867.448	20374
867.579	20431
867.71	20362
867.841	20396
867.972	20404
868.103	20454
868.233	20454
868.364	20492
868.495	20792
868.625	20773
868.756	20811
868.886	20663
869.017	20663
869.147	20880
869.278	20895
869.408	20826
869.539	20670
869.669	20727
869.799	20807
869.929	20887
870.06	20838
870.19	21070
870.32	21058
870.45	21116
870.58	21112
870.71	21211
870.84	21192
870.97	21279
871.1	21169
871.23	21336
871.36	21306
871.489	21154
871.619	21294
871.749	21310
871.879	21287
872.008	21511
872.138	21363
872.267	21287
872.397	21310
872.526	21207
872.656	21207
872.785	21161
872.915	21370
873.044	21462
873.173	21382
873.303	21405
873.432	21393
873.561	21507
873.69	21340
873.819	21420
873.948	21466
874.077	21405
874.206	21203
874.335	21450
874.464	21447
874.593	21591
874.722	21477
874.851	21599
874.979	21747
875.108	21599
875.237	21572
875.365	21473
875.494	21641
875.623	21618
875.751	21671
875.88	21576
876.008	21679
876.136	21880
876.265	21945
876.393	22055
876.521	22090
876.65	22055
876.778	21987
876.906	21907
877.034	21930
877.162	21934
877.29	21827
877.418	22006
877.546	22074
877.674	22006
877.802	21880
877.93	21964
878.058	22006
878.185	21785
878.313	21918
878.441	21953
878.568	21736
878.696	21922
878.824	21903
878.951	22101
879.079	22013
879.206	22291
879.333	22124
879.461	21960
879.588	22051
879.715	22063
879.842	22226
879.97	21945
880.097	21720
880.224	21728
880.351	21838
880.478	21827
880.605	21831
880.732	21812
880.859	22131
880.986	21827
881.112	21865
881.239	21698
881.366	21538
881.493	21336
881.619	21435
881.746	21393
881.872	21336
881.999	21401
882.125	21302
882.252	21389
882.378	21344
882.505	21329
882.631	21207
882.757	21154
882.883	21241
883.01	21199
883.136	21039
883.262	20811
883.388	20914
883.514	20975
883.64	21150
883.766	20902
883.892	20811
884.018	20895
884.143	20921
884.269	21081
884.395	20842
884.52	20689
884.646	20686
884.772	20659
884.897	20644
885.023	20720
885.148	20834
885.274	20804
885.399	20750
885.524	20708
885.65	20701
885.775	20769
885.9	20773
886.025	20667
886.15	20800
886.275	20594
886.4	20708
886.525	20739
886.65	20579
886.775	20507
886.9	20762
887.025	20785
887.149	20655
887.274	20412
887.399	20446
887.523	20552
887.648	20343
887.773	20358
887.897	20674
888.021	20640
888.146	20434
888.27	20609
888.395	20609
888.519	20423
888.643	20457
888.767	20396
888.891	20480
889.015	20286
889.139	20336
889.263	20252
889.387	20442
889.511	20480
889.635	20457
889.759	20233
889.883	20313
890.006	20301
890.13	20320
890.254	20149
890.377	20199
890.501	19955
890.624	20024
890.748	20172
890.871	19936
890.995	19700
891.118	19788
891.241	19841
891.364	19864
891.488	20062
891.611	19902
891.734	19868
891.857	19932
891.98	19936
892.103	19894
892.226	19799
892.349	19883
892.471	19731
892.594	19712
892.717	19852
892.839	19696
892.962	19765
893.085	19830
893.207	19700
893.33	19655
893.452	19708
893.575	19765
893.697	19677
893.819	19833
893.941	19944
894.064	19845
894.186	19674
894.308	19738
894.43	19951
894.552	19894
894.674	19814
894.796	19594
894.918	19727
895.04	19856
895.161	19864
895.283	19837
895.405	19723
895.526	19731
895.648	19841
895.769	19742
895.891	19822
896.012	19822
896.134	19921
896.255	19742
896.376	19864
896.498	19753
896.619	19887
896.74	19662
896.861	19830
896.982	19921
897.103	20187
897.224	20039
897.345	19989
897.466	19883
897.587	19982
897.708	20142
897.828	20005
897.949	19928
898.07	19955
898.19	19921
898.311	20062
898.431	19940
898.552	19936
898.672	20149
898.792	20081
898.913	20005
899.033	19879
899.153	19788
899.273	19700
899.393	19742
899.513	19883
899.633	19795
899.753	19734
899.873	19674
899.993	19807
900.113	19746
900.232	19746
900.352	19731
900.472	19578
900.591	19525
900.711	19491
900.83	19441
900.95	19662
901.069	19533
901.189	19510
901.308	19247
901.427	19213
901.546	19179
901.665	19190
901.784	19107
901.904	19099
902.023	18905
902.141	18734
902.26	18551
902.379	18837
902.498	18745
902.617	18642
902.735	18757
902.854	18669
902.973	18642
903.091	18361
903.21	18350
903.328	18372
903.446	18266
903.565	18022
903.683	18087
903.801	17980
903.919	18083
904.038	18129
904.156	17855
904.274	17988
904.392	17840
904.51	17969
904.627	17897
904.745	17965
904.863	17954
904.981	17783
905.098	17493
905.216	17608
905.334	17604
905.451	17684
905.569	17623
905.686	17627
905.803	17455
905.921	17303
906.038	17429
906.155	17379
906.272	17246
906.389	17299
906.506	17064
906.623	17193
906.74	17094
906.857	17014
906.974	17060
907.091	17064
907.208	17166
907.324	16987
907.441	16991
907.557	16896
907.674	16801
907.79	16771
907.907	16843
908.023	16919
908.139	16877
908.256	16831
908.372	16675
908.488	16653
908.604	16580
908.72	16611
908.836	16611
908.952	16508
909.068	16558
909.184	16573
909.3	16516
909.415	16569
909.531	16519
909.647	16272
909.762	16280
909.878	16276
909.993	16287
910.108	16200
910.224	16147
910.339	16154
910.454	15983
910.57	15930
910.685	15895
910.8	16310
910.915	16147
911.03	16067
911.145	15873
911.259	15835
911.374	15823
911.489	15747
911.604	15755
911.718	15679
911.833	15644
911.947	15500
912.062	15481
912.176	15587
912.291	15591
912.405	15690
912.519	15857
912.633	15785
912.748	15652
912.862	15599
912.976	15523
913.09	15283
913.204	15405
913.318	15458
913.431	15481
913.545	15507
913.659	15507
913.772	15374
913.886	15302
914	15203
914.113	15275
914.226	15287
914.34	15173
914.453	15150
914.566	15237
914.68	15116
914.793	15100
914.906	14872
915.019	14864
915.132	14788
915.245	14857
915.358	14739
915.47	14781
915.583	14868
915.696	14845
915.809	14979
915.921	14906
916.034	14762
916.146	14625
916.259	14773
916.371	14754
916.483	14792
916.595	14663
916.708	14644
916.82	14682
916.932	14629
917.044	14697
917.156	14602
917.268	14476
917.38	14583
917.491	14507
917.603	14522
917.715	14564
917.826	14564
917.938	14442
918.049	14358
918.161	14503
918.272	14541
918.384	14617
918.495	14396
918.606	14290
918.717	14229
918.828	14351
918.939	14294
919.05	14119
919.161	14324
919.272	14058
919.383	14145
919.494	14377
919.604	14473
919.715	14229
919.826	14168
919.936	14244
920.047	14298
920.157	14145
920.267	14431
920.378	14191
920.488	14313
920.598	14450
920.708	14484
920.818	14431
920.928	14374
921.038	14526
921.148	14541
921.258	14240
921.368	14035
921.477	14012
921.587	13875
921.697	13936
921.806	14073
921.916	13871
922.025	13746
922.134	13685
922.244	13575
922.353	13723
922.462	13495
922.571	13445
922.68	13324
922.789	13312
922.898	13301
923.007	13202
923.116	13282
923.224	13293
923.333	13282
923.442	13129
923.55	13118
923.659	13137
923.767	13164
923.876	13031
923.984	13103
924.092	13015
924.201	13050
924.309	13023
924.417	13019
924.525	12939
924.633	12954
924.741	13837
924.849	12863
924.956	12939
925.064	12726
925.172	12673
925.279	12681
925.387	12745
925.494	12707
925.602	12798
925.709	12829
925.816	12601
925.924	12620
926.031	12791
926.138	12608
926.245	12703
926.352	12597
926.459	12760
926.566	12776
926.673	12570
926.779	12506
926.886	12372
926.993	12350
927.099	12327
927.206	12254
927.312	12205
927.419	12296
927.525	12311
927.631	12426
927.737	12228
927.843	12064
927.95	12038
928.056	12091
928.162	12148
928.267	12216
928.373	12772
928.479	12167
928.585	12015
928.69	12057
928.796	12140
928.901	11992
929.007	11821
929.112	11920
929.218	11969
929.323	11885
929.428	11832
929.533	12038
929.638	11855
929.743	11813
929.848	11821
929.953	11828
930.058	11703
930.163	11505
930.267	11592
930.372	11634
930.477	11459
930.581	11733
930.685	11577
930.79	11512
930.894	11455
930.998	11372
931.103	11554
931.207	11269
931.311	11071
931.415	11010
931.519	10828
931.623	10812
