Data from test_V78500241_2662.txt Node
Date: Fri Mar 25 16:00:14 CST 2022
User: usil
Spectrometer: V785-0024
Trigger mode: 0
Integration Time (sec): 4.000000E-1
Scans to average: 1
Nonlinearity correction enabled: false
Boxcar width: 0
Storing dark spectrum: false
XAxis mode: Wavelengths
Number of Pixels in Spectrum: 1024
>>>>>Begin Spectral Data<<<<<
801.071	28733
801.214	28755
801.356	28649
801.499	28401
801.641	28371
801.783	28344
801.926	28375
802.068	28538
802.211	28329
802.353	28226
802.496	28249
802.638	28116
802.78	27972
802.923	28040
803.065	28032
803.208	28162
803.35	28234
803.492	28249
803.635	28352
803.777	28211
803.919	28299
804.061	28649
804.204	28424
804.346	28268
804.488	28238
804.63	28337
804.773	28371
804.915	28447
805.057	28413
805.199	28306
805.341	28409
805.483	28451
805.626	28481
805.768	28394
805.91	28485
806.052	28443
806.194	28344
806.336	28740
806.478	28371
806.62	28546
806.762	28596
806.904	28637
807.046	28980
807.188	28946
807.33	28828
807.472	28946
807.614	28816
807.756	28980
807.898	28854
808.04	28782
808.182	28694
808.324	28767
808.465	28911
808.607	29124
808.749	29200
808.891	29212
809.033	29284
809.174	29189
809.316	29284
809.458	29174
809.6	29079
809.741	29223
809.883	29326
810.025	29425
810.166	29448
810.308	29520
810.45	29410
810.591	29474
810.733	29090
810.875	29318
811.016	29067
811.158	29132
811.299	29269
811.441	29387
811.582	29303
811.724	29193
811.865	29143
812.007	29086
812.148	29265
812.29	29284
812.431	29318
812.573	29558
812.714	29531
812.855	29737
812.997	29718
813.138	29916
813.279	30007
813.421	29733
813.562	29566
813.703	29543
813.845	29600
813.986	29117
814.127	28991
814.268	28862
814.41	28938
814.551	28885
814.692	28934
814.833	28763
814.974	28919
815.115	28934
815.256	28755
815.397	28637
815.539	28828
815.68	28752
815.821	28664
815.962	28717
816.103	28736
816.244	28744
816.385	28531
816.526	28561
816.666	28265
816.807	28223
816.948	28295
817.089	28322
817.23	28276
817.371	28185
817.512	28223
817.653	28230
817.793	28112
817.934	28238
818.075	28093
818.216	28265
818.356	28078
818.497	28006
818.638	27998
818.778	27945
818.919	27964
819.06	28036
819.2	28143
819.341	28196
819.481	28238
819.622	28481
819.762	28710
819.903	28371
820.043	28466
820.184	28348
820.324	28268
820.465	28371
820.605	28230
820.746	28360
820.886	28436
821.026	28280
821.167	28238
821.307	28363
821.447	28226
821.588	28154
821.728	28131
821.868	27842
822.008	27656
822.149	27717
822.289	27648
822.429	27534
822.569	27378
822.709	27374
822.849	27252
822.99	27283
823.13	27363
823.27	27192
823.41	27039
823.55	26777
823.69	27085
823.83	27005
823.97	27116
824.11	26853
824.25	26811
824.389	26792
824.529	26887
824.669	27039
824.809	26967
824.949	27001
825.089	27055
825.228	26895
825.368	26796
825.508	26689
825.648	26697
825.787	26880
825.927	26773
826.067	26667
826.206	26807
826.346	26834
826.485	26940
826.625	26796
826.765	26883
826.904	26785
827.044	26499
827.183	26590
827.323	26396
827.462	26621
827.601	26484
827.741	26400
827.88	26625
828.02	26469
828.159	26480
828.298	26549
828.437	26537
828.577	26465
828.716	26518
828.855	26343
828.994	26168
829.134	26153
829.273	26225
829.412	26115
829.551	26065
829.69	26134
829.829	26336
829.968	26313
830.107	26313
830.246	26126
830.385	26077
830.524	26210
830.663	25944
830.802	26027
830.941	25826
831.08	25811
831.219	25906
831.357	25951
831.496	26065
831.635	25852
831.774	25681
831.913	25651
832.051	25689
832.19	25525
832.329	25556
832.467	25552
832.606	25449
832.744	25331
832.883	25453
833.022	25479
833.16	25403
833.299	25544
833.437	25525
833.576	25514
833.714	25571
833.852	25635
833.991	25655
834.129	25578
834.267	25628
834.406	25559
834.544	25411
834.682	25499
834.821	25415
834.959	25700
835.097	25514
835.235	25635
835.373	25616
835.511	25518
835.65	25384
835.788	25502
835.926	25069
836.064	25206
836.202	25133
836.34	25251
836.478	25377
836.615	25567
836.753	25228
836.891	25365
837.029	25335
837.167	25346
837.305	25304
837.443	25217
837.58	25107
837.718	25225
837.856	25232
837.993	25213
838.131	25244
838.269	25008
838.406	25019
838.544	25034
838.681	24833
838.819	24859
838.956	24730
839.094	24601
839.231	24673
839.369	24920
839.506	25019
839.643	24791
839.781	24566
839.918	24513
840.055	24692
840.193	24578
840.33	24555
840.467	24505
840.604	24536
840.742	24734
840.879	24407
841.016	24471
841.153	24437
841.29	24593
841.427	24566
841.564	24525
841.701	24479
841.838	24521
841.975	24369
842.112	24403
842.249	24315
842.385	24281
842.522	24475
842.659	24521
842.796	24338
842.933	24327
843.069	24243
843.206	24197
843.343	24433
843.479	24376
843.616	24178
843.752	23988
843.889	24106
844.025	24155
844.162	24018
844.298	24129
844.435	24003
844.571	23935
844.708	24072
844.844	24239
844.98	24239
845.117	24117
845.253	24011
845.389	23908
845.525	23965
845.661	23813
845.798	23653
845.934	23950
846.07	23809
846.206	23920
846.342	23980
846.478	23726
846.614	23573
846.75	23505
846.886	23516
847.022	23668
847.158	23524
847.294	23554
847.429	23608
847.565	23440
847.701	23764
847.837	23170
847.972	23113
848.108	23277
848.244	23379
848.379	23136
848.515	23094
848.65	22961
848.786	23220
848.921	23067
849.057	23227
849.192	23258
849.328	23086
849.463	23140
849.598	23022
849.734	23006
849.869	22991
850.004	22915
850.14	22862
850.275	22843
850.41	22809
850.545	22858
850.68	22790
850.815	22854
850.95	22831
851.085	23086
851.22	23071
851.355	22923
851.49	22854
851.625	22961
851.76	22984
851.895	22873
852.03	22812
852.165	22858
852.299	22995
852.434	22942
852.569	22930
852.703	22885
852.838	22847
852.973	23010
853.107	22995
853.242	22763
853.376	22607
853.511	22599
853.645	22660
853.78	22778
853.914	22713
854.048	22801
854.183	22782
854.317	22649
854.451	22949
854.585	22759
854.72	22774
854.854	22755
854.988	22592
855.122	22691
855.256	22516
855.39	22656
855.524	22767
855.658	22717
855.792	22637
855.926	22611
856.06	22729
856.194	22790
856.327	22630
856.461	22698
856.595	22691
856.729	22668
856.862	22774
856.996	22786
857.13	22691
857.263	22767
857.397	22801
857.53	22599
857.664	22721
857.797	22717
857.931	22793
858.064	22736
858.197	22778
858.331	22683
858.464	22615
858.597	22542
858.731	22816
858.864	22645
858.997	22527
859.13	22710
859.263	22584
859.396	22812
859.529	22694
859.662	22630
859.795	22691
859.928	22664
860.061	22828
860.194	22778
860.327	22694
860.46	22721
860.592	22869
860.725	22881
860.858	22805
860.99	22675
861.123	22641
861.256	22694
861.388	22664
861.521	23379
861.653	22478
861.786	22508
861.918	22569
862.05	22577
862.183	22596
862.315	22653
862.447	22603
862.58	22500
862.712	22409
862.844	22500
862.976	22470
863.108	22398
863.24	22713
863.372	22341
863.504	22363
863.636	22390
863.768	22455
863.9	22223
864.032	22402
864.164	22356
864.296	22379
864.428	22603
864.559	22508
864.691	22470
864.823	22409
864.954	22375
865.086	22272
865.217	22379
865.349	22162
865.48	22310
865.612	22382
865.743	22318
865.875	22246
866.006	22280
866.137	22295
866.269	22238
866.4	22173
866.531	22185
866.662	22204
866.793	22253
866.924	22166
867.055	22303
867.186	22211
867.317	22177
867.448	21979
867.579	22185
867.71	22082
867.841	22002
867.972	22131
868.103	22185
868.233	22147
868.364	22196
868.495	22112
868.625	22421
868.756	22481
868.886	22295
869.017	22508
869.147	22504
869.278	22451
869.408	22489
869.539	22390
869.669	22512
869.799	22485
869.929	22603
870.06	22550
870.19	22645
870.32	22763
870.45	22835
870.58	22816
870.71	22949
870.84	22965
870.97	22706
871.1	22930
871.23	22949
871.36	23029
871.489	22847
871.619	22927
871.749	23094
871.879	22961
872.008	23220
872.138	22987
872.267	23162
872.397	22900
872.526	22828
872.656	22957
872.785	22793
872.915	23128
873.044	23033
873.173	23067
873.303	23128
873.432	23162
873.561	23136
873.69	23105
873.819	22915
873.948	23048
874.077	23067
874.206	22946
874.335	23044
874.464	23159
874.593	23223
874.722	23174
874.851	23337
874.979	23402
875.108	23193
875.237	23147
875.365	23147
875.494	23178
875.623	23318
875.751	23170
875.88	23311
876.008	23448
876.136	23474
876.265	23566
876.393	23840
876.521	23695
876.65	23790
876.778	23760
876.906	23512
877.034	23661
877.162	23695
877.29	23554
877.418	23657
877.546	23646
877.674	23604
877.802	23623
877.93	23634
878.058	23630
878.185	23501
878.313	23604
878.441	23661
878.568	23376
878.696	23512
878.824	23570
878.951	23596
879.079	23745
879.206	23866
879.333	23859
879.461	23718
879.588	23691
879.715	23726
879.842	23882
879.97	23840
880.097	23566
880.224	23391
880.351	23436
880.478	23459
880.605	23318
880.732	23520
880.859	23634
880.986	23436
881.112	23433
881.239	23220
881.366	23006
881.493	23147
881.619	22999
881.746	22968
881.872	22919
881.999	23033
882.125	22938
882.252	23037
882.378	22984
882.505	23018
882.631	22892
882.757	22626
882.883	22752
883.01	22660
883.136	22599
883.262	22481
883.388	22531
883.514	22679
883.64	22683
883.766	22565
883.892	22455
884.018	22470
884.143	22630
884.269	22717
884.395	22443
884.52	22299
884.646	22280
884.772	22185
884.897	22234
885.023	22287
885.148	22379
885.274	22382
885.399	22306
885.524	22211
885.65	22375
885.775	22246
885.9	22234
886.025	22348
886.15	22318
886.275	22238
886.4	22063
886.525	22276
886.65	22268
886.775	22128
886.9	22443
887.025	22569
887.149	22230
887.274	22120
887.399	22055
887.523	22040
887.648	22090
887.773	21918
887.897	21979
888.021	22109
888.146	21956
888.27	21945
888.395	22120
888.519	22010
888.643	22048
888.767	21979
888.891	21842
889.015	21838
889.139	21945
889.263	21781
889.387	21911
889.511	22120
889.635	21979
889.759	21728
889.883	21694
890.006	21789
890.13	21895
890.254	21755
890.377	21629
890.501	21507
890.624	21511
890.748	21545
890.871	21302
890.995	21336
891.118	21275
891.241	21416
891.364	21317
891.488	21485
891.611	21431
891.734	21412
891.857	21416
891.98	21401
892.103	21359
892.226	21416
892.349	21260
892.471	21093
892.594	21268
892.717	21310
892.839	21169
892.962	21325
893.085	21279
893.207	21150
893.33	21192
893.452	21173
893.575	21245
893.697	21260
893.819	21279
893.941	21431
894.064	21447
894.186	21169
894.308	21138
894.43	21447
894.552	21405
894.674	21386
894.796	21173
894.918	21245
895.04	21169
895.161	21252
895.283	21355
895.405	21180
895.526	21306
895.648	21199
895.769	21272
895.891	21233
896.012	21306
896.134	21272
896.255	21169
896.376	21192
896.498	21211
896.619	21226
896.74	21233
896.861	21279
896.982	21488
897.103	21713
897.224	21523
897.345	21408
897.466	21420
897.587	21519
897.708	21591
897.828	21435
897.949	21329
898.07	21294
898.19	21370
898.311	21431
898.431	21401
898.552	21492
898.672	21519
898.792	21458
898.913	21344
899.033	21336
899.153	21264
899.273	21085
899.393	21081
899.513	21173
899.633	21180
899.753	21241
899.873	21085
899.993	21302
900.113	21070
900.232	21135
900.352	21009
900.472	20986
900.591	20906
900.711	20941
900.83	20845
900.95	21028
901.069	21096
901.189	20861
901.308	20541
901.427	20518
901.546	20511
901.665	20461
901.784	20488
901.904	20400
902.023	20225
902.141	20046
902.26	20012
902.379	20107
902.498	20065
902.617	19970
902.735	19989
902.854	19944
902.973	19875
903.091	19616
903.21	19704
903.328	19704
903.446	19681
903.565	19544
903.683	19491
903.801	19335
903.919	19358
904.038	19320
904.156	19190
904.274	19285
904.392	19240
904.51	19156
904.627	19206
904.745	19240
904.863	19187
904.981	19008
905.098	18878
905.216	18833
905.334	18787
905.451	18875
905.569	18867
905.686	18840
905.803	18749
905.921	18620
906.038	18745
906.155	18711
906.272	18494
906.389	18570
906.506	18395
906.623	18334
906.74	18384
906.857	18224
906.974	18285
907.091	18429
907.208	18376
907.324	18372
907.441	18266
907.557	18186
907.674	18064
907.79	18083
907.907	18049
908.023	18098
908.139	18049
908.256	18144
908.372	18106
908.488	17908
908.604	17874
908.72	17843
908.836	17813
908.952	17821
909.068	17824
909.184	17893
909.3	17832
909.415	17889
909.531	17722
909.647	17558
909.762	17509
909.878	17520
909.993	17535
910.108	17444
910.224	17296
910.339	17448
910.454	17303
910.57	17337
910.685	17242
910.8	17501
910.915	17334
911.03	17242
911.145	17132
911.259	17075
911.374	17105
911.489	16991
911.604	16885
911.718	16812
911.833	16801
911.947	16748
912.062	16679
912.176	16896
912.291	16812
912.405	16835
912.519	16987
912.633	17033
912.748	16828
912.862	16744
912.976	16596
913.09	16531
913.204	16497
913.318	16679
913.431	16675
913.545	16702
913.659	16637
913.772	16508
913.886	16459
914	16386
914.113	16428
914.226	16535
914.34	16440
914.453	16352
914.566	16386
914.68	16207
914.793	16272
914.906	16040
915.019	16055
915.132	15960
915.245	15975
915.358	15994
915.47	15991
915.583	16063
915.696	16036
915.809	16071
915.921	16124
916.034	15846
916.146	15876
916.259	15979
916.371	15964
916.483	15949
916.595	15747
916.708	15667
916.82	15842
916.932	15747
917.044	15705
917.156	15717
917.268	15648
917.38	15564
917.491	15633
917.603	15576
917.715	15682
917.826	15720
917.938	15507
918.049	15450
918.161	15504
918.272	15663
918.384	15652
918.495	15534
918.606	15363
918.717	15344
918.828	15431
918.939	15214
919.05	15222
919.161	15294
919.272	15077
919.383	15131
919.494	15310
919.604	15610
919.715	15348
919.826	15161
919.936	15203
920.047	15386
920.157	15230
920.267	15389
920.378	15268
920.488	15226
920.598	15416
920.708	15526
920.818	15439
920.928	15397
921.038	15622
921.148	15564
921.258	15291
921.368	15180
921.477	14921
921.587	15047
921.697	14842
921.806	15005
921.916	14883
922.025	14640
922.134	14583
922.244	14606
922.353	14670
922.462	14533
922.571	14419
922.68	14313
922.789	14202
922.898	14313
923.007	14225
923.116	14206
923.224	14305
923.333	14244
923.442	14157
923.55	14123
923.659	14153
923.767	14123
923.876	14005
923.984	14168
924.092	13970
924.201	14005
924.309	13989
924.417	13970
924.525	13852
924.633	13989
924.741	14880
924.849	13674
924.956	13799
925.064	13761
925.172	13624
925.279	13628
925.387	13742
925.494	13613
925.602	13780
925.709	13689
925.816	13521
925.924	13559
926.031	13597
926.138	13552
926.245	13708
926.352	13502
926.459	13662
926.566	13636
926.673	13438
926.779	13480
926.886	13419
926.993	13247
927.099	13259
927.206	13198
927.312	13183
927.419	13236
927.525	13160
927.631	13190
927.737	13000
927.843	13065
927.95	12939
928.056	13065
928.162	12985
928.267	13031
928.373	13708
928.479	13141
928.585	12779
928.69	12958
928.796	12970
928.901	12837
929.007	12681
929.112	12852
929.218	12867
929.323	12760
929.428	12707
929.533	12764
929.638	12662
929.743	12631
929.848	12711
929.953	12646
930.058	12506
930.163	12388
930.267	12414
930.372	12544
930.477	12300
930.581	12608
930.685	12441
930.79	12220
930.894	12289
930.998	12209
931.103	12334
931.207	11946
931.311	11950
931.415	11836
931.519	11619
931.623	11596
