Data from test_V78500241_2655.txt Node
Date: Fri Mar 25 16:00:11 CST 2022
User: usil
Spectrometer: V785-0024
Trigger mode: 0
Integration Time (sec): 4.000000E-1
Scans to average: 1
Nonlinearity correction enabled: false
Boxcar width: 0
Storing dark spectrum: false
XAxis mode: Wavelengths
Number of Pixels in Spectrum: 1024
>>>>>Begin Spectral Data<<<<<
801.071	28565
801.214	28474
801.356	28352
801.499	28287
801.641	28078
801.783	28177
801.926	28226
802.068	28246
802.211	28029
802.353	28074
802.496	27911
802.638	27953
802.78	27888
802.923	27835
803.065	27804
803.208	27812
803.35	27766
803.492	27930
803.635	28101
803.777	28017
803.919	28101
804.061	28436
804.204	28200
804.346	28097
804.488	27941
804.63	28082
804.773	27983
804.915	28131
805.057	28230
805.199	28074
805.341	28048
805.483	28173
805.626	28314
805.768	28173
805.91	28337
806.052	28219
806.194	28150
806.336	28470
806.478	28291
806.62	28318
806.762	28322
806.904	28592
807.046	28733
807.188	28759
807.33	28698
807.472	28748
807.614	28580
807.756	28615
807.898	28577
808.04	28512
808.182	28379
808.324	28736
808.465	28668
808.607	28790
808.749	28934
808.891	29155
809.033	29208
809.174	29003
809.316	28885
809.458	28858
809.6	28847
809.741	28972
809.883	29185
810.025	29075
810.166	29334
810.308	29345
810.45	29143
810.591	29060
810.733	28965
810.875	28888
811.016	28892
811.158	28809
811.299	29090
811.441	29193
811.582	29090
811.724	28984
811.865	28911
812.007	28900
812.148	28957
812.29	29083
812.431	29105
812.573	29250
812.714	29414
812.855	29391
812.997	29623
813.138	29581
813.279	29661
813.421	29501
813.562	29406
813.703	29231
813.845	29216
813.986	28923
814.127	28721
814.268	28672
814.41	28691
814.551	28656
814.692	28850
814.833	28466
814.974	28611
815.115	28698
815.256	28474
815.397	28489
815.539	28504
815.68	28485
815.821	28363
815.962	28436
816.103	28409
816.244	28367
816.385	28124
816.526	28322
816.666	28029
816.807	27812
816.948	28021
817.089	28010
817.23	27861
817.371	27838
817.512	28002
817.653	27991
817.793	27797
817.934	28021
818.075	27949
818.216	27873
818.356	27778
818.497	27854
818.638	27656
818.778	27770
818.919	27671
819.06	27762
819.2	27857
819.341	27842
819.481	27816
819.622	28063
819.762	28322
819.903	28158
820.043	28116
820.184	27998
820.324	27968
820.465	28139
820.605	28154
820.746	28124
820.886	27968
821.026	27991
821.167	28002
821.307	28101
821.447	27914
821.588	27751
821.728	27568
821.868	27682
822.008	27488
822.149	27454
822.289	27492
822.429	27108
822.569	27142
822.709	27062
822.849	26975
822.99	26910
823.13	26815
823.27	26868
823.41	26891
823.55	26609
823.69	26735
823.83	26659
823.97	26564
824.11	26575
824.25	26571
824.389	26663
824.529	26686
824.669	26480
824.809	26769
824.949	26549
825.089	26556
825.228	26560
825.368	26442
825.508	26492
825.648	26522
825.787	26511
825.927	26404
826.067	26396
826.206	26492
826.346	26457
826.485	26457
826.625	26507
826.765	26461
826.904	26442
827.044	26453
827.183	26252
827.323	26191
827.462	26294
827.601	26244
827.741	26298
827.88	26077
828.02	26100
828.159	26290
828.298	26328
828.437	26332
828.577	26088
828.716	26142
828.855	25989
828.994	25951
829.134	25833
829.273	25932
829.412	25837
829.551	25860
829.69	25932
829.829	25883
829.968	25909
830.107	25944
830.246	25883
830.385	25780
830.524	25765
830.663	25719
830.802	25620
830.941	25438
831.08	25419
831.219	25571
831.357	25506
831.496	25723
831.635	25415
831.774	25308
831.913	25396
832.051	25263
832.19	25282
832.329	25251
832.467	25099
832.606	24947
832.744	25175
832.883	25198
833.022	25133
833.16	25175
833.299	25133
833.437	25080
833.576	25301
833.714	25141
833.852	25312
833.991	25285
834.129	25274
834.267	25327
834.406	25187
834.544	25335
834.682	25270
834.821	25122
834.959	25415
835.097	25145
835.235	25289
835.373	25160
835.511	25297
835.65	25137
835.788	24989
835.926	24886
836.064	24833
836.202	24897
836.34	25046
836.478	25050
836.615	25023
836.753	25034
836.891	25114
837.029	25004
837.167	24992
837.305	24992
837.443	24897
837.58	24833
837.718	24973
837.856	24783
837.993	24798
838.131	24844
838.269	24757
838.406	24871
838.544	24612
838.681	24486
838.819	24525
838.956	24323
839.094	24391
839.231	24292
839.369	24437
839.506	24776
839.643	24616
839.781	24380
839.918	24258
840.055	24448
840.193	24304
840.33	24224
840.467	24247
840.604	24232
840.742	24448
840.879	24114
841.016	24216
841.153	24072
841.29	24330
841.427	24049
841.564	24247
841.701	24095
841.838	24083
841.975	24285
842.112	24125
842.249	24041
842.385	23999
842.522	24129
842.659	24117
842.796	23954
842.933	24007
843.069	23889
843.206	23961
843.343	24038
843.479	24034
843.616	24011
843.752	23737
843.889	23821
844.025	23920
844.162	23737
844.298	23786
844.435	23779
844.571	23611
844.708	23847
844.844	23821
844.98	23920
845.117	23836
845.253	23722
845.389	23642
845.525	23646
845.661	23737
845.798	23452
845.934	23596
846.07	23509
846.206	23535
846.342	23653
846.478	23455
846.614	23414
846.75	23102
846.886	23189
847.022	23330
847.158	23284
847.294	23227
847.429	23223
847.565	23170
847.701	23448
847.837	22976
847.972	22831
848.108	22987
848.244	23079
848.379	22824
848.515	22767
848.65	22835
848.786	22835
848.921	22778
849.057	22991
849.192	22824
849.328	22911
849.463	22805
849.598	22729
849.734	22679
849.869	22630
850.004	22557
850.14	22645
850.275	22546
850.41	22466
850.545	22603
850.68	22565
850.815	22656
850.95	22573
851.085	22755
851.22	22660
851.355	22596
851.49	22626
851.625	22550
851.76	22470
851.895	22523
852.03	22455
852.165	22596
852.299	22622
852.434	22649
852.569	22580
852.703	22554
852.838	22698
852.973	22626
853.107	22679
853.242	22516
853.376	22428
853.511	22424
853.645	22428
853.78	22531
853.914	22493
854.048	22371
854.183	22447
854.317	22348
854.451	22698
854.585	22436
854.72	22554
854.854	22462
854.988	22318
855.122	22265
855.256	22303
855.39	22535
855.524	22390
855.658	22557
855.792	22500
855.926	22382
856.06	22504
856.194	22504
856.327	22360
856.461	22356
856.595	22375
856.729	22379
856.862	22554
856.996	22500
857.13	22474
857.263	22554
857.397	22462
857.53	22306
857.664	22538
857.797	22462
857.931	22645
858.064	22398
858.197	22641
858.331	22322
858.464	22466
858.597	22409
858.731	22436
858.864	22363
858.997	22322
859.13	22455
859.263	22325
859.396	22569
859.529	22455
859.662	22318
859.795	22249
859.928	22367
860.061	22542
860.194	22519
860.327	22371
860.46	22409
860.592	22599
860.725	22615
860.858	22561
860.99	22455
861.123	22337
861.256	22367
861.388	22455
861.521	23117
861.653	22249
861.786	22120
861.918	22158
862.05	22421
862.183	22322
862.315	22352
862.447	22333
862.58	22299
862.712	22162
862.844	22158
862.976	22086
863.108	22219
863.24	22489
863.372	22131
863.504	22078
863.636	22147
863.768	22196
863.9	22166
864.032	22116
864.164	22177
864.296	22177
864.428	22352
864.559	22158
864.691	22268
864.823	22124
864.954	22162
865.086	22032
865.217	22086
865.349	22017
865.48	22002
865.612	22013
865.743	22120
865.875	21880
866.006	21892
866.137	22082
866.269	22116
866.4	21953
866.531	21987
866.662	21926
866.793	22051
866.924	21880
867.055	21979
867.186	22010
867.317	21930
867.448	21762
867.579	22006
867.71	21869
867.841	21804
867.972	21911
868.103	21972
868.233	21941
868.364	21857
868.495	22086
868.625	22200
868.756	22284
868.886	22112
869.017	22219
869.147	22318
869.278	22402
869.408	22234
869.539	22215
869.669	22246
869.799	22211
869.929	22337
870.06	22234
870.19	22409
870.32	22565
870.45	22584
870.58	22531
870.71	22664
870.84	22816
870.97	22565
871.1	22656
871.23	22774
871.36	22820
871.489	22740
871.619	22767
871.749	22797
871.879	22748
872.008	22797
872.138	22816
872.267	22733
872.397	22710
872.526	22607
872.656	22611
872.785	22630
872.915	22858
873.044	22900
873.173	22729
873.303	22816
873.432	22965
873.561	22987
873.69	22862
873.819	22782
873.948	22797
874.077	22793
874.206	22782
874.335	22847
874.464	22866
874.593	22995
874.722	22987
874.851	22987
874.979	23006
875.108	23022
875.237	22949
875.365	22961
875.494	22980
875.623	23109
875.751	23037
875.88	23105
876.008	23124
876.136	23132
876.265	23376
876.393	23497
876.521	23486
876.65	23459
876.778	23341
876.906	23299
877.034	23265
877.162	23330
877.29	23379
877.418	23288
877.546	23490
877.674	23360
877.802	23322
877.93	23528
878.058	23303
878.185	23212
878.313	23277
878.441	23345
878.568	23159
878.696	23250
878.824	23318
878.951	23474
879.079	23486
879.206	23680
879.333	23547
879.461	23505
879.588	23417
879.715	23448
879.842	23668
879.97	23493
880.097	23155
880.224	23105
880.351	23200
880.478	23155
880.605	23121
880.732	23193
880.859	23376
880.986	23204
881.112	23227
881.239	22911
881.366	22930
881.493	22858
881.619	22740
881.746	22774
881.872	22801
881.999	22759
882.125	22702
882.252	22790
882.378	22725
882.505	22778
882.631	22550
882.757	22405
882.883	22618
883.01	22489
883.136	22443
883.262	22295
883.388	22207
883.514	22390
883.64	22436
883.766	22413
883.892	22196
884.018	22200
884.143	22367
884.269	22367
884.395	22238
884.52	22040
884.646	22002
884.772	22048
884.897	21884
885.023	22036
885.148	22116
885.274	22169
885.399	22090
885.524	21945
885.65	22074
885.775	21960
885.9	22124
886.025	22067
886.15	22169
886.275	22051
886.4	22025
886.525	21922
886.65	21899
886.775	21842
886.9	22139
887.025	22192
887.149	21964
887.274	21930
887.399	21873
887.523	21785
887.648	21629
887.773	21614
887.897	21797
888.021	21857
888.146	21827
888.27	21888
888.395	21808
888.519	21637
888.643	21736
888.767	21865
888.891	21656
889.015	21553
889.139	21641
889.263	21648
889.387	21671
889.511	21865
889.635	21728
889.759	21656
889.883	21583
890.006	21625
890.13	21667
890.254	21542
890.377	21534
890.501	21462
890.624	21241
890.748	21412
890.871	21180
890.995	21100
891.118	21123
891.241	21184
891.364	21180
891.488	21306
891.611	21096
891.734	21287
891.857	21157
891.98	21169
892.103	21188
892.226	21062
892.349	21062
892.471	20948
892.594	21039
892.717	21017
892.839	21009
892.962	21039
893.085	21062
893.207	21093
893.33	20861
893.452	20937
893.575	21036
893.697	20960
893.819	21157
893.941	21317
894.064	21055
894.186	20971
894.308	20948
894.43	21104
894.552	21138
894.674	21001
894.796	20929
894.918	21005
895.04	21028
895.161	21119
895.283	21116
895.405	21051
895.526	21005
895.648	20925
895.769	21028
895.891	20982
896.012	21055
896.134	21112
896.255	21024
896.376	20990
896.498	20933
896.619	20986
896.74	20853
896.861	21070
896.982	21298
897.103	21405
897.224	21264
897.345	21161
897.466	21116
897.587	21104
897.708	21397
897.828	21310
897.949	21096
898.07	21028
898.19	21165
898.311	21249
898.431	21142
898.552	21051
898.672	21237
898.792	21287
898.913	21218
899.033	21169
899.153	20960
899.273	20914
899.393	21009
899.513	20880
899.633	20960
899.753	20944
899.873	20956
899.993	20990
900.113	20914
900.232	20914
900.352	20785
900.472	20838
900.591	20800
900.711	20663
900.83	20644
900.95	20823
901.069	20731
901.189	20613
901.308	20358
901.427	20210
901.546	20252
901.665	20332
901.784	20301
901.904	20020
902.023	20126
902.141	19902
902.26	19906
902.379	19849
902.498	19742
902.617	19830
902.735	19715
902.854	19780
902.973	19677
903.091	19476
903.21	19559
903.328	19354
903.446	19217
903.565	19415
903.683	19240
903.801	19129
903.919	19198
904.038	19240
904.156	18954
904.274	19088
904.392	18878
904.51	18897
904.627	18985
904.745	19046
904.863	19057
904.981	18833
905.098	18726
905.216	18604
905.334	18639
905.451	18669
905.569	18661
905.686	18658
905.803	18635
905.921	18441
906.038	18502
906.155	18563
906.272	18399
906.389	18414
906.506	18270
906.623	18266
906.74	18205
906.857	18022
906.974	17977
907.091	18186
907.208	18330
907.324	18144
907.441	18076
907.557	17916
907.674	17878
907.79	17931
907.907	17889
908.023	17980
908.139	17863
908.256	17980
908.372	17707
908.488	17733
908.604	17627
908.72	17554
908.836	17589
908.952	17665
909.068	17722
909.184	17722
909.3	17589
909.415	17615
909.531	17608
909.647	17349
909.762	17337
909.878	17280
909.993	17376
910.108	17337
910.224	17227
910.339	17254
910.454	17212
910.57	17208
910.685	17136
910.8	17273
910.915	17181
911.03	17113
911.145	17029
911.259	16881
911.374	16892
911.489	16805
911.604	16748
911.718	16645
911.833	16656
911.947	16706
912.062	16474
912.176	16649
912.291	16729
912.405	16672
912.519	16725
912.633	16862
912.748	16656
912.862	16489
912.976	16523
913.09	16333
913.204	16371
913.318	16310
913.431	16474
913.545	16440
913.659	16611
913.772	16413
913.886	16280
914	16226
914.113	16356
914.226	16341
914.34	16322
914.453	16025
914.566	16291
914.68	16147
914.793	16017
914.906	15793
915.019	15762
915.132	15774
915.245	15736
915.358	15793
915.47	15873
915.583	15831
915.696	15838
915.809	15850
915.921	15968
916.034	15804
916.146	15762
916.259	15694
916.371	15770
916.483	15785
916.595	15656
916.708	15667
916.82	15564
916.932	15564
917.044	15572
917.156	15553
917.268	15420
917.38	15447
917.491	15428
917.603	15393
917.715	15549
917.826	15584
917.938	15454
918.049	15199
918.161	15332
918.272	15435
918.384	15500
918.495	15355
918.606	15222
918.717	15135
918.828	15165
918.939	15165
919.05	15017
919.161	15237
919.272	14967
919.383	15005
919.494	15287
919.604	15260
919.715	15256
919.826	15047
919.936	15157
920.047	15249
920.157	15112
920.267	15294
920.378	15127
920.488	15085
920.598	15237
920.708	15393
920.818	15351
920.928	15370
921.038	15393
921.148	15378
921.258	15108
921.368	15032
921.477	14800
921.587	14830
921.697	14750
921.806	14864
921.916	14731
922.025	14507
922.134	14530
922.244	14343
922.353	14488
922.462	14263
922.571	14355
922.68	14161
922.789	14103
922.898	14149
923.007	14092
923.116	14210
923.224	14103
923.333	14065
923.442	14115
923.55	14020
923.659	13955
923.767	14016
923.876	13925
923.984	13955
924.092	13928
924.201	13860
924.309	13883
924.417	13852
924.525	13803
924.633	13712
924.741	14686
924.849	13666
924.956	13620
925.064	13563
925.172	13422
925.279	13502
925.387	13499
925.494	13548
925.602	13605
925.709	13480
925.816	13499
925.924	13525
926.031	13597
926.138	13403
926.245	13407
926.352	13388
926.459	13472
926.566	13449
926.673	13324
926.779	13278
926.886	13244
926.993	13110
927.099	13080
927.206	12954
927.312	12928
927.419	13122
927.525	13015
927.631	13042
927.737	12962
927.843	12863
927.95	12760
928.056	12882
928.162	12859
928.267	12901
928.373	13434
928.479	12928
928.585	12681
928.69	12848
928.796	12916
928.901	12703
929.007	12585
929.112	12741
929.218	12768
929.323	12563
929.428	12559
929.533	12722
929.638	12467
929.743	12498
929.848	12506
929.953	12555
930.058	12429
930.163	12194
930.267	12213
930.372	12384
930.477	12258
930.581	12494
930.685	12289
930.79	12129
930.894	12125
930.998	12041
931.103	12251
931.207	11794
931.311	11798
931.415	11684
931.519	11516
931.623	11444
