Data from test_V78500241_2679.txt Node
Date: Fri Mar 25 16:00:21 CST 2022
User: usil
Spectrometer: V785-0024
Trigger mode: 0
Integration Time (sec): 4.000000E-1
Scans to average: 1
Nonlinearity correction enabled: false
Boxcar width: 0
Storing dark spectrum: false
XAxis mode: Wavelengths
Number of Pixels in Spectrum: 1024
>>>>>Begin Spectral Data<<<<<
801.071	28573
801.214	28790
801.356	28497
801.499	28462
801.641	28360
801.783	28325
801.926	28337
802.068	28257
802.211	28086
802.353	28242
802.496	28036
802.638	28090
802.78	27937
802.923	27934
803.065	27842
803.208	27949
803.35	27998
803.492	28276
803.635	28306
803.777	28124
803.919	28341
804.061	28561
804.204	28367
804.346	28196
804.488	28303
804.63	28116
804.773	28116
804.915	28428
805.057	28421
805.199	28154
805.341	28234
805.483	28440
805.626	28310
805.768	28386
805.91	28261
806.052	28413
806.194	28249
806.336	28554
806.478	28306
806.62	28363
806.762	28542
806.904	28618
807.046	28866
807.188	28854
807.33	28858
807.472	28991
807.614	28793
807.756	28675
807.898	28653
808.04	28634
808.182	28554
808.324	28675
808.465	28828
808.607	29052
808.749	29223
808.891	29178
809.033	29288
809.174	29174
809.316	28835
809.458	29003
809.6	29121
809.741	29041
809.883	29018
810.025	29288
810.166	29402
810.308	29296
810.45	29311
810.591	29277
810.733	29006
810.875	29117
811.016	29075
811.158	28949
811.299	29117
811.441	29124
811.582	29181
811.724	29113
811.865	29022
812.007	29117
812.148	28949
812.29	29208
812.431	29334
812.573	29417
812.714	29531
812.855	29554
812.997	29733
813.138	29893
813.279	29676
813.421	29509
813.562	29528
813.703	29387
813.845	29455
813.986	29109
814.127	28862
814.268	28877
814.41	28782
814.551	28687
814.692	28888
814.833	28577
814.974	28774
815.115	28740
815.256	28561
815.397	28641
815.539	28634
815.68	28535
815.821	28569
815.962	28531
816.103	28455
816.244	28432
816.385	28421
816.526	28306
816.666	28063
816.807	28124
816.948	28128
817.089	28120
817.23	28181
817.371	28105
817.512	28276
817.653	28219
817.793	27979
817.934	28139
818.075	28131
818.216	28048
818.356	28101
818.497	28021
818.638	27941
818.778	27816
818.919	27644
819.06	27937
819.2	28013
819.341	28124
819.481	28109
819.622	28268
819.762	28436
819.903	28360
820.043	28348
820.184	28360
820.324	28253
820.465	28234
820.605	28325
820.746	28192
820.886	28032
821.026	28097
821.167	28143
821.307	28162
821.447	28268
821.588	28021
821.728	27914
821.868	27717
822.008	27595
822.149	27629
822.289	27523
822.429	27203
822.569	27241
822.709	27195
822.849	27165
822.99	26982
823.13	26990
823.27	27047
823.41	26921
823.55	26697
823.69	26887
823.83	26849
823.97	26762
824.11	26925
824.25	26552
824.389	26670
824.529	26895
824.669	26750
824.809	26845
824.949	26849
825.089	26811
825.228	26800
825.368	26575
825.508	26629
825.648	26689
825.787	26518
825.927	26564
826.067	26682
826.206	26583
826.346	26648
826.485	26754
826.625	26564
826.765	26632
826.904	26598
827.044	26412
827.183	26328
827.323	26389
827.462	26419
827.601	26317
827.741	26370
827.88	26309
828.02	26183
828.159	26275
828.298	26252
828.437	26389
828.577	26423
828.716	26381
828.855	26252
828.994	26001
829.134	25963
829.273	26100
829.412	25921
829.551	25868
829.69	26100
829.829	25879
829.968	25982
830.107	26138
830.246	25986
830.385	25970
830.524	25879
830.663	25909
830.802	25719
830.941	25525
831.08	25525
831.219	25670
831.357	25685
831.496	25799
831.635	25693
831.774	25613
831.913	25601
832.051	25316
832.19	25441
832.329	25491
832.467	25324
832.606	25289
832.744	25251
832.883	25228
833.022	25251
833.16	25304
833.299	25244
833.437	25190
833.576	25377
833.714	25312
833.852	25403
833.991	25400
834.129	25426
834.267	25373
834.406	25343
834.544	25301
834.682	25415
834.821	25415
834.959	25567
835.097	25316
835.235	25434
835.373	25392
835.511	25422
835.65	25129
835.788	25160
835.926	25171
836.064	24996
836.202	25031
836.34	25141
836.478	25209
836.615	25213
836.753	25145
836.891	25114
837.029	25251
837.167	25008
837.305	25088
837.443	25000
837.58	24924
837.718	25027
837.856	25012
837.993	24909
838.131	24985
838.269	24871
838.406	24829
838.544	24867
838.681	24616
838.819	24677
838.956	24464
839.094	24315
839.231	24486
839.369	24665
839.506	24776
839.643	24665
839.781	24635
839.918	24422
840.055	24433
840.193	24486
840.33	24479
840.467	24410
840.604	24479
840.742	24753
840.879	24186
841.016	24285
841.153	24285
841.29	24498
841.427	24304
841.564	24399
841.701	24407
841.838	24418
841.975	24357
842.112	24205
842.249	24308
842.385	24072
842.522	24388
842.659	24163
842.796	24159
842.933	24205
843.069	24030
843.206	24140
843.343	24220
843.479	24140
843.616	24186
843.752	23847
843.889	23992
844.025	24045
844.162	23908
844.298	23965
844.435	23878
844.571	23817
844.708	23840
844.844	24034
844.98	23996
845.117	24030
845.253	23794
845.389	23798
845.525	23771
845.661	23741
845.798	23699
845.934	23726
846.07	23608
846.206	23627
846.342	23805
846.478	23687
846.614	23455
846.75	23223
846.886	23204
847.022	23429
847.158	23315
847.294	23395
847.429	23410
847.565	23330
847.701	23611
847.837	23121
847.972	23292
848.108	23193
848.244	23094
848.379	22953
848.515	22881
848.65	22957
848.786	22919
848.921	22965
849.057	22991
849.192	23090
849.328	22976
849.463	23086
849.598	22805
849.734	22790
849.869	22702
850.004	22706
850.14	22778
850.275	22702
850.41	22569
850.545	22538
850.68	22615
850.815	22752
850.95	22660
851.085	22892
851.22	22816
851.355	22786
851.49	22675
851.625	22725
851.76	22683
851.895	22470
852.03	22634
852.165	22672
852.299	22729
852.434	22858
852.569	22717
852.703	22592
852.838	22843
852.973	22740
853.107	22858
853.242	22550
853.376	22603
853.511	22516
853.645	22455
853.78	22592
853.914	22550
854.048	22421
854.183	22580
854.317	22523
854.451	22687
854.585	22561
854.72	22599
854.854	22596
854.988	22481
855.122	22417
855.256	22352
855.39	22459
855.524	22653
855.658	22527
855.792	22500
855.926	22443
856.06	22500
856.194	22694
856.327	22512
856.461	22504
856.595	22322
856.729	22519
856.862	22573
856.996	22432
857.13	22557
857.263	22630
857.397	22523
857.53	22462
857.664	22466
857.797	22466
857.931	22546
858.064	22470
858.197	22637
858.331	22432
858.464	22405
858.597	22421
858.731	22417
858.864	22535
858.997	22459
859.13	22443
859.263	22535
859.396	22668
859.529	22474
859.662	22470
859.795	22527
859.928	22470
860.061	22641
860.194	22713
860.327	22542
860.46	22478
860.592	22615
860.725	22687
860.858	22649
860.99	22474
861.123	22382
861.256	22409
861.388	22474
861.521	23254
861.653	22405
861.786	22306
861.918	22299
862.05	22409
862.183	22565
862.315	22386
862.447	22512
862.58	22508
862.712	22128
862.844	22192
862.976	22333
863.108	22204
863.24	22733
863.372	22181
863.504	22211
863.636	22242
863.768	22200
863.9	22257
864.032	22177
864.164	22181
864.296	22306
864.428	22242
864.559	22230
864.691	22287
864.823	22280
864.954	22230
865.086	22204
865.217	22021
865.349	22112
865.48	22131
865.612	22059
865.743	22238
865.875	22169
866.006	22105
866.137	22013
866.269	22082
866.4	21994
866.531	22002
866.662	22051
866.793	22044
866.924	21895
867.055	22036
867.186	22013
867.317	22131
867.448	21937
867.579	22006
867.71	21937
867.841	21918
867.972	22021
868.103	22013
868.233	22029
868.364	22021
868.495	22105
868.625	22234
868.756	22405
868.886	22246
869.017	22356
869.147	22428
869.278	22447
869.408	22234
869.539	22268
869.669	22219
869.799	22166
869.929	22322
870.06	22402
870.19	22512
870.32	22516
870.45	22622
870.58	22611
870.71	22778
870.84	22774
870.97	22675
871.1	22744
871.23	22759
871.36	22953
871.489	22618
871.619	22801
871.749	22873
871.879	22953
872.008	22927
872.138	22908
872.267	22850
872.397	22740
872.526	22691
872.656	22790
872.785	22641
872.915	22809
873.044	22919
873.173	22991
873.303	22885
873.432	22866
873.561	23048
873.69	22930
873.819	22930
873.948	23083
874.077	22877
874.206	22869
874.335	22790
874.464	23018
874.593	23090
874.722	23048
874.851	23227
874.979	23132
875.108	23105
875.237	23037
875.365	23060
875.494	23109
875.623	23147
875.751	23079
875.88	23086
876.008	23067
876.136	23208
876.265	23512
876.393	23566
876.521	23547
876.65	23482
876.778	23608
876.906	23414
877.034	23391
877.162	23436
877.29	23341
877.418	23391
877.546	23433
877.674	23455
877.802	23436
877.93	23345
878.058	23452
878.185	23402
878.313	23303
878.441	23452
878.568	23284
878.696	23440
878.824	23410
878.951	23509
879.079	23558
879.206	23714
879.333	23528
879.461	23429
879.588	23474
879.715	23543
879.842	23726
879.97	23577
880.097	23334
880.224	23246
880.351	23239
880.478	23368
880.605	23235
880.732	23231
880.859	23395
880.986	23258
881.112	23261
881.239	23117
881.366	22881
881.493	22812
881.619	22831
881.746	22828
881.872	22843
881.999	22729
882.125	22771
882.252	22713
882.378	22736
882.505	22839
882.631	22626
882.757	22531
882.883	22478
883.01	22405
883.136	22455
883.262	22367
883.388	22257
883.514	22421
883.64	22531
883.766	22329
883.892	22219
884.018	22249
884.143	22500
884.269	22527
884.395	22215
884.52	22223
884.646	22109
884.772	22017
884.897	22086
885.023	22211
885.148	22234
885.274	22356
885.399	22177
885.524	22055
885.65	22173
885.775	22086
885.9	22032
886.025	22196
886.15	22211
886.275	22025
886.4	22021
886.525	22055
886.65	22090
886.775	21983
886.9	22219
887.025	22284
887.149	22040
887.274	21998
887.399	21873
887.523	21808
887.648	21793
887.773	21812
887.897	21941
888.021	21835
888.146	21884
888.27	21998
888.395	22021
888.519	21869
888.643	21880
888.767	21888
888.891	21736
889.015	21625
889.139	21759
889.263	21625
889.387	21671
889.511	21884
889.635	21831
889.759	21637
889.883	21580
890.006	21743
890.13	21800
890.254	21549
890.377	21538
890.501	21500
890.624	21564
890.748	21405
890.871	21275
890.995	21256
891.118	21100
891.241	21348
891.364	21245
891.488	21298
891.611	21294
891.734	21321
891.857	21272
891.98	21252
892.103	21173
892.226	21188
892.349	21138
892.471	21024
892.594	21157
892.717	21157
892.839	20998
892.962	21096
893.085	21096
893.207	20967
893.33	20933
893.452	21089
893.575	21188
893.697	21077
893.819	21401
893.941	21389
894.064	21336
894.186	21093
894.308	20933
894.43	21070
894.552	21249
894.674	21184
894.796	20967
894.918	21104
895.04	21070
895.161	21165
895.283	21055
895.405	21096
895.526	21131
895.648	21001
895.769	21226
895.891	21009
896.012	21108
896.134	21131
896.255	21287
896.376	20979
896.498	21055
896.619	21104
896.74	21039
896.861	21180
896.982	21416
897.103	21492
897.224	21272
897.345	21245
897.466	21211
897.587	21291
897.708	21473
897.828	21325
897.949	21199
898.07	21055
898.19	21176
898.311	21393
898.431	21180
898.552	21192
898.672	21310
898.792	21416
898.913	21249
899.033	21207
899.153	21199
899.273	20914
899.393	21070
899.513	20925
899.633	21017
899.753	21039
899.873	20979
899.993	21032
900.113	20979
900.232	20944
900.352	20925
900.472	20823
900.591	20724
900.711	20804
900.83	20773
900.95	20914
901.069	20781
901.189	20644
901.308	20476
901.427	20400
901.546	20400
901.665	20412
901.784	20461
901.904	20187
902.023	20191
902.141	19894
902.26	19830
902.379	19997
902.498	19788
902.617	19875
902.735	19811
902.854	19769
902.973	19693
903.091	19525
903.21	19552
903.328	19556
903.446	19419
903.565	19381
903.683	19270
903.801	19240
903.919	19400
904.038	19221
904.156	19084
904.274	19137
904.392	19042
904.51	19057
904.627	19160
904.745	19141
904.863	19103
904.981	18795
905.098	18707
905.216	18604
905.334	18787
905.451	18844
905.569	18665
905.686	18719
905.803	18677
905.921	18414
906.038	18513
906.155	18437
906.272	18395
906.389	18369
906.506	18178
906.623	18243
906.74	18197
906.857	18095
906.974	18117
907.091	18224
907.208	18353
907.324	18216
907.441	18129
907.557	17939
907.674	17988
907.79	17843
907.907	17897
908.023	18083
908.139	17969
908.256	17920
908.372	17805
908.488	17798
908.604	17672
908.72	17661
908.836	17707
908.952	17672
909.068	17611
909.184	17756
909.3	17611
909.415	17684
909.531	17665
909.647	17429
909.762	17452
909.878	17410
909.993	17474
910.108	17273
910.224	17311
910.339	17421
910.454	17250
910.57	17162
910.685	17086
910.8	17356
910.915	17216
911.03	17151
911.145	16938
911.259	16953
911.374	16809
911.489	16816
911.604	16843
911.718	16611
911.833	16771
911.947	16561
912.062	16489
912.176	16729
912.291	16687
912.405	16592
912.519	17018
912.633	16889
912.748	16626
912.862	16637
912.976	16485
913.09	16379
913.204	16424
913.318	16550
913.431	16706
913.545	16573
913.659	16535
913.772	16470
913.886	16360
914	16303
914.113	16390
914.226	16390
914.34	16344
914.453	16154
914.566	16424
914.68	16192
914.793	16082
914.906	15994
915.019	15857
915.132	15698
915.245	15907
915.358	15934
915.47	15831
915.583	15842
915.696	15930
915.809	15964
915.921	15964
916.034	15827
916.146	15854
916.259	15762
916.371	15888
916.483	15743
916.595	15728
916.708	15698
916.82	15732
916.932	15675
917.044	15675
917.156	15545
917.268	15504
917.38	15500
917.491	15450
917.603	15542
917.715	15523
917.826	15462
917.938	15378
918.049	15287
918.161	15401
918.272	15576
918.384	15492
918.495	15424
918.606	15237
918.717	15150
918.828	15222
918.939	15203
919.05	15100
919.161	15203
919.272	14994
919.383	15047
919.494	15233
919.604	15405
919.715	15302
919.826	15100
919.936	15017
920.047	15264
920.157	15203
920.267	15416
920.378	15199
920.488	15123
920.598	15393
920.708	15382
920.818	15252
920.928	15268
921.038	15564
921.148	15458
921.258	15123
921.368	15146
921.477	14880
921.587	14849
921.697	14765
921.806	14826
921.916	14693
922.025	14636
922.134	14522
922.244	14484
922.353	14549
922.462	14431
922.571	14408
922.68	14183
922.789	14176
922.898	14206
923.007	14012
923.116	14237
923.224	14111
923.333	14164
923.442	14111
923.55	13959
923.659	14050
923.767	14081
923.876	14008
923.984	14024
924.092	13925
924.201	13856
924.309	13818
924.417	13902
924.525	13723
924.633	13837
924.741	14670
924.849	13639
924.956	13670
925.064	13613
925.172	13438
925.279	13578
925.387	13537
925.494	13639
925.602	13700
925.709	13533
925.816	13422
925.924	13506
926.031	13594
926.138	13483
926.245	13563
926.352	13346
926.459	13464
926.566	13567
926.673	13411
926.779	13225
926.886	13316
926.993	13209
927.099	13160
927.206	13084
927.312	13065
927.419	13061
927.525	13103
927.631	13061
927.737	12977
927.843	13050
927.95	12905
928.056	12894
928.162	12875
928.267	13012
928.373	13449
928.479	13019
928.585	12802
928.69	12817
928.796	12859
928.901	12787
929.007	12696
929.112	12703
929.218	12738
929.323	12646
929.428	12620
929.533	12825
929.638	12532
929.743	12547
929.848	12566
929.953	12509
930.058	12429
930.163	12285
930.267	12296
930.372	12353
930.477	12300
930.581	12410
930.685	12300
930.79	12114
930.894	12091
930.998	12197
931.103	12239
931.207	12011
931.311	11874
931.415	11737
931.519	11547
931.623	11562
