Data from test_V78500241_2439.txt Node
Date: Fri Mar 25 15:58:41 CST 2022
User: usil
Spectrometer: V785-0024
Trigger mode: 0
Integration Time (sec): 4.000000E-1
Scans to average: 1
Nonlinearity correction enabled: false
Boxcar width: 0
Storing dark spectrum: false
XAxis mode: Wavelengths
Number of Pixels in Spectrum: 1024
>>>>>Begin Spectral Data<<<<<
801.071	28858
801.214	28843
801.356	28481
801.499	28485
801.641	28417
801.783	28306
801.926	28497
802.068	28478
802.211	28421
802.353	28177
802.496	28192
802.638	28196
802.78	28006
802.923	28021
803.065	28105
803.208	28013
803.35	28105
803.492	28211
803.635	28310
803.777	28219
803.919	28360
804.061	28683
804.204	28268
804.346	28257
804.488	28356
804.63	28337
804.773	28322
804.915	28443
805.057	28443
805.199	28322
805.341	28424
805.483	28622
805.626	28474
805.768	28382
805.91	28421
806.052	28542
806.194	28428
806.336	28664
806.478	28440
806.62	28409
806.762	28538
806.904	28752
807.046	29052
807.188	28965
807.33	28987
807.472	29124
807.614	28930
807.756	29071
807.898	29014
808.04	28786
808.182	28721
808.324	28881
808.465	28888
808.607	29052
808.749	29189
808.891	29311
809.033	29379
809.174	29220
809.316	29280
809.458	29113
809.6	29239
809.741	29368
809.883	29303
810.025	29493
810.166	29570
810.308	29478
810.45	29402
810.591	29265
810.733	29189
810.875	29121
811.016	29178
811.158	29174
811.299	29421
811.441	29524
811.582	29421
811.724	29193
811.865	29273
812.007	29288
812.148	29299
812.29	29379
812.431	29402
812.573	29619
812.714	29745
812.855	29718
812.997	29836
813.138	29958
813.279	29764
813.421	29855
813.562	29672
813.703	29642
813.845	29455
813.986	29280
814.127	29079
814.268	28972
814.41	28957
814.551	28881
814.692	29044
814.833	28923
814.974	28858
815.115	28957
815.256	28873
815.397	28900
815.539	28782
815.68	28630
815.821	28592
815.962	28797
816.103	28809
816.244	28615
816.385	28363
816.526	28455
816.666	28356
816.807	28280
816.948	28356
817.089	28257
817.23	28409
817.371	28261
817.512	28276
817.653	28219
817.793	28082
817.934	28143
818.075	28265
818.216	28234
818.356	28284
818.497	28029
818.638	28017
818.778	27949
818.919	28181
819.06	28109
819.2	28196
819.341	28306
819.481	28333
819.622	28341
819.762	28622
819.903	28519
820.043	28489
820.184	28485
820.324	28413
820.465	28455
820.605	28470
820.746	28390
820.886	28344
821.026	28428
821.167	28379
821.307	28436
821.447	28329
821.588	28226
821.728	28181
821.868	27884
822.008	27774
822.149	27804
822.289	27846
822.429	27542
822.569	27370
822.709	27504
822.849	27386
822.99	27226
823.13	27241
823.27	27138
823.41	27138
823.55	26868
823.69	27203
823.83	27085
823.97	26990
824.11	26834
824.25	26937
824.389	26994
824.529	27062
824.669	26967
824.809	26998
824.949	27028
825.089	27017
825.228	26967
825.368	26796
825.508	26754
825.648	26785
825.787	26948
825.927	26929
826.067	26708
826.206	26785
826.346	26826
826.485	26853
826.625	26724
826.765	26792
826.904	26902
827.044	26678
827.183	26522
827.323	26484
827.462	26575
827.601	26427
827.741	26564
827.88	26465
828.02	26503
828.159	26560
828.298	26552
828.437	26522
828.577	26522
828.716	26564
828.855	26461
828.994	26115
829.134	26183
829.273	26290
829.412	26252
829.551	26225
829.69	26214
829.829	26107
829.968	26183
830.107	26180
830.246	26172
830.385	26134
830.524	26119
830.663	26065
830.802	25875
830.941	25856
831.08	25814
831.219	25833
831.357	25818
831.496	25963
831.635	25856
831.774	25738
831.913	25620
832.051	25571
832.19	25567
832.329	25685
832.467	25521
832.606	25430
832.744	25415
832.883	25510
833.022	25358
833.16	25586
833.299	25525
833.437	25487
833.576	25483
833.714	25594
833.852	25643
833.991	25590
834.129	25567
834.267	25609
834.406	25514
834.544	25666
834.682	25457
834.821	25590
834.959	25734
835.097	25616
835.235	25460
835.373	25571
835.511	25449
835.65	25346
835.788	25419
835.926	25228
836.064	25129
836.202	25141
836.34	25369
836.478	25373
836.615	25316
836.753	25331
836.891	25468
837.029	25312
837.167	25259
837.305	25293
837.443	25282
837.58	25244
837.718	25324
837.856	25148
837.993	25122
838.131	25103
838.269	25084
838.406	24973
838.544	25129
838.681	24882
838.819	24741
838.956	24563
839.094	24696
839.231	24726
839.369	24935
839.506	25069
839.643	24973
839.781	24623
839.918	24532
840.055	24711
840.193	24677
840.33	24616
840.467	24597
840.604	24700
840.742	24642
840.879	24437
841.016	24388
841.153	24429
841.29	24669
841.427	24410
841.564	24601
841.701	24505
841.838	24513
841.975	24566
842.112	24376
842.249	24182
842.385	24330
842.522	24582
842.659	24357
842.796	24270
842.933	24216
843.069	24330
843.206	24369
843.343	24422
843.479	24300
843.616	24330
843.752	24087
843.889	24163
844.025	24273
844.162	24140
844.298	24114
844.435	23931
844.571	23984
844.708	24136
844.844	24243
844.98	24057
845.117	24117
845.253	24030
845.389	23965
845.525	23961
845.661	23969
845.798	23790
845.934	23786
846.07	23680
846.206	23714
846.342	23897
846.478	23703
846.614	23691
846.75	23551
846.886	23486
847.022	23646
847.158	23528
847.294	23478
847.429	23596
847.565	23516
847.701	23680
847.837	23204
847.972	23204
848.108	23280
848.244	23292
848.379	23200
848.515	23181
848.65	23071
848.786	23151
848.921	23113
849.057	23181
849.192	23200
849.328	23136
849.463	23037
849.598	23067
849.734	23018
849.869	22900
850.004	22934
850.14	22908
850.275	22873
850.41	22782
850.545	22847
850.68	22930
850.815	22984
850.95	22793
851.085	22976
851.22	23060
851.355	22965
851.49	22824
851.625	22835
851.76	22930
851.895	22908
852.03	22869
852.165	22873
852.299	22999
852.434	22980
852.569	23033
852.703	22854
852.838	22904
852.973	23044
853.107	23033
853.242	22850
853.376	22744
853.511	22641
853.645	22687
853.78	22820
853.914	22774
854.048	22577
854.183	22683
854.317	22801
854.451	22938
854.585	22713
854.72	22561
854.854	22748
854.988	22599
855.122	22683
855.256	22417
855.39	22675
855.524	22717
855.658	22797
855.792	22721
855.926	22702
856.06	22687
856.194	22748
856.327	22618
856.461	22622
856.595	22706
856.729	22679
856.862	22858
856.996	22675
857.13	22748
857.263	22740
857.397	22812
857.53	22679
857.664	22759
857.797	22790
857.931	22831
858.064	22733
858.197	22805
858.331	22744
858.464	22649
858.597	22580
858.731	22698
858.864	22588
858.997	22611
859.13	22733
859.263	22603
859.396	22831
859.529	22733
859.662	22622
859.795	22691
859.928	22645
860.061	22790
860.194	22820
860.327	22824
860.46	22793
860.592	22752
860.725	22691
860.858	22797
860.99	22831
861.123	22561
861.256	22607
861.388	22592
861.521	23471
861.653	22508
861.786	22611
861.918	22470
862.05	22527
862.183	22615
862.315	22599
862.447	22740
862.58	22554
862.712	22455
862.844	22322
862.976	22554
863.108	22478
863.24	22812
863.372	22398
863.504	22409
863.636	22310
863.768	22447
863.9	22352
864.032	22192
864.164	22363
864.296	22421
864.428	22542
864.559	22424
864.691	22394
864.823	22474
864.954	22417
865.086	22325
865.217	22375
865.349	22223
865.48	22272
865.612	22287
865.743	22470
865.875	22219
866.006	22295
866.137	22413
866.269	22219
866.4	22348
866.531	22131
866.662	22154
866.793	22131
866.924	22173
867.055	22135
867.186	22348
867.317	22143
867.448	22105
867.579	22120
867.71	22082
867.841	22105
867.972	22280
868.103	22154
868.233	22344
868.364	22147
868.495	22265
868.625	22314
868.756	22466
868.886	22432
869.017	22329
869.147	22698
869.278	22413
869.408	22584
869.539	22394
869.669	22421
869.799	22512
869.929	22500
870.06	22584
870.19	22755
870.32	22793
870.45	22793
870.58	22839
870.71	22904
870.84	22953
870.97	22839
871.1	22847
871.23	23029
871.36	23117
871.489	22889
871.619	23006
871.749	23098
871.879	23060
872.008	23003
872.138	23071
872.267	23105
872.397	22816
872.526	22873
872.656	22877
872.785	22919
872.915	23029
873.044	22980
873.173	22892
873.303	23071
873.432	23079
873.561	23227
873.69	23083
873.819	23006
873.948	23162
874.077	22942
874.206	22984
874.335	23067
874.464	23060
874.593	23292
874.722	23235
874.851	23322
874.979	23311
875.108	23197
875.237	23280
875.365	23140
875.494	23284
875.623	23284
875.751	23162
875.88	23315
876.008	23387
876.136	23482
876.265	23680
876.393	23798
876.521	23634
876.65	23737
876.778	23600
876.906	23638
877.034	23577
877.162	23554
877.29	23448
877.418	23589
877.546	23646
877.674	23524
877.802	23528
877.93	23687
878.058	23524
878.185	23501
878.313	23554
878.441	23501
878.568	23391
878.696	23505
878.824	23668
878.951	23718
879.079	23737
879.206	23908
879.333	23729
879.461	23604
879.588	23733
879.715	23707
879.842	23893
879.97	23695
880.097	23455
880.224	23505
880.351	23474
880.478	23364
880.605	23326
880.732	23364
880.859	23478
880.986	23322
881.112	23425
881.239	23307
881.366	23147
881.493	23109
881.619	22839
881.746	23029
881.872	23044
881.999	23014
882.125	22987
882.252	23029
882.378	23014
882.505	23041
882.631	22767
882.757	22729
882.883	22801
883.01	22569
883.136	22626
883.262	22523
883.388	22493
883.514	22660
883.64	22698
883.766	22630
883.892	22379
884.018	22519
884.143	22630
884.269	22702
884.395	22481
884.52	22310
884.646	22341
884.772	22265
884.897	22116
885.023	22265
885.148	22306
885.274	22421
885.399	22462
885.524	22230
885.65	22394
885.775	22188
885.9	22352
886.025	22344
886.15	22413
886.275	22322
886.4	22192
886.525	22337
886.65	22105
886.775	22204
886.9	22421
887.025	22500
887.149	22238
887.274	22059
887.399	22040
887.523	21975
887.648	21964
887.773	21861
887.897	22204
888.021	22032
888.146	22143
888.27	22067
888.395	22036
888.519	22120
888.643	22044
888.767	22070
888.891	22029
889.015	21812
889.139	21922
889.263	21770
889.387	21926
889.511	21994
889.635	22006
889.759	21915
889.883	21789
890.006	21884
890.13	21823
890.254	21808
890.377	21751
890.501	21599
890.624	21576
890.748	21625
890.871	21591
890.995	21443
891.118	21283
891.241	21389
891.364	21344
891.488	21477
891.611	21351
891.734	21382
891.857	21378
891.98	21447
892.103	21397
892.226	21363
892.349	21317
892.471	21256
892.594	21310
892.717	21275
892.839	21382
892.962	21317
893.085	21428
893.207	21218
893.33	21272
893.452	21195
893.575	21184
893.697	21207
893.819	21424
893.941	21397
894.064	21321
894.186	21100
894.308	21146
894.43	21344
894.552	21408
894.674	21321
894.796	21104
894.918	21142
895.04	21313
895.161	21279
895.283	21188
895.405	21157
895.526	21203
895.648	21218
895.769	21146
895.891	21313
896.012	21332
896.134	21245
896.255	21428
896.376	21211
896.498	21112
896.619	21306
896.74	21085
896.861	21306
896.982	21580
897.103	21816
897.224	21496
897.345	21515
897.466	21359
897.587	21408
897.708	21576
897.828	21466
897.949	21283
898.07	21173
898.19	21275
898.311	21488
898.431	21389
898.552	21507
898.672	21458
898.792	21424
898.913	21287
899.033	21336
899.153	21230
899.273	21074
899.393	21199
899.513	21184
899.633	21169
899.753	21195
899.873	21036
899.993	21237
900.113	21161
900.232	21116
900.352	20986
900.472	20998
900.591	20910
900.711	20941
900.83	20952
900.95	20967
901.069	20975
901.189	20701
901.308	20522
901.427	20492
901.546	20450
901.665	20465
901.784	20450
901.904	20317
902.023	20275
902.141	20145
902.26	20008
902.379	19989
902.498	19944
902.617	19871
902.735	20062
902.854	19803
902.973	19947
903.091	19613
903.21	19761
903.328	19510
903.446	19590
903.565	19400
903.683	19472
903.801	19373
903.919	19453
904.038	19426
904.156	19228
904.274	19244
904.392	19179
904.51	19050
904.627	19107
904.745	19335
904.863	19187
904.981	19019
905.098	18886
905.216	18837
905.334	18981
905.451	18996
905.569	18859
905.686	18890
905.803	18867
905.921	18589
906.038	18764
906.155	18540
906.272	18578
906.389	18395
906.506	18376
906.623	18395
906.74	18460
906.857	18296
906.974	18308
907.091	18460
907.208	18566
907.324	18346
907.441	18277
907.557	18106
907.674	18003
907.79	18106
907.907	18144
908.023	18038
908.139	17999
908.256	17996
908.372	17973
908.488	18026
908.604	17821
908.72	17779
908.836	17897
908.952	17748
909.068	17889
909.184	17878
909.3	17710
909.415	17828
909.531	17874
909.647	17570
909.762	17512
909.878	17551
909.993	17459
910.108	17425
910.224	17482
910.339	17360
910.454	17398
910.57	17280
910.685	17292
910.8	17524
910.915	17356
911.03	17303
911.145	17166
911.259	17102
911.374	17071
911.489	16938
911.604	16911
911.718	16778
911.833	16805
911.947	16698
912.062	16607
912.176	16873
912.291	16896
912.405	16740
912.519	16957
912.633	17090
912.748	16847
912.862	16812
912.976	16569
913.09	16451
913.204	16550
913.318	16653
913.431	16634
913.545	16744
913.659	16740
913.772	16653
913.886	16485
914	16459
914.113	16493
914.226	16580
914.34	16485
914.453	16356
914.566	16432
914.68	16314
914.793	16223
914.906	16135
915.019	16032
915.132	16002
915.245	15907
915.358	16010
915.47	16044
915.583	15937
915.696	15934
915.809	16025
915.921	16169
916.034	15930
916.146	15941
916.259	15930
916.371	16002
916.483	15934
916.595	15831
916.708	15717
916.82	15876
916.932	15781
917.044	15766
917.156	15789
917.268	15614
917.38	15717
917.491	15694
917.603	15652
917.715	15648
917.826	15713
917.938	15584
918.049	15428
918.161	15519
918.272	15694
918.384	15633
918.495	15504
918.606	15458
918.717	15260
918.828	15355
918.939	15443
919.05	15306
919.161	15355
919.272	15150
919.383	15279
919.494	15332
919.604	15557
919.715	15264
919.826	15150
919.936	15192
920.047	15283
920.157	15321
920.267	15443
920.378	15329
920.488	15313
920.598	15473
920.708	15572
920.818	15466
920.928	15450
921.038	15599
921.148	15511
921.258	15157
921.368	15192
921.477	15024
921.587	14982
921.697	14830
921.806	15051
921.916	14975
922.025	14731
922.134	14705
922.244	14655
922.353	14727
922.462	14560
922.571	14412
922.68	14336
922.789	14290
922.898	14332
923.007	14298
923.116	14298
923.224	14309
923.333	14214
923.442	14142
923.55	14115
923.659	14142
923.767	14206
923.876	13940
923.984	14229
924.092	14027
924.201	13978
924.309	14031
924.417	13951
924.525	13963
924.633	13982
924.741	14655
924.849	13795
924.956	13830
925.064	13719
925.172	13651
925.279	13620
925.387	13632
925.494	13662
925.602	13772
925.709	13734
925.816	13537
925.924	13670
926.031	13715
926.138	13639
926.245	13655
926.352	13521
926.459	13632
926.566	13605
926.673	13544
926.779	13453
926.886	13422
926.993	13228
927.099	13217
927.206	13095
927.312	13129
927.419	13187
927.525	13232
927.631	13316
927.737	13080
927.843	13031
927.95	12947
928.056	12993
928.162	13050
928.267	13012
928.373	13575
928.479	13126
928.585	12825
928.69	12878
928.796	13042
928.901	12897
929.007	12665
929.112	12962
929.218	12760
929.323	12817
929.428	12650
929.533	12791
929.638	12688
929.743	12597
929.848	12757
929.953	12574
930.058	12528
930.163	12384
930.267	12490
930.372	12544
930.477	12353
930.581	12589
930.685	12292
930.79	12327
930.894	12319
930.998	12224
931.103	12380
931.207	12007
931.311	11942
931.415	11836
931.519	11600
931.623	11577
