Data from test_V78500241_2447.txt Node
Date: Fri Mar 25 15:58:45 CST 2022
User: usil
Spectrometer: V785-0024
Trigger mode: 0
Integration Time (sec): 4.000000E-1
Scans to average: 1
Nonlinearity correction enabled: false
Boxcar width: 0
Storing dark spectrum: false
XAxis mode: Wavelengths
Number of Pixels in Spectrum: 1024
>>>>>Begin Spectral Data<<<<<
801.071	29025
801.214	28759
801.356	28710
801.499	28436
801.641	28455
801.783	28527
801.926	28592
802.068	28413
802.211	28333
802.353	28421
802.496	28291
802.638	28078
802.78	28207
802.923	27987
803.065	28021
803.208	28010
803.35	28105
803.492	28238
803.635	28325
803.777	28280
803.919	28424
804.061	28637
804.204	28451
804.346	28348
804.488	28325
804.63	28363
804.773	28341
804.915	28405
805.057	28508
805.199	28443
805.341	28535
805.483	28622
805.626	28542
805.768	28367
805.91	28569
806.052	28557
806.194	28554
806.336	28725
806.478	28592
806.62	28599
806.762	28752
806.904	28835
807.046	29022
807.188	29025
807.33	28972
807.472	29003
807.614	28942
807.756	29079
807.898	28763
808.04	28824
808.182	28786
808.324	29025
808.465	28888
808.607	29132
808.749	29166
808.891	29345
809.033	29372
809.174	29444
809.316	29269
809.458	29223
809.6	29288
809.741	29402
809.883	29341
810.025	29585
810.166	29505
810.308	29524
810.45	29505
810.591	29364
810.733	29414
810.875	29315
811.016	29242
811.158	29132
811.299	29368
811.441	29482
811.582	29425
811.724	29159
811.865	29124
812.007	29216
812.148	29185
812.29	29311
812.431	29467
812.573	29596
812.714	29855
812.855	29646
812.997	29859
813.138	30083
813.279	29980
813.421	29794
813.562	29687
813.703	29551
813.845	29406
813.986	29235
814.127	29056
814.268	29044
814.41	28961
814.551	29083
814.692	29018
814.833	28942
814.974	28797
815.115	28999
815.256	28786
815.397	28965
815.539	28976
815.68	28759
815.821	28748
815.962	28805
816.103	28725
816.244	28687
816.385	28580
816.526	28531
816.666	28356
816.807	28268
816.948	28367
817.089	28424
817.23	28462
817.371	28329
817.512	28287
817.653	28333
817.793	28188
817.934	28287
818.075	28268
818.216	28325
818.356	28215
818.497	28150
818.638	28029
818.778	28124
818.919	28143
819.06	28211
819.2	28192
819.341	28268
819.481	28333
819.622	28401
819.762	28622
819.903	28485
820.043	28596
820.184	28421
820.324	28538
820.465	28485
820.605	28542
820.746	28341
820.886	28329
821.026	28447
821.167	28238
821.307	28519
821.447	28542
821.588	28261
821.728	28112
821.868	27941
822.008	27838
822.149	27835
822.289	27713
822.429	27595
822.569	27431
822.709	27389
822.849	27241
822.99	27241
823.13	27252
823.27	27085
823.41	27047
823.55	27047
823.69	27157
823.83	27055
823.97	27100
824.11	26758
824.25	26929
824.389	27001
824.529	27089
824.669	26937
824.809	26982
824.949	26883
825.089	27051
825.228	27104
825.368	26693
825.508	26849
825.648	26788
825.787	26868
825.927	26914
826.067	26876
826.206	26769
826.346	26804
826.485	26731
826.625	26838
826.765	26857
826.904	26910
827.044	26609
827.183	26621
827.323	26568
827.462	26617
827.601	26552
827.741	26366
827.88	26442
828.02	26347
828.159	26556
828.298	26583
828.437	26594
828.577	26434
828.716	26651
828.855	26412
828.994	26183
829.134	26081
829.273	26301
829.412	26187
829.551	26084
829.69	26199
829.829	26202
829.968	26324
830.107	26218
830.246	26263
830.385	26183
830.524	26039
830.663	25970
830.802	25799
830.941	25860
831.08	25871
831.219	25807
831.357	25925
831.496	26122
831.635	25772
831.774	25757
831.913	25753
832.051	25674
832.19	25441
832.329	25575
832.467	25438
832.606	25441
832.744	25335
832.883	25392
833.022	25403
833.16	25567
833.299	25567
833.437	25578
833.576	25605
833.714	25537
833.852	25674
833.991	25681
834.129	25635
834.267	25571
834.406	25567
834.544	25605
834.682	25552
834.821	25575
834.959	25670
835.097	25521
835.235	25757
835.373	25613
835.511	25559
835.65	25384
835.788	25457
835.926	25377
836.064	25183
836.202	25118
836.34	25373
836.478	25476
836.615	25282
836.753	25453
836.891	25457
837.029	25350
837.167	25198
837.305	25221
837.443	25232
837.58	25259
837.718	25259
837.856	25179
837.993	25148
838.131	25263
838.269	25012
838.406	25050
838.544	24943
838.681	24776
838.819	24852
838.956	24707
839.094	24703
839.231	24730
839.369	24821
839.506	25004
839.643	24802
839.781	24616
839.918	24578
840.055	24696
840.193	24700
840.33	24639
840.467	24570
840.604	24631
840.742	24878
840.879	24494
841.016	24505
841.153	24456
841.29	24646
841.427	24467
841.564	24646
841.701	24593
841.838	24536
841.975	24471
842.112	24517
842.249	24315
842.385	24262
842.522	24521
842.659	24239
842.796	24228
842.933	24437
843.069	24319
843.206	24292
843.343	24194
843.479	24304
843.616	24464
843.752	24110
843.889	24117
844.025	24171
844.162	24163
844.298	24117
844.435	24110
844.571	24133
844.708	24083
844.844	24144
844.98	24270
845.117	24171
845.253	24049
845.389	23920
845.525	24026
845.661	23908
845.798	23824
845.934	23904
846.07	23745
846.206	23786
846.342	23973
846.478	23634
846.614	23608
846.75	23493
846.886	23433
847.022	23657
847.158	23497
847.294	23551
847.429	23646
847.565	23520
847.701	23699
847.837	23322
847.972	23326
848.108	23425
848.244	23288
848.379	23242
848.515	23143
848.65	23231
848.786	23056
848.921	23109
849.057	23204
849.192	23315
849.328	23105
849.463	23181
849.598	23094
849.734	22991
849.869	22953
850.004	22911
850.14	23010
850.275	22831
850.41	22679
850.545	22854
850.68	22854
850.815	22892
850.95	22892
851.085	23022
851.22	22999
851.355	23006
851.49	22866
851.625	22938
851.76	22892
851.895	22774
852.03	22934
852.165	22824
852.299	22953
852.434	22953
852.569	22866
852.703	22930
852.838	22801
852.973	23022
853.107	22984
853.242	22831
853.376	22664
853.511	22588
853.645	22729
853.78	22889
853.914	22797
854.048	22573
854.183	22694
854.317	22809
854.451	22938
854.585	22759
854.72	22698
854.854	22828
854.988	22649
855.122	22767
855.256	22748
855.39	22626
855.524	22698
855.658	22801
855.792	22694
855.926	22736
856.06	22725
856.194	22881
856.327	22649
856.461	22542
856.595	22694
856.729	22782
856.862	22847
856.996	22615
857.13	22729
857.263	22854
857.397	22736
857.53	22611
857.664	22725
857.797	22850
857.931	22923
858.064	22767
858.197	22850
858.331	22748
858.464	22649
858.597	22637
858.731	22672
858.864	22683
858.997	22675
859.13	22759
859.263	22797
859.396	22869
859.529	22599
859.662	22653
859.795	22630
859.928	22622
860.061	22854
860.194	22873
860.327	22786
860.46	22653
860.592	22797
860.725	22869
860.858	22877
860.99	22721
861.123	22622
861.256	22634
861.388	22717
861.521	23417
861.653	22622
861.786	22569
861.918	22535
862.05	22500
862.183	22603
862.315	22554
862.447	22668
862.58	22687
862.712	22386
862.844	22261
862.976	22497
863.108	22451
863.24	22763
863.372	22424
863.504	22455
863.636	22409
863.768	22295
863.9	22356
864.032	22306
864.164	22405
864.296	22478
864.428	22474
864.559	22508
864.691	22451
864.823	22466
864.954	22322
865.086	22436
865.217	22344
865.349	22249
865.48	22390
865.612	22310
865.743	22474
865.875	22341
866.006	22249
866.137	22242
866.269	22257
866.4	22314
866.531	22185
866.662	22238
866.793	22188
866.924	22116
867.055	22234
867.186	22200
867.317	22166
867.448	22048
867.579	22230
867.71	22097
867.841	22169
867.972	22185
868.103	22128
868.233	22249
868.364	22215
868.495	22428
868.625	22424
868.756	22546
868.886	22299
869.017	22363
869.147	22645
869.278	22504
869.408	22504
869.539	22417
869.669	22455
869.799	22409
869.929	22615
870.06	22508
870.19	22660
870.32	22771
870.45	22759
870.58	22896
870.71	22987
870.84	22927
870.97	22812
871.1	22858
871.23	22965
871.36	23067
871.489	23052
871.619	23033
871.749	23067
871.879	23166
872.008	23109
872.138	23064
872.267	23166
872.397	23003
872.526	22892
872.656	22820
872.785	22873
872.915	23132
873.044	22999
873.173	23064
873.303	23064
873.432	23121
873.561	23098
873.69	23056
873.819	23029
873.948	23189
874.077	23041
874.206	23075
874.335	23056
874.464	23075
874.593	23341
874.722	23421
874.851	23337
874.979	23356
875.108	23318
875.237	23284
875.365	23132
875.494	23239
875.623	23421
875.751	23216
875.88	23330
876.008	23303
876.136	23474
876.265	23668
876.393	23805
876.521	23718
876.65	23752
876.778	23680
876.906	23619
877.034	23547
877.162	23707
877.29	23474
877.418	23585
877.546	23592
877.674	23566
877.802	23493
877.93	23505
878.058	23543
878.185	23551
878.313	23577
878.441	23600
878.568	23543
878.696	23497
878.824	23726
878.951	23642
879.079	23813
879.206	23752
879.333	23745
879.461	23680
879.588	23676
879.715	23802
879.842	24057
879.97	23657
880.097	23433
880.224	23444
880.351	23512
880.478	23436
880.605	23440
880.732	23493
880.859	23714
880.986	23493
881.112	23421
881.239	23387
881.366	23102
881.493	23071
881.619	22995
881.746	23037
881.872	23010
881.999	22953
882.125	22866
882.252	23010
882.378	22968
882.505	23246
882.631	22672
882.757	22767
882.883	22740
883.01	22793
883.136	22740
883.262	22580
883.388	22565
883.514	22721
883.64	22675
883.766	22516
883.892	22489
884.018	22493
884.143	22626
884.269	22618
884.395	22299
884.52	22261
884.646	22291
884.772	22234
884.897	22204
885.023	22344
885.148	22314
885.274	22459
885.399	22329
885.524	22272
885.65	22413
885.775	22238
885.9	22295
886.025	22531
886.15	22295
886.275	22158
886.4	22246
886.525	22299
886.65	22169
886.775	22124
886.9	22352
887.025	22470
887.149	22207
887.274	22055
887.399	22029
887.523	22055
887.648	21949
887.773	21972
887.897	21998
888.021	22013
888.146	22029
888.27	22143
888.395	22185
888.519	22048
888.643	22086
888.767	22029
888.891	21956
889.015	21789
889.139	21854
889.263	21812
889.387	21991
889.511	21930
889.635	21983
889.759	21823
889.883	21842
890.006	21827
890.13	21949
890.254	21785
890.377	21808
890.501	21587
890.624	21466
890.748	21599
890.871	21405
890.995	21302
891.118	21279
891.241	21416
891.364	21424
891.488	21576
891.611	21408
891.734	21382
891.857	21450
891.98	21317
892.103	21549
892.226	21405
892.349	21439
892.471	21036
892.594	21233
892.717	21382
892.839	21245
892.962	21306
893.085	21382
893.207	21291
893.33	21195
893.452	21313
893.575	21332
893.697	21336
893.819	21450
893.941	21450
894.064	21412
894.186	21279
894.308	21252
894.43	21492
894.552	21389
894.674	21348
894.796	21081
894.918	21165
895.04	21268
895.161	21298
895.283	21081
895.405	21127
895.526	21272
895.648	21237
895.769	21336
895.891	21207
896.012	21173
896.134	21294
896.255	21135
896.376	21184
896.498	21317
896.619	21325
896.74	21245
896.861	21245
896.982	21534
897.103	21644
897.224	21519
897.345	21412
897.466	21351
897.587	21450
897.708	21519
897.828	21526
897.949	21496
898.07	21298
898.19	21382
898.311	21507
898.431	21317
898.552	21378
898.672	21504
898.792	21462
898.913	21454
899.033	21329
899.153	21260
899.273	21081
899.393	21199
899.513	21272
899.633	21176
899.753	21188
899.873	21161
899.993	21214
900.113	21036
900.232	21275
900.352	21032
900.472	21024
900.591	20975
900.711	20960
900.83	20861
900.95	21043
901.069	21005
901.189	20788
901.308	20450
901.427	20476
901.546	20514
901.665	20640
901.784	20522
901.904	20480
902.023	20347
902.141	20100
902.26	20062
902.379	20031
902.498	19997
902.617	19898
902.735	20092
902.854	19989
902.973	19765
903.091	19632
903.21	19685
903.328	19731
903.446	19575
903.565	19384
903.683	19597
903.801	19324
903.919	19373
904.038	19449
904.156	19232
904.274	19274
904.392	19308
904.51	19137
904.627	19187
904.745	19263
904.863	19320
904.981	18996
905.098	18916
905.216	18920
905.334	18947
905.451	18966
905.569	18840
905.686	18890
905.803	18890
905.921	18654
906.038	18814
906.155	18696
906.272	18578
906.389	18517
906.506	18369
906.623	18376
906.74	18308
906.857	18334
906.974	18319
907.091	18372
907.208	18407
907.324	18388
907.441	18258
907.557	18045
907.674	18117
907.79	18026
907.907	18106
908.023	18026
908.139	18083
908.256	18057
908.372	18121
908.488	17878
908.604	17840
908.72	17866
908.836	17737
908.952	17836
909.068	17836
909.184	17901
909.3	17836
909.415	17722
909.531	17802
909.647	17554
909.762	17478
909.878	17467
909.993	17509
910.108	17501
910.224	17402
910.339	17482
910.454	17269
910.57	17318
910.685	17269
910.8	17589
910.915	17463
911.03	17273
911.145	17098
911.259	17140
911.374	17136
911.489	17029
911.604	16999
911.718	16809
911.833	16987
911.947	16713
912.062	16607
912.176	16828
912.291	16801
912.405	16831
912.519	17052
912.633	16991
912.748	16778
912.862	16824
912.976	16736
913.09	16527
913.204	16550
913.318	16645
913.431	16763
913.545	16687
913.659	16691
913.772	16504
913.886	16489
914	16489
914.113	16402
914.226	16504
914.34	16428
914.453	16314
914.566	16394
914.68	16234
914.793	16291
914.906	16071
915.019	16067
915.132	15964
915.245	15953
915.358	15994
915.47	15968
915.583	16063
915.696	16013
915.809	16097
915.921	16071
916.034	15899
916.146	15895
916.259	15892
916.371	15964
916.483	15968
916.595	15880
916.708	15816
916.82	15766
916.932	15717
917.044	15724
917.156	15713
917.268	15622
917.38	15743
917.491	15622
917.603	15625
917.715	15652
917.826	15682
917.938	15568
918.049	15462
918.161	15534
918.272	15694
918.384	15675
918.495	15538
918.606	15412
918.717	15317
918.828	15412
918.939	15439
919.05	15207
919.161	15332
919.272	15093
919.383	15226
919.494	15485
919.604	15561
919.715	15298
919.826	15161
919.936	15272
920.047	15439
920.157	15241
920.267	15526
920.378	15321
920.488	15313
920.598	15485
920.708	15637
920.818	15325
920.928	15462
921.038	15530
921.148	15515
921.258	15173
921.368	15150
921.477	15028
921.587	14982
921.697	15024
921.806	14986
921.916	14849
922.025	14746
922.134	14697
922.244	14511
922.353	14617
922.462	14590
922.571	14343
922.68	14385
922.789	14263
922.898	14343
923.007	14195
923.116	14320
923.224	14248
923.333	14244
923.442	14191
923.55	14081
923.659	14237
923.767	14195
923.876	13986
923.984	14145
924.092	13970
924.201	13860
924.309	14024
924.417	14001
924.525	13989
924.633	13909
924.741	14754
924.849	13826
924.956	13879
925.064	13685
925.172	13643
925.279	13632
925.387	13677
925.494	13586
925.602	13807
925.709	13628
925.816	13605
925.924	13586
926.031	13677
926.138	13651
926.245	13616
926.352	13556
926.459	13700
926.566	13681
926.673	13506
926.779	13430
926.886	13544
926.993	13202
927.099	13149
927.206	13171
927.312	13152
927.419	13274
927.525	13187
927.631	13198
927.737	13107
927.843	13034
927.95	12924
928.056	13034
928.162	12962
928.267	13072
928.373	13807
928.479	13129
928.585	12901
928.69	12928
928.796	13019
928.901	12852
929.007	12654
929.112	12859
929.218	12741
929.323	12840
929.428	12703
929.533	12894
929.638	12684
929.743	12692
929.848	12669
929.953	12726
930.058	12540
930.163	12452
930.267	12494
930.372	12563
930.477	12437
930.581	12578
930.685	12532
930.79	12254
930.894	12376
930.998	12213
931.103	12338
931.207	12038
931.311	11901
931.415	11908
931.519	11657
931.623	11596
