Data from test_V78500241_386.txt Node
Date: Fri Mar 25 15:44:28 CST 2022
User: usil
Spectrometer: V785-0024
Trigger mode: 0
Integration Time (sec): 4.000000E-1
Scans to average: 1
Nonlinearity correction enabled: false
Boxcar width: 0
Storing dark spectrum: false
XAxis mode: Wavelengths
Number of Pixels in Spectrum: 1024
>>>>>Begin Spectral Data<<<<<
801.071	29200
801.214	29155
801.356	28919
801.499	28858
801.641	28778
801.783	28900
801.926	28816
802.068	28687
802.211	28653
802.353	28637
802.496	28413
802.638	28554
802.78	28337
802.923	28295
803.065	28299
803.208	28409
803.35	28352
803.492	28432
803.635	28489
803.777	28360
803.919	28554
804.061	28968
804.204	28519
804.346	28550
804.488	28615
804.63	28744
804.773	28280
804.915	28443
805.057	28668
805.199	28626
805.341	28611
805.483	28778
805.626	28687
805.768	28557
805.91	28778
806.052	28733
806.194	28717
806.336	28900
806.478	28763
806.62	28717
806.762	28843
806.904	29060
807.046	29273
807.188	29166
807.33	29170
807.472	29242
807.614	29064
807.756	28965
807.898	28866
808.04	28831
808.182	28927
808.324	28930
808.465	29071
808.607	29231
808.749	29322
808.891	29547
809.033	29596
809.174	29277
809.316	29444
809.458	29452
809.6	29311
809.741	29414
809.883	29334
810.025	29642
810.166	29619
810.308	29676
810.45	29729
810.591	29646
810.733	29379
810.875	29318
811.016	29204
811.158	29372
811.299	29516
811.441	29353
811.582	29353
811.724	29425
811.865	29303
812.007	29330
812.148	29299
812.29	29452
812.431	29421
812.573	29661
812.714	29741
812.855	29885
812.997	29897
813.138	30038
813.279	29942
813.421	29942
813.562	29733
813.703	29615
813.845	29516
813.986	29189
814.127	29079
814.268	28991
814.41	28927
814.551	29041
814.692	28980
814.833	28755
814.974	29090
815.115	28881
815.256	28786
815.397	28771
815.539	28843
815.68	28698
815.821	28725
815.962	28698
816.103	28797
816.244	28561
816.385	28523
816.526	28470
816.666	28379
816.807	28192
816.948	28181
817.089	28268
817.23	28352
817.371	28230
817.512	28242
817.653	28188
817.793	28200
817.934	28188
818.075	28128
818.216	28051
818.356	28097
818.497	28169
818.638	28055
818.778	27865
818.919	27819
819.06	27994
819.2	28097
819.341	28211
819.481	28166
819.622	28295
819.762	28550
819.903	28478
820.043	28443
820.184	28287
820.324	28276
820.465	28401
820.605	28299
820.746	28371
820.886	28128
821.026	28344
821.167	28257
821.307	28253
821.447	28135
821.588	28131
821.728	27956
821.868	27835
822.008	27583
822.149	27663
822.289	27603
822.429	27477
822.569	27245
822.709	27207
822.849	27104
822.99	27173
823.13	26960
823.27	27005
823.41	26864
823.55	26796
823.69	26887
823.83	26864
823.97	26876
824.11	26727
824.25	26720
824.389	26811
824.529	26918
824.669	26785
824.809	26838
824.949	26853
825.089	26765
825.228	26815
825.368	26564
825.508	26503
825.648	26396
825.787	26697
825.927	26537
826.067	26564
826.206	26606
826.346	26488
826.485	26575
826.625	26366
826.765	26682
826.904	26518
827.044	26347
827.183	26332
827.323	26168
827.462	26332
827.601	26370
827.741	26298
827.88	26313
828.02	26145
828.159	26103
828.298	26252
828.437	26301
828.577	26237
828.716	26362
828.855	26229
828.994	25906
829.134	25868
829.273	25856
829.412	25955
829.551	25883
829.69	25871
829.829	25986
829.968	25959
830.107	25947
830.246	25898
830.385	25772
830.524	25818
830.663	25750
830.802	25563
830.941	25514
831.08	25441
831.219	25514
831.357	25457
831.496	25700
831.635	25613
831.774	25476
831.913	25289
832.051	25278
832.19	25244
832.329	25358
832.467	25221
832.606	25232
832.744	25183
832.883	25118
833.022	25042
833.16	25034
833.299	25156
833.437	25129
833.576	25217
833.714	25160
833.852	25240
833.991	25198
834.129	25293
834.267	25152
834.406	25129
834.544	25053
834.682	25213
834.821	25042
834.959	25419
835.097	25107
835.235	25289
835.373	25171
835.511	25103
835.65	24901
835.788	25046
835.926	24810
836.064	24867
836.202	24833
836.34	24947
836.478	25023
836.615	24958
836.753	24970
836.891	25095
837.029	24973
837.167	24829
837.305	24840
837.443	24905
837.58	24821
837.718	24856
837.856	24901
837.993	24795
838.131	24928
838.269	24707
838.406	24650
838.544	24639
838.681	24376
838.819	24426
838.956	24342
839.094	24308
839.231	24426
839.369	24380
839.506	24521
839.643	24437
839.781	24228
839.918	24205
840.055	24171
840.193	24205
840.33	24064
840.467	24117
840.604	24163
840.742	24460
840.879	24018
841.016	24171
841.153	24087
841.29	24197
841.427	24098
841.564	24152
841.701	24018
841.838	24190
841.975	24034
842.112	24072
842.249	23939
842.385	23901
842.522	24209
842.659	23920
842.796	23859
842.933	23840
843.069	23714
843.206	23798
843.343	23802
843.479	23695
843.616	23904
843.752	23589
843.889	23604
844.025	23680
844.162	23501
844.298	23714
844.435	23657
844.571	23512
844.708	23566
844.844	23767
844.98	23714
845.117	23703
845.253	23512
845.389	23330
845.525	23463
845.661	23444
845.798	23318
845.934	23265
846.07	23109
846.206	23391
846.342	23425
846.478	23170
846.614	23170
846.75	23052
846.886	22995
847.022	23079
847.158	23064
847.294	22999
847.429	22976
847.565	22919
847.701	23140
847.837	22786
847.972	22691
848.108	22953
848.244	22801
848.379	22641
848.515	22630
848.65	22538
848.786	22596
848.921	22599
849.057	22721
849.192	22729
849.328	22717
849.463	22531
849.598	22459
849.734	22367
849.869	22318
850.004	22371
850.14	22295
850.275	22310
850.41	22314
850.545	22409
850.68	22211
850.815	22329
850.95	22181
851.085	22474
851.22	22474
851.355	22268
851.49	22375
851.625	22402
851.76	22287
851.895	22120
852.03	22268
852.165	22360
852.299	22265
852.434	22257
852.569	22268
852.703	22413
852.838	22402
852.973	22402
853.107	22542
853.242	22276
853.376	22055
853.511	22059
853.645	22188
853.78	22154
853.914	22074
854.048	22177
854.183	22139
854.317	22116
854.451	22341
854.585	22090
854.72	22040
854.854	22093
854.988	21934
855.122	22032
855.256	21876
855.39	22002
855.524	22192
855.658	22150
855.792	22169
855.926	22238
856.06	22109
856.194	22215
856.327	22139
856.461	22086
856.595	22105
856.729	22154
856.862	22215
856.996	22261
857.13	22150
857.263	22063
857.397	22139
857.53	22067
857.664	22200
857.797	22002
857.931	22158
858.064	22131
858.197	22284
858.331	22128
858.464	21911
858.597	21983
858.731	21953
858.864	22040
858.997	22147
859.13	21918
859.263	22044
859.396	22234
859.529	22078
859.662	21979
859.795	22021
859.928	22074
860.061	22226
860.194	22257
860.327	22139
860.46	22040
860.592	22314
860.725	22090
860.858	22124
860.99	22010
861.123	21991
861.256	21930
861.388	22112
861.521	22755
861.653	22002
861.786	21880
861.918	21937
862.05	21972
862.183	22006
862.315	22074
862.447	22181
862.58	21994
862.712	21854
862.844	21747
862.976	21842
863.108	22021
863.24	22356
863.372	21720
863.504	21762
863.636	21694
863.768	21713
863.9	21835
864.032	21743
864.164	21732
864.296	21945
864.428	21876
864.559	21812
864.691	22029
864.823	21724
864.954	21808
865.086	21743
865.217	21751
865.349	21526
865.48	21747
865.612	21660
865.743	21770
865.875	21713
866.006	21599
866.137	21694
866.269	21671
866.4	21648
866.531	21641
866.662	21629
866.793	21713
866.924	21633
867.055	21492
867.186	21526
867.317	21496
867.448	21504
867.579	21637
867.71	21488
867.841	21549
867.972	21496
868.103	21469
868.233	21614
868.364	21572
868.495	21660
868.625	21857
868.756	21960
868.886	21762
869.017	21835
869.147	22029
869.278	21915
869.408	21724
869.539	21762
869.669	21949
869.799	21739
869.929	21930
870.06	21994
870.19	22112
870.32	22162
870.45	22215
870.58	22242
870.71	22310
870.84	22223
870.97	22219
871.1	22211
871.23	22341
871.36	22360
871.489	22280
871.619	22424
871.749	22405
871.879	22375
872.008	22508
872.138	22333
872.267	22386
872.397	22318
872.526	22223
872.656	22238
872.785	22223
872.915	22375
873.044	22584
873.173	22363
873.303	22531
873.432	22443
873.561	22527
873.69	22470
873.819	22382
873.948	22531
874.077	22398
874.206	22344
874.335	22421
874.464	22561
874.593	22649
874.722	22596
874.851	22615
874.979	22653
875.108	22744
875.237	22675
875.365	22535
875.494	22710
875.623	22725
875.751	22637
875.88	22660
876.008	22664
876.136	22801
876.265	23006
876.393	23216
876.521	23109
876.65	23075
876.778	22980
876.906	23056
877.034	22911
877.162	23025
877.29	23018
877.418	23041
877.546	23022
877.674	22915
877.802	22938
877.93	22999
878.058	22980
878.185	22968
878.313	22953
878.441	23010
878.568	22755
878.696	22904
878.824	22942
878.951	23124
879.079	23136
879.206	23208
879.333	23223
879.461	22976
879.588	23064
879.715	23197
879.842	23277
879.97	23181
880.097	22942
880.224	22900
880.351	22805
880.478	22866
880.605	22733
880.732	22850
880.859	23113
880.986	22790
881.112	22801
881.239	22679
881.366	22424
881.493	22557
881.619	22512
881.746	22409
881.872	22352
881.999	22348
882.125	22261
882.252	22500
882.378	22306
882.505	22531
882.631	22265
882.757	22051
882.883	22188
883.01	22029
883.136	22025
883.262	21964
883.388	21869
883.514	21994
883.64	22135
883.766	22105
883.892	21804
884.018	21838
884.143	21972
884.269	22192
884.395	21762
884.52	21671
884.646	21701
884.772	21603
884.897	21542
885.023	21644
885.148	21991
885.274	21880
885.399	21713
885.524	21671
885.65	21709
885.775	21690
885.9	21728
886.025	21823
886.15	21812
886.275	21557
886.4	21629
886.525	21633
886.65	21622
886.775	21739
886.9	21747
887.025	21911
887.149	21762
887.274	21473
887.399	21488
887.523	21454
887.648	21424
887.773	21287
887.897	21511
888.021	21538
888.146	21416
888.27	21500
888.395	21652
888.519	21534
888.643	21447
888.767	21534
888.891	21363
889.015	21173
889.139	21370
889.263	21252
889.387	21393
889.511	21469
889.635	21329
889.759	21211
889.883	21336
890.006	21214
890.13	21249
890.254	21135
890.377	21199
890.501	21005
890.624	20944
890.748	20967
890.871	21017
890.995	20800
891.118	20876
891.241	20960
891.364	20906
891.488	20975
891.611	20746
891.734	20845
891.857	20845
891.98	20788
892.103	20921
892.226	20796
892.349	20845
892.471	20689
892.594	20716
892.717	20636
892.839	20716
892.962	20754
893.085	20750
893.207	20667
893.33	20617
893.452	20602
893.575	20788
893.697	20765
893.819	20948
893.941	20925
894.064	20887
894.186	20613
894.308	20644
894.43	20792
894.552	20887
894.674	20849
894.796	20716
894.918	20712
895.04	20731
895.161	20762
895.283	20667
895.405	20602
895.526	20708
895.648	20705
895.769	20758
895.891	20823
896.012	20842
896.134	20731
896.255	20769
896.376	20750
896.498	20781
896.619	20777
896.74	20880
896.861	20899
896.982	20979
897.103	21165
897.224	21005
897.345	21085
897.466	20956
897.587	20994
897.708	20986
897.828	20960
897.949	20914
898.07	20720
898.19	20819
898.311	21062
898.431	20998
898.552	20899
898.672	20944
898.792	20944
898.913	20868
899.033	20731
899.153	20804
899.273	20609
899.393	20609
899.513	20689
899.633	20659
899.753	20659
899.873	20579
899.993	20579
900.113	20636
900.232	20617
900.352	20473
900.472	20480
900.591	20351
900.711	20423
900.83	20427
900.95	20488
901.069	20533
901.189	20320
901.308	20035
901.427	20081
901.546	20100
901.665	20035
901.784	19997
901.904	19890
902.023	19689
902.141	19571
902.26	19582
902.379	19502
902.498	19537
902.617	19480
902.735	19563
902.854	19499
902.973	19441
903.091	19175
903.21	19225
903.328	19206
903.446	19088
903.565	19042
903.683	18924
903.801	18806
903.919	19019
904.038	18806
904.156	18795
904.274	18840
904.392	18684
904.51	18741
904.627	18715
904.745	18753
904.863	18878
904.981	18528
905.098	18437
905.216	18213
905.334	18391
905.451	18479
905.569	18281
905.686	18327
905.803	18380
905.921	18178
906.038	18300
906.155	18311
906.272	18106
906.389	18057
906.506	17912
906.623	17969
906.74	18087
906.857	17775
906.974	17843
907.091	17931
907.208	18034
907.324	17935
907.441	17756
907.557	17687
907.674	17638
907.79	17600
907.907	17653
908.023	17619
908.139	17543
908.256	17577
908.372	17524
908.488	17417
908.604	17299
908.72	17387
908.836	17337
908.952	17147
909.068	17227
909.184	17459
909.3	17368
909.415	17280
909.531	17284
909.647	17025
909.762	16980
909.878	16953
909.993	17014
910.108	16892
910.224	16976
910.339	16862
910.454	16816
910.57	16729
910.685	16702
910.8	16908
910.915	16885
911.03	16801
911.145	16592
911.259	16561
911.374	16573
911.489	16531
911.604	16432
911.718	16215
911.833	16398
911.947	16276
912.062	16150
912.176	16352
912.291	16329
912.405	16337
912.519	16527
912.633	16535
912.748	16295
912.862	16280
912.976	16097
913.09	16002
913.204	15956
913.318	16139
913.431	16185
913.545	16223
913.659	16223
913.772	15983
913.886	15922
914	15899
914.113	16048
914.226	16055
914.34	15945
914.453	15800
914.566	15998
914.68	15808
914.793	15739
914.906	15603
915.019	15523
915.132	15545
915.245	15519
915.358	15542
915.47	15519
915.583	15488
915.696	15523
915.809	15610
915.921	15576
916.034	15435
916.146	15291
916.259	15462
916.371	15523
916.483	15481
916.595	15370
916.708	15272
916.82	15374
916.932	15252
917.044	15313
917.156	15237
917.268	15089
917.38	15112
917.491	15112
917.603	15169
917.715	15199
917.826	15184
917.938	14963
918.049	14971
918.161	15020
918.272	15184
918.384	15176
918.495	15070
918.606	14979
918.717	14842
918.828	14811
918.939	14952
919.05	14781
919.161	14906
919.272	14663
919.383	14826
919.494	14868
919.604	15070
919.715	14788
919.826	14750
919.936	14769
920.047	14937
920.157	14765
920.267	15020
920.378	14815
920.488	14735
920.598	14944
920.708	15028
920.818	14883
920.928	14918
921.038	15081
921.148	15089
921.258	14731
921.368	14644
921.477	14549
921.587	14530
921.697	14507
921.806	14598
921.916	14286
922.025	14263
922.134	14126
922.244	14138
922.353	14252
922.462	14054
922.571	13978
922.68	13795
922.789	13841
922.898	13830
923.007	13784
923.116	13860
923.224	13776
923.333	13795
923.442	13544
923.55	13571
923.659	13651
923.767	13693
923.876	13677
923.984	13708
924.092	13582
924.201	13575
924.309	13468
924.417	13529
924.525	13540
924.633	13563
924.741	14400
924.849	13289
924.956	13426
925.064	13293
925.172	13171
925.279	13232
925.387	13175
925.494	13247
925.602	13415
925.709	13187
925.816	13183
925.924	13164
926.031	13293
926.138	13133
926.245	13095
926.352	13023
926.459	13103
926.566	13251
926.673	13050
926.779	12909
926.886	12943
926.993	12837
927.099	12730
927.206	12730
927.312	12707
927.419	12844
927.525	12776
927.631	12738
927.737	12681
927.843	12585
927.95	12403
928.056	12536
928.162	12616
928.267	12684
928.373	13289
928.479	12658
928.585	12467
928.69	12601
928.796	12642
928.901	12422
929.007	12270
929.112	12460
929.218	12384
929.323	12369
929.428	12315
929.533	12448
929.638	12247
929.743	12304
929.848	12327
929.953	12232
930.058	12083
930.163	11999
930.267	11977
930.372	12053
930.477	11942
930.581	12239
930.685	12072
930.79	11748
930.894	11912
930.998	11840
931.103	11946
931.207	11649
931.311	11436
931.415	11433
931.519	11197
931.623	11239
