Data from test_V78500241_1529.txt Node
Date: Fri Mar 25 15:52:23 CST 2022
User: usil
Spectrometer: V785-0024
Trigger mode: 0
Integration Time (sec): 4.000000E-1
Scans to average: 1
Nonlinearity correction enabled: false
Boxcar width: 0
Storing dark spectrum: false
XAxis mode: Wavelengths
Number of Pixels in Spectrum: 1024
>>>>>Begin Spectral Data<<<<<
801.071	28162
801.214	28371
801.356	27979
801.499	27922
801.641	27800
801.783	27857
801.926	27884
802.068	27838
802.211	27690
802.353	27766
802.496	27530
802.638	27538
802.78	27397
802.923	27405
803.065	27507
803.208	27450
803.35	27504
803.492	27724
803.635	27747
803.777	27523
803.919	27660
804.061	27983
804.204	27831
804.346	27603
804.488	27606
804.63	27865
804.773	27629
804.915	27743
805.057	27880
805.199	27595
805.341	27629
805.483	27914
805.626	27854
805.768	27778
805.91	27854
806.052	27945
806.194	27778
806.336	27953
806.478	27918
806.62	27774
806.762	28017
806.904	28128
807.046	28341
807.188	28322
807.33	28455
807.472	28230
807.614	28196
807.756	28375
807.898	28162
808.04	28002
808.182	28196
808.324	28284
808.465	28337
808.607	28417
808.749	28538
808.891	28599
809.033	28729
809.174	28782
809.316	28630
809.458	28451
809.6	28535
809.741	28653
809.883	28740
810.025	28854
810.166	28683
810.308	28778
810.45	28698
810.591	28782
810.733	28573
810.875	28474
811.016	28390
811.158	28413
811.299	28588
811.441	28771
811.582	28706
811.724	28596
811.865	28519
812.007	28516
812.148	28577
812.29	28531
812.431	28626
812.573	28828
812.714	29044
812.855	29151
812.997	29102
813.138	29326
813.279	29197
813.421	29143
813.562	29056
813.703	29094
813.845	28729
813.986	28497
814.127	28440
814.268	28204
814.41	28287
814.551	28204
814.692	28295
814.833	28105
814.974	28185
815.115	28295
815.256	28097
815.397	28147
815.539	28249
815.68	28116
815.821	28059
815.962	27975
816.103	28093
816.244	27865
816.385	27766
816.526	27770
816.666	27606
816.807	27538
816.948	27564
817.089	27622
817.23	27576
817.371	27412
817.512	27694
817.653	27515
817.793	27580
817.934	27572
818.075	27504
818.216	27595
818.356	27469
818.497	27367
818.638	27222
818.778	27233
818.919	27287
819.06	27424
819.2	27389
819.341	27511
819.481	27462
819.622	27629
819.762	27793
819.903	27819
820.043	27724
820.184	27561
820.324	27591
820.465	27724
820.605	27751
820.746	27633
820.886	27549
821.026	27587
821.167	27644
821.307	27641
821.447	27564
821.588	27454
821.728	27431
821.868	27192
822.008	26880
822.149	26975
822.289	26952
822.429	26826
822.569	26705
822.709	26663
822.849	26480
822.99	26442
823.13	26560
823.27	26571
823.41	26347
823.55	26221
823.69	26362
823.83	26324
823.97	26355
824.11	26168
824.25	26164
824.389	26164
824.529	26233
824.669	26161
824.809	26294
824.949	26305
825.089	26320
825.228	26282
825.368	25955
825.508	26073
825.648	26111
825.787	26054
825.927	26122
826.067	25951
826.206	26103
826.346	26187
826.485	26035
826.625	25986
826.765	26153
826.904	26043
827.044	25772
827.183	25738
827.323	25830
827.462	25890
827.601	25780
827.741	25704
827.88	25833
828.02	25582
828.159	25651
828.298	25807
828.437	25860
828.577	25795
828.716	25788
828.855	25620
828.994	25403
829.134	25422
829.273	25460
829.412	25232
829.551	25369
829.69	25388
829.829	25335
829.968	25495
830.107	25510
830.246	25453
830.385	25453
830.524	25350
830.663	25217
830.802	25217
830.941	24954
831.08	24890
831.219	25099
831.357	25228
831.496	25289
831.635	24951
831.774	24935
831.913	25053
832.051	24856
832.19	24829
832.329	24867
832.467	24658
832.606	24555
832.744	24791
832.883	24627
833.022	24597
833.16	24616
833.299	24810
833.437	24734
833.576	24810
833.714	24890
833.852	24776
833.991	24715
834.129	24882
834.267	24810
834.406	24821
834.544	24821
834.682	24738
834.821	24852
834.959	24871
835.097	24627
835.235	24840
835.373	24639
835.511	24673
835.65	24715
835.788	24623
835.926	24429
836.064	24563
836.202	24422
836.34	24703
836.478	24650
836.615	24589
836.753	24768
836.891	24692
837.029	24620
837.167	24563
837.305	24528
837.443	24448
837.58	24418
837.718	24540
837.856	24407
837.993	24372
838.131	24338
838.269	24277
838.406	24361
838.544	24281
838.681	24079
838.819	24022
838.956	23912
839.094	24018
839.231	24011
839.369	24174
839.506	24254
839.643	24038
839.781	23954
839.918	23901
840.055	23897
840.193	23984
840.33	23912
840.467	23878
840.604	23927
840.742	24030
840.879	23661
841.016	23832
841.153	23707
841.29	24015
841.427	23790
841.564	23767
841.701	23878
841.838	23824
841.975	23642
842.112	23790
842.249	23710
842.385	23570
842.522	23798
842.659	23775
842.796	23497
842.933	23547
843.069	23524
843.206	23547
843.343	23585
843.479	23531
843.616	23676
843.752	23307
843.889	23364
844.025	23433
844.162	23303
844.298	23478
844.435	23368
844.571	23406
844.708	23345
844.844	23596
844.98	23376
845.117	23486
845.253	23239
845.389	23212
845.525	23235
845.661	23136
845.798	23025
845.934	23094
846.07	23029
846.206	23121
846.342	23174
846.478	23022
846.614	22881
846.75	22812
846.886	22911
847.022	22862
847.158	22790
847.294	22892
847.429	22790
847.565	22740
847.701	23033
847.837	22542
847.972	22527
848.108	22504
848.244	22592
848.379	22500
848.515	22470
848.65	22455
848.786	22394
848.921	22557
849.057	22481
849.192	22462
849.328	22443
849.463	22443
849.598	22379
849.734	22329
849.869	22230
850.004	22207
850.14	22219
850.275	22253
850.41	22082
850.545	22124
850.68	22086
850.815	22124
850.95	22200
851.085	22424
851.22	22226
851.355	22169
851.49	22082
851.625	22120
851.76	22086
851.895	22051
852.03	21991
852.165	22109
852.299	22249
852.434	22238
852.569	22246
852.703	22158
852.838	22067
852.973	22226
853.107	22276
853.242	22226
853.376	21888
853.511	21842
853.645	21903
853.78	22013
853.914	22055
854.048	21975
854.183	21975
854.317	22029
854.451	22166
854.585	21941
854.72	22021
854.854	22051
854.988	21987
855.122	21956
855.256	21930
855.39	21876
855.524	21975
855.658	22048
855.792	21922
855.926	21949
856.06	22063
856.194	21994
856.327	21915
856.461	22013
856.595	21884
856.729	21926
856.862	22147
856.996	21964
857.13	22025
857.263	22139
857.397	21979
857.53	21937
857.664	22093
857.797	22070
857.931	22017
858.064	22010
858.197	22010
858.331	21922
858.464	21972
858.597	21732
858.731	21888
858.864	21835
858.997	21922
859.13	21979
859.263	22040
859.396	22074
859.529	21972
859.662	21842
859.795	22036
859.928	21975
860.061	22067
860.194	22173
860.327	22021
860.46	22067
860.592	21941
860.725	22204
860.858	22032
860.99	21899
861.123	21911
861.256	21991
861.388	22067
861.521	22527
861.653	21876
861.786	21819
861.918	21751
862.05	21797
862.183	21739
862.315	21911
862.447	21941
862.58	21903
862.712	21686
862.844	21644
862.976	21789
863.108	21785
863.24	22162
863.372	21580
863.504	21736
863.636	21682
863.768	21766
863.9	21709
864.032	21641
864.164	21572
864.296	21675
864.428	21850
864.559	21717
864.691	21739
864.823	21583
864.954	21698
865.086	21679
865.217	21701
865.349	21526
865.48	21568
865.612	21538
865.743	21641
865.875	21622
866.006	21549
866.137	21564
866.269	21591
866.4	21599
866.531	21492
866.662	21481
866.793	21572
866.924	21466
867.055	21523
867.186	21504
867.317	21485
867.448	21374
867.579	21469
867.71	21393
867.841	21336
867.972	21557
868.103	21424
868.233	21591
868.364	21542
868.495	21447
868.625	21762
868.756	21911
868.886	21701
869.017	21743
869.147	21907
869.278	21747
869.408	21831
869.539	21793
869.669	21755
869.799	21747
869.929	21968
870.06	21846
870.19	22097
870.32	22002
870.45	22230
870.58	22246
870.71	22166
870.84	22291
870.97	22196
871.1	22192
871.23	22246
871.36	22234
871.489	22280
871.619	22443
871.749	22284
871.879	22398
872.008	22421
872.138	22303
872.267	22394
872.397	22177
872.526	22234
872.656	22116
872.785	22166
872.915	22436
873.044	22405
873.173	22398
873.303	22497
873.432	22470
873.561	22382
873.69	22329
873.819	22500
873.948	22485
874.077	22390
874.206	22299
874.335	22405
874.464	22607
874.593	22554
874.722	22561
874.851	22641
874.979	22755
875.108	22649
875.237	22596
875.365	22348
875.494	22554
875.623	22691
875.751	22694
875.88	22554
876.008	22664
876.136	22786
876.265	22896
876.393	23223
876.521	23086
876.65	23105
876.778	23014
876.906	23037
877.034	22908
877.162	22919
877.29	22873
877.418	22934
877.546	23064
877.674	22892
877.802	22953
877.93	22824
878.058	22824
878.185	22702
878.313	22862
878.441	22809
878.568	22694
878.696	22786
878.824	23033
878.951	22957
879.079	23200
879.206	23132
879.333	23056
879.461	23014
879.588	23010
879.715	23022
879.842	23185
879.97	23037
880.097	22702
880.224	22691
880.351	22869
880.478	22683
880.605	22767
880.732	22740
880.859	22942
880.986	22717
881.112	22790
881.239	22599
881.366	22527
881.493	22363
881.619	22295
881.746	22382
881.872	22409
881.999	22268
882.125	22173
882.252	22322
882.378	22303
882.505	22268
882.631	22135
882.757	21937
882.883	21987
883.01	21922
883.136	21937
883.262	21857
883.388	21804
883.514	21926
883.64	22131
883.766	21759
883.892	21675
884.018	21793
884.143	21937
884.269	22086
884.395	21675
884.52	21568
884.646	21720
884.772	21618
884.897	21587
885.023	21625
885.148	21842
885.274	21679
885.399	21701
885.524	21603
885.65	21652
885.775	21644
885.9	21637
886.025	21857
886.15	21698
886.275	21622
886.4	21545
886.525	21553
886.65	21663
886.775	21637
886.9	21739
887.025	21743
887.149	21519
887.274	21450
887.399	21408
887.523	21401
887.648	21336
887.773	21340
887.897	21462
888.021	21408
888.146	21294
888.27	21500
888.395	21488
888.519	21408
888.643	21485
888.767	21374
888.891	21287
889.015	21108
889.139	21203
889.263	21195
889.387	21332
889.511	21275
889.635	21321
889.759	21245
889.883	21252
890.006	21226
890.13	21237
890.254	21085
890.377	21180
890.501	20971
890.624	20891
890.748	20880
890.871	20880
890.995	20842
891.118	20644
891.241	20807
891.364	20758
891.488	20933
891.611	20705
891.734	20697
891.857	20708
891.98	20746
892.103	20804
892.226	20819
892.349	20724
892.471	20549
892.594	20667
892.717	20625
892.839	20609
892.962	20689
893.085	20663
893.207	20644
893.33	20575
893.452	20526
893.575	20708
893.697	20533
893.819	20686
893.941	20902
894.064	20815
894.186	20526
894.308	20537
894.43	20693
894.552	20727
894.674	20727
894.796	20514
894.918	20594
895.04	20621
895.161	20629
895.283	20720
895.405	20552
895.526	20625
895.648	20552
895.769	20598
895.891	20613
896.012	20571
896.134	20689
896.255	20606
896.376	20606
896.498	20594
896.619	20609
896.74	20712
896.861	20716
896.982	20944
897.103	21085
897.224	20910
897.345	20781
897.466	20834
897.587	20868
897.708	20937
897.828	20910
897.949	20773
898.07	20743
898.19	20849
898.311	20853
898.431	20735
898.552	20762
898.672	20826
898.792	20891
898.913	20815
899.033	20613
899.153	20613
899.273	20541
899.393	20568
899.513	20602
899.633	20560
899.753	20583
899.873	20556
899.993	20594
900.113	20492
900.232	20598
900.352	20556
900.472	20404
900.591	20389
900.711	20412
900.83	20259
900.95	20446
901.069	20442
901.189	20176
901.308	20069
901.427	19921
901.546	19967
901.665	19917
901.784	19837
901.904	19753
902.023	19742
902.141	19548
902.26	19563
902.379	19575
902.498	19472
902.617	19362
902.735	19491
902.854	19362
902.973	19320
903.091	19187
903.21	19114
903.328	19065
903.446	18920
903.565	18958
903.683	18962
903.801	18749
903.919	18977
904.038	18825
904.156	18738
904.274	18703
904.392	18570
904.51	18661
904.627	18642
904.745	18696
904.863	18574
904.981	18429
905.098	18437
905.216	18353
905.334	18403
905.451	18365
905.569	18315
905.686	18384
905.803	18277
905.921	18038
906.038	18098
906.155	18174
906.272	18144
906.389	17969
906.506	17802
906.623	17870
906.74	17859
906.857	17756
906.974	17775
907.091	17920
907.208	17950
907.324	17767
907.441	17836
907.557	17646
907.674	17611
907.79	17463
907.907	17589
908.023	17524
908.139	17558
908.256	17455
908.372	17528
908.488	17429
908.604	17349
908.72	17284
908.836	17307
908.952	17261
909.068	17326
909.184	17391
909.3	17322
909.415	17364
909.531	17311
909.647	16930
909.762	16976
909.878	16953
909.993	17041
910.108	17045
910.224	16942
910.339	16953
910.454	16946
910.57	16778
910.685	16713
910.8	17010
910.915	16900
911.03	16778
911.145	16656
911.259	16485
911.374	16584
911.489	16478
911.604	16379
911.718	16341
911.833	16428
911.947	16333
912.062	16135
912.176	16382
912.291	16341
912.405	16196
912.519	16432
912.633	16432
912.748	16356
912.862	16257
912.976	16116
913.09	16105
913.204	16071
913.318	16188
913.431	16162
913.545	16192
913.659	16204
913.772	16067
913.886	15915
914	15892
914.113	16029
914.226	15998
914.34	16059
914.453	15880
914.566	15884
914.68	15827
914.793	15766
914.906	15644
915.019	15606
915.132	15542
915.245	15500
915.358	15538
915.47	15473
915.583	15469
915.696	15519
915.809	15644
915.921	15652
916.034	15408
916.146	15336
916.259	15408
916.371	15557
916.483	15458
916.595	15279
916.708	15359
916.82	15348
916.932	15252
917.044	15252
917.156	15264
917.268	15214
917.38	15070
917.491	15123
917.603	15112
917.715	15233
917.826	15093
917.938	15081
918.049	15024
918.161	15138
918.272	15218
918.384	15176
918.495	15093
918.606	14914
918.717	14777
918.828	14921
918.939	14948
919.05	14880
919.161	14944
919.272	14796
919.383	14689
919.494	14880
919.604	15039
919.715	14921
919.826	14693
919.936	14883
920.047	14883
920.157	14880
920.267	15131
920.378	14883
920.488	14868
920.598	15135
920.708	15150
920.818	15020
920.928	15055
921.038	15119
921.148	15097
921.258	14750
921.368	14632
921.477	14606
921.587	14667
921.697	14412
921.806	14545
921.916	14393
922.025	14336
922.134	14225
922.244	14195
922.353	14259
922.462	14214
922.571	14012
922.68	13898
922.789	13894
922.898	13894
923.007	13932
923.116	13894
923.224	13807
923.333	13837
923.442	13746
923.55	13670
923.659	13757
923.767	13883
923.876	13769
923.984	13769
924.092	13628
924.201	13693
924.309	13582
924.417	13556
924.525	13499
924.633	13491
924.741	14499
924.849	13495
924.956	13525
925.064	13343
925.172	13194
925.279	13274
925.387	13263
925.494	13270
925.602	13365
925.709	13373
925.816	13110
925.924	13164
926.031	13270
926.138	13225
926.245	13320
926.352	13171
926.459	13236
926.566	13266
926.673	13069
926.779	12954
926.886	13023
926.993	12871
927.099	12844
927.206	12745
927.312	12768
927.419	12806
927.525	12707
927.631	12848
927.737	12692
927.843	12616
927.95	12513
928.056	12612
928.162	12623
928.267	12635
928.373	13335
928.479	12703
928.585	12456
928.69	12563
928.796	12612
928.901	12574
929.007	12414
929.112	12528
929.218	12445
929.323	12410
929.428	12399
929.533	12452
929.638	12300
929.743	12365
929.848	12311
929.953	12270
930.058	12266
930.163	12053
930.267	12095
930.372	12114
930.477	11923
930.581	12228
930.685	12007
930.79	11836
930.894	11965
930.998	11863
931.103	12041
931.207	11726
931.311	11661
931.415	11436
931.519	11379
931.623	11315
