Data from test_V78500241_54.txt Node
Date: Fri Mar 25 15:42:10 CST 2022
User: usil
Spectrometer: V785-0024
Trigger mode: 0
Integration Time (sec): 4.000000E-1
Scans to average: 1
Nonlinearity correction enabled: false
Boxcar width: 0
Storing dark spectrum: false
XAxis mode: Wavelengths
Number of Pixels in Spectrum: 1024
>>>>>Begin Spectral Data<<<<<
801.071	29474
801.214	29600
801.356	29406
801.499	29075
801.641	29174
801.783	29094
801.926	29212
802.068	29052
802.211	28991
802.353	28923
802.496	28801
802.638	28755
802.78	28653
802.923	28752
803.065	28474
803.208	28706
803.35	28774
803.492	28790
803.635	28824
803.777	28858
803.919	28957
804.061	29178
804.204	29010
804.346	28782
804.488	28725
804.63	28763
804.773	28622
804.915	28831
805.057	28984
805.199	28877
805.341	28961
805.483	28968
805.626	28930
805.768	28927
805.91	28900
806.052	28961
806.194	28812
806.336	29258
806.478	28927
806.62	28847
806.762	29018
806.904	29117
807.046	29436
807.188	29250
807.33	29292
807.472	29288
807.614	29280
807.756	29254
807.898	29064
808.04	29018
808.182	29048
808.324	29132
808.465	29185
808.607	29216
808.749	29315
808.891	29562
809.033	29680
809.174	29402
809.316	29345
809.458	29478
809.6	29395
809.741	29539
809.883	29459
810.025	29737
810.166	29707
810.308	29615
810.45	29661
810.591	29547
810.733	29337
810.875	29250
811.016	29174
811.158	29265
811.299	29459
811.441	29444
811.582	29406
811.724	29436
811.865	29322
812.007	29433
812.148	29406
812.29	29395
812.431	29592
812.573	29722
812.714	29665
812.855	29642
812.997	29939
813.138	30148
813.279	29950
813.421	29741
813.562	29699
813.703	29596
813.845	29452
813.986	29155
814.127	29025
814.268	28915
814.41	28938
814.551	28995
814.692	29136
814.833	28790
814.974	28892
815.115	28915
815.256	28816
815.397	28763
815.539	28694
815.68	28622
815.821	28577
815.962	28683
816.103	28580
816.244	28478
816.385	28303
816.526	28417
816.666	28101
816.807	28036
816.948	28097
817.089	28242
817.23	28135
817.371	28036
817.512	28169
817.653	28078
817.793	27998
817.934	27987
818.075	27960
818.216	27972
818.356	27819
818.497	27979
818.638	27610
818.778	27717
818.919	27835
819.06	27831
819.2	28017
819.341	27960
819.481	27949
819.622	27956
819.762	28166
819.903	28093
820.043	28101
820.184	28067
820.324	28044
820.465	28013
820.605	28086
820.746	28040
820.886	27838
821.026	27975
821.167	27785
821.307	28013
821.447	27865
821.588	27953
821.728	27667
821.868	27462
822.008	27393
822.149	27298
822.289	27344
822.429	27005
822.569	27039
822.709	26979
822.849	26792
822.99	26705
823.13	26807
823.27	26678
823.41	26533
823.55	26465
823.69	26689
823.83	26640
823.97	26552
824.11	26343
824.25	26400
824.389	26355
824.529	26423
824.669	26377
824.809	26457
824.949	26495
825.089	26438
825.228	26313
825.368	26187
825.508	26259
825.648	26172
825.787	26267
825.927	26183
826.067	26157
826.206	26294
826.346	26183
826.485	26153
826.625	26199
826.765	26286
826.904	26244
827.044	25849
827.183	25909
827.323	25807
827.462	25860
827.601	25780
827.741	25852
827.88	25750
828.02	25727
828.159	25795
828.298	25803
828.437	25879
828.577	25685
828.716	25841
828.855	25616
828.994	25506
829.134	25518
829.273	25514
829.412	25438
829.551	25354
829.69	25327
829.829	25506
829.968	25510
830.107	25510
830.246	25472
830.385	25369
830.524	25365
830.663	25190
830.802	25175
830.941	25042
831.08	25031
831.219	25160
831.357	24958
831.496	25236
831.635	25008
831.774	24798
831.913	24886
832.051	24661
832.19	24795
832.329	24757
832.467	24582
832.606	24570
832.744	24429
832.883	24593
833.022	24456
833.16	24703
833.299	24570
833.437	24551
833.576	24665
833.714	24627
833.852	24604
833.991	24620
834.129	24798
834.267	24536
834.406	24623
834.544	24639
834.682	24597
834.821	24566
834.959	24604
835.097	24414
835.235	24502
835.373	24490
835.511	24502
835.65	24346
835.788	24369
835.926	24247
836.064	24133
836.202	24258
836.34	24350
836.478	24445
836.615	24346
836.753	24479
836.891	24517
837.029	24407
837.167	24258
837.305	24338
837.443	24350
837.58	24289
837.718	24353
837.856	24353
837.993	24159
838.131	24205
838.269	24060
838.406	24057
838.544	23889
838.681	23863
838.819	23870
838.956	23745
839.094	23695
839.231	23558
839.369	23733
839.506	23984
839.643	23851
839.781	23611
839.918	23493
840.055	23589
840.193	23623
840.33	23448
840.467	23516
840.604	23596
840.742	23878
840.879	23509
841.016	23509
841.153	23425
841.29	23600
841.427	23395
841.564	23551
841.701	23467
841.838	23478
841.975	23296
842.112	23326
842.249	23296
842.385	23220
842.522	23315
842.659	23170
842.796	23159
842.933	23109
843.069	23185
843.206	23128
843.343	23064
843.479	23109
843.616	23200
843.752	22923
843.889	23025
844.025	23044
844.162	22805
844.298	22949
844.435	22854
844.571	22835
844.708	22869
844.844	23117
844.98	23006
845.117	22889
845.253	22778
845.389	22668
845.525	22816
845.661	22885
845.798	22649
845.934	22626
846.07	22573
846.206	22702
846.342	22672
846.478	22588
846.614	22516
846.75	22287
846.886	22303
847.022	22413
847.158	22341
847.294	22280
847.429	22325
847.565	22215
847.701	22504
847.837	22070
847.972	22032
848.108	22074
848.244	22067
848.379	21895
848.515	21793
848.65	21865
848.786	21918
848.921	21934
849.057	21949
849.192	21892
849.328	21895
849.463	21895
849.598	21827
849.734	21819
849.869	21629
850.004	21671
850.14	21515
850.275	21583
850.41	21389
850.545	21523
850.68	21431
850.815	21553
850.95	21606
851.085	21618
851.22	21572
851.355	21561
851.49	21545
851.625	21412
851.76	21477
851.895	21386
852.03	21511
852.165	21603
852.299	21618
852.434	21576
852.569	21500
852.703	21530
852.838	21485
852.973	21682
853.107	21576
853.242	21526
853.376	21435
853.511	21302
853.645	21260
853.78	21469
853.914	21389
854.048	21245
854.183	21332
854.317	21405
854.451	21572
854.585	21332
854.72	21344
854.854	21488
854.988	21321
855.122	21321
855.256	21173
855.39	21294
855.524	21340
855.658	21344
855.792	21458
855.926	21275
856.06	21359
856.194	21329
856.327	21340
856.461	21272
856.595	21264
856.729	21272
856.862	21401
856.996	21325
857.13	21424
857.263	21416
857.397	21382
857.53	21382
857.664	21435
857.797	21321
857.931	21397
858.064	21329
858.197	21408
858.331	21264
858.464	21245
858.597	21154
858.731	21275
858.864	21294
858.997	21272
859.13	21348
859.263	21275
859.396	21306
859.529	21378
859.662	21245
859.795	21317
859.928	21424
860.061	21378
860.194	21504
860.327	21313
860.46	21245
860.592	21287
860.725	21428
860.858	21378
860.99	21268
861.123	21214
861.256	21256
861.388	21123
861.521	21854
861.653	21070
861.786	21024
861.918	21214
862.05	21260
862.183	21306
862.315	21275
862.447	21397
862.58	21306
862.712	20998
862.844	20990
862.976	21131
863.108	20994
863.24	21306
863.372	20967
863.504	20986
863.636	21100
863.768	21058
863.9	20826
864.032	20849
864.164	20868
864.296	20960
864.428	21096
864.559	21013
864.691	21116
864.823	20975
864.954	20948
865.086	20918
865.217	20937
865.349	20811
865.48	20883
865.612	20880
865.743	20975
865.875	20823
866.006	20765
866.137	20739
866.269	20895
866.4	20792
866.531	20670
866.662	20826
866.793	20731
866.924	20746
867.055	20762
867.186	20667
867.317	20708
867.448	20701
867.579	20735
867.71	20705
867.841	20648
867.972	20697
868.103	20845
868.233	20868
868.364	20712
868.495	20883
868.625	20952
868.756	21081
868.886	20929
869.017	20891
869.147	21100
869.278	21127
869.408	21017
869.539	20967
869.669	21108
869.799	21062
869.929	21058
870.06	21066
870.19	21298
870.32	21222
870.45	21355
870.58	21283
870.71	21500
870.84	21469
870.97	21367
871.1	21458
871.23	21545
871.36	21545
871.489	21469
871.619	21576
871.749	21526
871.879	21629
872.008	21713
872.138	21568
872.267	21538
872.397	21466
872.526	21454
872.656	21519
872.785	21363
872.915	21610
873.044	21644
873.173	21701
873.303	21644
873.432	21610
873.561	21690
873.69	21614
873.819	21618
873.948	21755
874.077	21629
874.206	21534
874.335	21675
874.464	21660
874.593	21831
874.722	21759
874.851	21880
874.979	22002
875.108	21972
875.237	21915
875.365	21766
875.494	21869
875.623	21854
875.751	21831
875.88	21835
876.008	22059
876.136	21972
876.265	22230
876.393	22459
876.521	22268
876.65	22363
876.778	22291
876.906	22238
877.034	22196
877.162	22162
877.29	22124
877.418	22135
877.546	22268
877.674	22086
877.802	22124
877.93	22181
878.058	22257
878.185	22158
878.313	22112
878.441	22120
878.568	22063
878.696	22082
878.824	22124
878.951	22265
879.079	22333
879.206	22451
879.333	22375
879.461	22226
879.588	22257
879.715	22318
879.842	22447
879.97	22284
880.097	21941
880.224	21972
880.351	22169
880.478	21915
880.605	21918
880.732	22078
880.859	22238
880.986	21987
881.112	21994
881.239	21884
881.366	21766
881.493	21705
881.619	21610
881.746	21644
881.872	21663
881.999	21610
882.125	21625
882.252	21690
882.378	21690
882.505	21838
882.631	21428
882.757	21363
882.883	21416
883.01	21275
883.136	21321
883.262	21230
883.388	21108
883.514	21351
883.64	21408
883.766	21287
883.892	21127
884.018	21192
884.143	21192
884.269	21374
884.395	21123
884.52	21020
884.646	21005
884.772	20868
884.897	20880
885.023	21055
885.148	21043
885.274	21161
885.399	21047
885.524	20944
885.65	20933
885.775	20853
885.9	20925
886.025	21146
886.15	20876
886.275	20910
886.4	20804
886.525	20910
886.65	20731
886.775	20830
886.9	21135
887.025	21233
887.149	20807
887.274	20731
887.399	20720
887.523	20674
887.648	20686
887.773	20636
887.897	20857
888.021	20788
888.146	20636
888.27	20765
888.395	20765
888.519	20785
888.643	20845
888.767	20758
888.891	20659
889.015	20438
889.139	20590
889.263	20366
889.387	20571
889.511	20697
889.635	20625
889.759	20457
889.883	20629
890.006	20537
890.13	20480
890.254	20431
890.377	20339
890.501	20248
890.624	20195
890.748	20275
890.871	20130
890.995	20012
891.118	20134
891.241	20168
891.364	20035
891.488	20240
891.611	20027
891.734	20103
891.857	20100
891.98	20161
892.103	20263
892.226	20005
892.349	19955
892.471	19947
892.594	19970
892.717	20001
892.839	19921
892.962	20046
893.085	20012
893.207	19932
893.33	19784
893.452	19837
893.575	20035
893.697	19868
893.819	20012
893.941	20126
894.064	20012
894.186	19849
894.308	19849
894.43	19997
894.552	20145
894.674	20001
894.796	19841
894.918	19993
895.04	20008
895.161	19986
895.283	20012
895.405	19875
895.526	19978
895.648	19978
895.769	19845
895.891	20012
896.012	19989
896.134	20005
896.255	19909
896.376	20020
896.498	20092
896.619	20065
896.74	20145
896.861	20031
896.982	20427
897.103	20602
897.224	20294
897.345	20218
897.466	20122
897.587	20210
897.708	20263
897.828	20218
897.949	20119
898.07	20008
898.19	20229
898.311	20218
898.431	20050
898.552	20225
898.672	20134
898.792	20320
898.913	20248
899.033	20088
899.153	19841
899.273	19871
899.393	19776
899.513	19833
899.633	19833
899.753	19883
899.873	19818
899.993	19830
900.113	19860
900.232	19883
900.352	19731
900.472	19537
900.591	19689
900.711	19704
900.83	19635
900.95	19898
901.069	19750
901.189	19601
901.308	19400
901.427	19240
901.546	19221
901.665	19312
901.784	19236
901.904	19114
902.023	18935
902.141	18901
902.26	18924
902.379	18833
902.498	18593
902.617	18726
902.735	18730
902.854	18696
902.973	18688
903.091	18429
903.21	18311
903.328	18376
903.446	18403
903.565	18251
903.683	18285
903.801	18034
903.919	18254
904.038	18178
904.156	17980
904.274	18068
904.392	17882
904.51	17965
904.627	17996
904.745	18079
904.863	17984
904.981	17836
905.098	17638
905.216	17608
905.334	17634
905.451	17585
905.569	17623
905.686	17707
905.803	17714
905.921	17376
906.038	17532
906.155	17539
906.272	17334
906.389	17364
906.506	17235
906.623	17136
906.74	17083
906.857	17029
906.974	17033
907.091	17155
907.208	17311
907.324	17277
907.441	16999
907.557	16774
907.674	16911
907.79	16778
907.907	16805
908.023	16858
908.139	16843
908.256	16782
908.372	16767
908.488	16630
908.604	16599
908.72	16512
908.836	16519
908.952	16470
909.068	16577
909.184	16603
909.3	16516
909.415	16542
909.531	16504
909.647	16223
909.762	16284
909.878	16242
909.993	16310
910.108	16169
910.224	16078
910.339	16261
910.454	16131
910.57	16048
910.685	15945
910.8	16261
910.915	16101
911.03	15983
911.145	15895
911.259	15800
911.374	15911
911.489	15701
911.604	15610
911.718	15584
911.833	15629
911.947	15519
912.062	15332
912.176	15633
912.291	15644
912.405	15614
912.519	15797
912.633	15751
912.748	15526
912.862	15416
912.976	15329
913.09	15306
913.204	15340
913.318	15420
913.431	15469
913.545	15408
913.659	15443
913.772	15291
913.886	15207
914	15093
914.113	15233
914.226	15272
914.34	15222
914.453	15043
914.566	15157
914.68	15039
914.793	15001
914.906	14842
915.019	14785
915.132	14701
915.245	14720
915.358	14792
915.47	14792
915.583	14792
915.696	14880
915.809	14891
915.921	14944
916.034	14781
916.146	14743
916.259	14644
916.371	14716
916.483	14785
916.595	14689
916.708	14678
916.82	14587
916.932	14530
917.044	14594
917.156	14488
917.268	14389
917.38	14412
917.491	14381
917.603	14419
917.715	14488
917.826	14583
917.938	14381
918.049	14275
918.161	14442
918.272	14549
918.384	14465
918.495	14343
918.606	14370
918.717	14130
918.828	14294
918.939	14278
919.05	14176
919.161	14210
919.272	13864
919.383	14020
919.494	14229
919.604	14370
919.715	14100
919.826	13993
919.936	14081
920.047	14237
920.157	14115
920.267	14237
920.378	14092
920.488	14035
920.598	14172
920.708	14473
920.818	14195
920.928	14161
921.038	14324
921.148	14313
921.258	14107
921.368	13974
921.477	13803
921.587	13841
921.697	13674
921.806	13898
921.916	13620
922.025	13556
922.134	13491
922.244	13365
922.353	13639
922.462	13362
922.571	13369
922.68	13122
922.789	13012
922.898	13244
923.007	13034
923.116	13050
923.224	13118
923.333	13122
923.442	13015
923.55	12814
923.659	12985
923.767	12996
923.876	12856
923.984	12970
924.092	12802
924.201	12897
924.309	12837
924.417	12878
924.525	12783
924.633	12840
924.741	13674
924.849	12616
924.956	12700
925.064	12665
925.172	12471
925.279	12490
925.387	12555
925.494	12612
925.602	12719
925.709	12593
925.816	12506
925.924	12521
926.031	12639
926.138	12475
926.245	12612
926.352	12452
926.459	12532
926.566	12631
926.673	12422
926.779	12346
926.886	12270
926.993	12182
927.099	12155
927.206	12011
927.312	12102
927.419	12201
927.525	12159
927.631	12175
927.737	12133
927.843	12041
927.95	11916
928.056	11942
928.162	11980
928.267	12049
928.373	12662
928.479	12045
928.585	11748
928.69	11809
928.796	11969
928.901	11840
929.007	11668
929.112	11741
929.218	11767
929.323	11703
929.428	11604
929.533	11836
929.638	11665
929.743	11634
929.848	11718
929.953	11680
930.058	11600
930.163	11360
930.267	11471
930.372	11566
930.477	11337
930.581	11615
930.685	11448
930.79	11246
930.894	11292
930.998	11201
931.103	11356
931.207	10991
931.311	10942
931.415	10843
931.519	10725
931.623	10634
