Data from test_V78500241_584.txt Node
Date: Fri Mar 25 15:45:50 CST 2022
User: usil
Spectrometer: V785-0024
Trigger mode: 0
Integration Time (sec): 4.000000E-1
Scans to average: 1
Nonlinearity correction enabled: false
Boxcar width: 0
Storing dark spectrum: false
XAxis mode: Wavelengths
Number of Pixels in Spectrum: 1024
>>>>>Begin Spectral Data<<<<<
801.071	27157
801.214	27233
801.356	26800
801.499	26815
801.641	26648
801.783	26754
801.926	26731
802.068	26587
802.211	26560
802.353	26644
802.496	26233
802.638	26381
802.78	26256
802.923	26298
803.065	26199
803.208	26336
803.35	26317
803.492	26393
803.635	26423
803.777	26256
803.919	26423
804.061	26796
804.204	26488
804.346	26389
804.488	26183
804.63	26298
804.773	26229
804.915	26503
805.057	26492
805.199	26355
805.341	26438
805.483	26530
805.626	26488
805.768	26377
805.91	26518
806.052	26537
806.194	26552
806.336	26667
806.478	26473
806.62	26530
806.762	26621
806.904	26937
807.046	27142
807.188	26990
807.33	26971
807.472	27100
807.614	26891
807.756	26891
807.898	26758
808.04	26746
808.182	26834
808.324	26667
808.465	26735
808.607	27017
808.749	27032
808.891	27150
809.033	27226
809.174	27146
809.316	27051
809.458	27222
809.6	27127
809.741	27256
809.883	27294
810.025	27477
810.166	27279
810.308	27214
810.45	27378
810.591	27203
810.733	27093
810.875	27096
811.016	26986
811.158	27020
811.299	27237
811.441	27336
811.582	27260
811.724	27074
811.865	26982
812.007	27066
812.148	26960
812.29	27058
812.431	27344
812.573	27526
812.714	27500
812.855	27583
812.997	27675
813.138	27945
813.279	27610
813.421	27610
813.562	27580
813.703	27553
813.845	27256
813.986	26887
814.127	26906
814.268	26670
814.41	26800
814.551	26815
814.692	26754
814.833	26773
814.974	26823
815.115	26689
815.256	26613
815.397	26651
815.539	26705
815.68	26556
815.821	26473
815.962	26629
816.103	26625
816.244	26423
816.385	26503
816.526	26469
816.666	26210
816.807	25974
816.948	26096
817.089	26153
817.23	26206
817.371	26161
817.512	25982
817.653	26020
817.793	26008
817.934	26024
818.075	25928
818.216	26046
818.356	26046
818.497	25879
818.638	25715
818.778	25719
818.919	25731
819.06	26005
819.2	25936
819.341	25951
819.481	26024
819.622	26187
819.762	26412
819.903	26309
820.043	26229
820.184	26145
820.324	26153
820.465	26275
820.605	26202
820.746	26138
820.886	26001
821.026	26077
821.167	26130
821.307	26183
821.447	26065
821.588	26058
821.728	25841
821.868	25731
822.008	25449
822.149	25407
822.289	25506
822.429	25221
822.569	25076
822.709	25209
822.849	24928
822.99	24973
823.13	24985
823.27	25069
823.41	24875
823.55	24635
823.69	24825
823.83	24760
823.97	24814
824.11	24684
824.25	24677
824.389	24635
824.529	24669
824.669	24604
824.809	24719
824.949	24814
825.089	24654
825.228	24661
825.368	24536
825.508	24475
825.648	24521
825.787	24540
825.927	24547
826.067	24460
826.206	24486
826.346	24505
826.485	24532
826.625	24570
826.765	24559
826.904	24505
827.044	24266
827.183	24228
827.323	24041
827.462	24087
827.601	24228
827.741	24186
827.88	24140
828.02	24057
828.159	24140
828.298	24235
828.437	24365
828.577	23984
828.716	24254
828.855	24015
828.994	23889
829.134	23916
829.273	23980
829.412	23927
829.551	23851
829.69	23866
829.829	23870
829.968	23965
830.107	24053
830.246	23859
830.385	23847
830.524	23760
830.663	23699
830.802	23608
830.941	23383
831.08	23406
831.219	23623
831.357	23600
831.496	23710
831.635	23433
831.774	23379
831.913	23425
832.051	23311
832.19	23162
832.329	23330
832.467	23235
832.606	23128
832.744	23060
832.883	23014
833.022	23178
833.16	23212
833.299	23162
833.437	23136
833.576	23220
833.714	23261
833.852	23212
833.991	23318
834.129	23296
834.267	23318
834.406	23124
834.544	23170
834.682	23166
834.821	23121
834.959	23425
835.097	23269
835.235	23349
835.373	23193
835.511	23307
835.65	23117
835.788	23113
835.926	22953
836.064	22797
836.202	22911
836.34	23037
836.478	23079
836.615	23006
836.753	23086
836.891	23105
837.029	23025
837.167	23098
837.305	22900
837.443	22934
837.58	22793
837.718	23022
837.856	22805
837.993	22831
838.131	22839
838.269	22767
838.406	22782
838.544	22733
838.681	22428
838.819	22367
838.956	22440
839.094	22413
839.231	22474
839.369	22516
839.506	22744
839.643	22512
839.781	22367
839.918	22318
840.055	22436
840.193	22318
840.33	22295
840.467	22261
840.604	22443
840.742	22607
840.879	22185
841.016	22246
841.153	22185
841.29	22344
841.427	22261
841.564	22318
841.701	22333
841.838	22238
841.975	22230
842.112	22181
842.249	22090
842.385	22074
842.522	22211
842.659	22128
842.796	22044
842.933	22169
843.069	21960
843.206	21949
843.343	22177
843.479	22090
843.616	22090
843.752	21945
843.889	21789
844.025	21873
844.162	21873
844.298	21987
844.435	21793
844.571	21789
844.708	21895
844.844	21964
844.98	21998
845.117	21854
845.253	21747
845.389	21717
845.525	21789
845.661	21641
845.798	21561
845.934	21652
846.07	21622
846.206	21743
846.342	21816
846.478	21648
846.614	21382
846.75	21332
846.886	21218
847.022	21393
847.158	21306
847.294	21355
847.429	21378
847.565	21169
847.701	21637
847.837	21165
847.972	20990
848.108	21146
848.244	21077
848.379	20975
848.515	20929
848.65	20849
848.786	20906
848.921	20914
849.057	21047
849.192	21017
849.328	21009
849.463	20777
849.598	20804
849.734	20735
849.869	20644
850.004	20670
850.14	20667
850.275	20689
850.41	20636
850.545	20602
850.68	20552
850.815	20659
850.95	20560
851.085	20727
851.22	20689
851.355	20754
851.49	20693
851.625	20705
851.76	20598
851.895	20594
852.03	20583
852.165	20651
852.299	20655
852.434	20686
852.569	20663
852.703	20678
852.838	20720
852.973	20804
853.107	20811
853.242	20697
853.376	20594
853.511	20442
853.645	20423
853.78	20629
853.914	20575
854.048	20423
854.183	20476
854.317	20594
854.451	20651
854.585	20450
854.72	20507
854.854	20488
854.988	20442
855.122	20484
855.256	20278
855.39	20374
855.524	20682
855.658	20537
855.792	20514
855.926	20400
856.06	20495
856.194	20454
856.327	20518
856.461	20457
856.595	20469
856.729	20549
856.862	20484
856.996	20537
857.13	20606
857.263	20769
857.397	20594
857.53	20507
857.664	20480
857.797	20514
857.931	20746
858.064	20450
858.197	20549
858.331	20419
858.464	20370
858.597	20381
858.731	20476
858.864	20385
858.997	20461
859.13	20415
859.263	20408
859.396	20549
859.529	20434
859.662	20412
859.795	20408
859.928	20473
860.061	20655
860.194	20800
860.327	20431
860.46	20556
860.592	20541
860.725	20659
860.858	20663
860.99	20533
861.123	20454
861.256	20412
861.388	20476
861.521	20963
861.653	20412
861.786	20244
861.918	20301
862.05	20301
862.183	20339
862.315	20484
862.447	20484
862.58	20351
862.712	20183
862.844	20240
862.976	20305
863.108	20351
863.24	20663
863.372	20069
863.504	20275
863.636	20191
863.768	20225
863.9	20286
864.032	20176
864.164	20164
864.296	20187
864.428	20275
864.559	20199
864.691	20187
864.823	20278
864.954	20294
865.086	20244
865.217	20084
865.349	20142
865.48	20043
865.612	20016
865.743	20252
865.875	20005
866.006	20081
866.137	20183
866.269	20145
866.4	20043
866.531	20043
866.662	20001
866.793	20008
866.924	20058
867.055	20115
867.186	20111
867.317	19921
867.448	19982
867.579	20069
867.71	19951
867.841	19879
867.972	20122
868.103	20039
868.233	20043
868.364	19986
868.495	20119
868.625	20187
868.756	20309
868.886	20248
869.017	20263
869.147	20358
869.278	20415
869.408	20332
869.539	20259
869.669	20423
869.799	20389
869.929	20526
870.06	20400
870.19	20568
870.32	20708
870.45	20667
870.58	20724
870.71	20773
870.84	20853
870.97	20667
871.1	20625
871.23	20899
871.36	20895
871.489	20804
871.619	20925
871.749	20895
871.879	20998
872.008	20910
872.138	20887
872.267	20960
872.397	20750
872.526	20693
872.656	20720
872.785	20746
872.915	20830
873.044	20921
873.173	20899
873.303	21032
873.432	20975
873.561	21062
873.69	20986
873.819	20929
873.948	21020
874.077	20944
874.206	20857
874.335	20895
874.464	20960
874.593	21157
874.722	21108
874.851	21199
874.979	21203
875.108	21195
875.237	21093
875.365	21058
875.494	21169
875.623	21150
875.751	21138
875.88	21188
876.008	21332
876.136	21428
876.265	21511
876.393	21774
876.521	21625
876.65	21515
876.778	21583
876.906	21500
877.034	21504
877.162	21538
877.29	21450
877.418	21599
877.546	21511
877.674	21530
877.802	21587
877.93	21393
878.058	21507
878.185	21397
878.313	21408
878.441	21545
878.568	21332
878.696	21401
878.824	21511
878.951	21679
879.079	21789
879.206	21846
879.333	21656
879.461	21492
879.588	21633
879.715	21591
879.842	21759
879.97	21622
880.097	21332
880.224	21348
880.351	21291
880.478	21424
880.605	21389
880.732	21408
880.859	21614
880.986	21336
881.112	21397
881.239	21150
881.366	21135
881.493	21001
881.619	20948
881.746	20998
881.872	20830
881.999	20937
882.125	20754
882.252	21051
882.378	20948
882.505	21036
882.631	20769
882.757	20689
882.883	20724
883.01	20701
883.136	20484
883.262	20575
883.388	20480
883.514	20678
883.64	20625
883.766	20583
883.892	20457
884.018	20499
884.143	20465
884.269	20640
884.395	20404
884.52	20320
884.646	20351
884.772	20237
884.897	20240
885.023	20408
885.148	20469
885.274	20522
885.399	20385
885.524	20233
885.65	20263
885.775	20358
885.9	20221
886.025	20355
886.15	20317
886.275	20301
886.4	20161
886.525	20248
886.65	20309
886.775	20130
886.9	20396
887.025	20309
887.149	20343
887.274	20043
887.399	20012
887.523	20172
887.648	19959
887.773	19921
887.897	20172
888.021	20122
888.146	20008
888.27	20119
888.395	20145
888.519	20130
888.643	20027
888.767	20092
888.891	19955
889.015	19871
889.139	19864
889.263	19837
889.387	19959
889.511	20100
889.635	19997
889.759	19917
889.883	19811
890.006	19963
890.13	19936
890.254	19799
890.377	19849
890.501	19666
890.624	19647
890.748	19818
890.871	19567
890.995	19415
891.118	19445
891.241	19487
891.364	19491
891.488	19582
891.611	19552
891.734	19476
891.857	19422
891.98	19422
892.103	19502
892.226	19403
892.349	19453
892.471	19171
892.594	19407
892.717	19540
892.839	19335
892.962	19491
893.085	19419
893.207	19411
893.33	19259
893.452	19434
893.575	19449
893.697	19373
893.819	19438
893.941	19552
894.064	19559
894.186	19438
894.308	19301
894.43	19480
894.552	19605
894.674	19373
894.796	19206
894.918	19419
895.04	19358
895.161	19403
895.283	19449
895.405	19316
895.526	19384
895.648	19346
895.769	19316
895.891	19438
896.012	19468
896.134	19434
896.255	19449
896.376	19400
896.498	19453
896.619	19495
896.74	19335
896.861	19468
896.982	19704
897.103	19845
897.224	19727
897.345	19704
897.466	19495
897.587	19651
897.708	19776
897.828	19723
897.949	19571
898.07	19514
898.19	19613
898.311	19769
898.431	19639
898.552	19723
898.672	19651
898.792	19685
898.913	19700
899.033	19597
899.153	19324
899.273	19422
899.393	19407
899.513	19445
899.633	19358
899.753	19426
899.873	19403
899.993	19480
900.113	19244
900.232	19384
900.352	19415
900.472	19213
900.591	19206
900.711	19278
900.83	19156
900.95	19365
901.069	19244
901.189	19095
901.308	18920
901.427	18764
901.546	18722
901.665	18795
901.784	18787
901.904	18707
902.023	18483
902.141	18395
902.26	18357
902.379	18399
902.498	18296
902.617	18330
902.735	18319
902.854	18171
902.973	18114
903.091	17908
903.21	17977
903.328	17965
903.446	17935
903.565	17798
903.683	17779
903.801	17646
903.919	17752
904.038	17684
904.156	17627
904.274	17661
904.392	17589
904.51	17570
904.627	17387
904.745	17646
904.863	17562
904.981	17448
905.098	17193
905.216	17174
905.334	17250
905.451	17181
905.569	17185
905.686	17254
905.803	17212
905.921	17048
906.038	17151
906.155	17045
906.272	16987
906.389	16877
906.506	16771
906.623	16843
906.74	16801
906.857	16694
906.974	16698
907.091	16892
907.208	16809
907.324	16809
907.441	16615
907.557	16611
907.674	16558
907.79	16451
907.907	16432
908.023	16382
908.139	16592
908.256	16451
908.372	16348
908.488	16386
908.604	16295
908.72	16207
908.836	16185
908.952	16215
909.068	16272
909.184	16325
909.3	16169
909.415	16341
909.531	16169
909.647	15884
909.762	15937
909.878	15926
909.993	15918
910.108	15861
910.224	15926
910.339	15899
910.454	15827
910.57	15728
910.685	15762
910.8	15949
910.915	15888
911.03	15747
911.145	15637
911.259	15485
911.374	15526
911.489	15450
911.604	15355
911.718	15336
911.833	15370
911.947	15249
912.062	15097
912.176	15310
912.291	15306
912.405	15264
912.519	15416
912.633	15405
912.748	15370
912.862	15348
912.976	15085
913.09	15009
913.204	15013
913.318	15047
913.431	15279
913.545	15207
913.659	15119
913.772	15070
913.886	14944
914	14853
914.113	14925
914.226	15009
914.34	14925
914.453	14868
914.566	14880
914.68	14853
914.793	14773
914.906	14598
915.019	14480
915.132	14473
915.245	14545
915.358	14503
915.47	14575
915.583	14480
915.696	14583
915.809	14655
915.921	14716
916.034	14503
916.146	14514
916.259	14442
916.371	14526
916.483	14564
916.595	14358
916.708	14336
916.82	14366
916.932	14290
917.044	14282
917.156	14351
917.268	14107
917.38	14206
917.491	14229
917.603	14263
917.715	14313
917.826	14298
917.938	14111
918.049	14081
918.161	14161
918.272	14176
918.384	14218
918.495	14244
918.606	14050
918.717	13818
918.828	14054
918.939	14024
919.05	13909
919.161	13963
919.272	13807
919.383	13837
919.494	13951
919.604	14138
919.715	14008
919.826	13879
919.936	13841
920.047	14050
920.157	13955
920.267	14145
920.378	13982
920.488	13906
920.598	14111
920.708	14362
920.818	14039
920.928	14107
921.038	14347
921.148	14206
921.258	13822
921.368	13986
921.477	13757
921.587	13651
921.697	13613
921.806	13731
921.916	13597
922.025	13388
922.134	13362
922.244	13327
922.353	13400
922.462	13225
922.571	13236
922.68	13072
922.789	13069
922.898	13015
923.007	13004
923.116	13080
923.224	12989
923.333	13069
923.442	12825
923.55	12840
923.659	12760
923.767	12890
923.876	12734
923.984	12859
924.092	12798
924.201	12757
924.309	12798
924.417	12753
924.525	12650
924.633	12757
924.741	13643
924.849	12490
924.956	12669
925.064	12464
925.172	12414
925.279	12357
925.387	12452
925.494	12513
925.602	12555
925.709	12578
925.816	12361
925.924	12429
926.031	12517
926.138	12365
926.245	12460
926.352	12254
926.459	12410
926.566	12422
926.673	12330
926.779	12224
926.886	12300
926.993	12053
927.099	11984
927.206	12053
927.312	11961
927.419	12057
927.525	12053
927.631	11965
927.737	11973
927.843	11893
927.95	11821
928.056	11897
928.162	11916
928.267	11843
928.373	12517
928.479	11980
928.585	11722
928.69	11878
928.796	11859
928.901	11783
929.007	11680
929.112	11779
929.218	11752
929.323	11573
929.428	11733
929.533	11783
929.638	11512
929.743	11611
929.848	11570
929.953	11532
930.058	11429
930.163	11311
930.267	11372
930.372	11459
930.477	11269
930.581	11535
930.685	11349
930.79	11235
930.894	11204
930.998	11197
931.103	11296
931.207	10949
931.311	11010
931.415	10759
931.519	10615
931.623	10519
