Data from test_V78500241_2885.txt Node
Date: Fri Mar 25 16:01:47 CST 2022
User: usil
Spectrometer: V785-0024
Trigger mode: 0
Integration Time (sec): 4.000000E-1
Scans to average: 1
Nonlinearity correction enabled: false
Boxcar width: 0
Storing dark spectrum: false
XAxis mode: Wavelengths
Number of Pixels in Spectrum: 1024
>>>>>Begin Spectral Data<<<<<
801.071	28809
801.214	28645
801.356	28459
801.499	28398
801.641	28265
801.783	28371
801.926	28265
802.068	28234
802.211	28059
802.353	28021
802.496	27979
802.638	27945
802.78	27941
802.923	27884
803.065	27861
803.208	27972
803.35	27968
803.492	28196
803.635	28139
803.777	28025
803.919	28147
804.061	28451
804.204	28188
804.346	28154
804.488	28055
804.63	28162
804.773	28097
804.915	28223
805.057	28344
805.199	28287
805.341	28173
805.483	28360
805.626	28348
805.768	28295
805.91	28440
806.052	28253
806.194	28379
806.336	28421
806.478	28322
806.62	28413
806.762	28531
806.904	28675
807.046	28869
807.188	28824
807.33	28710
807.472	28858
807.614	28797
807.756	28816
807.898	28687
808.04	28523
808.182	28565
808.324	28729
808.465	28706
808.607	28763
808.749	28980
808.891	29014
809.033	29242
809.174	29037
809.316	28927
809.458	29121
809.6	28835
809.741	29102
809.883	29155
810.025	29277
810.166	29478
810.308	29417
810.45	29288
810.591	29181
810.733	29121
810.875	29113
811.016	28816
811.158	28946
811.299	29143
811.441	29265
811.582	29151
811.724	28965
811.865	29033
812.007	29052
812.148	29014
812.29	29064
812.431	29223
812.573	29448
812.714	29543
812.855	29528
812.997	29748
813.138	29741
813.279	29680
813.421	29501
813.562	29501
813.703	29280
813.845	29239
813.986	28999
814.127	28782
814.268	28839
814.41	28729
814.551	28786
814.692	28786
814.833	28607
814.974	28831
815.115	28812
815.256	28599
815.397	28622
815.539	28683
815.68	28500
815.821	28516
815.962	28561
816.103	28466
816.244	28470
816.385	28459
816.526	28200
816.666	28192
816.807	27937
816.948	28048
817.089	28131
817.23	28059
817.371	28029
817.512	28116
817.653	28166
817.793	28051
817.934	28131
818.075	28029
818.216	28143
818.356	27953
818.497	27972
818.638	27903
818.778	27793
818.919	27903
819.06	27964
819.2	27941
819.341	28097
819.481	28013
819.622	28299
819.762	28401
819.903	28409
820.043	28272
820.184	28303
820.324	28215
820.465	28337
820.605	28196
820.746	28124
820.886	28101
821.026	28192
821.167	28162
821.307	28116
821.447	27975
821.588	28040
821.728	27857
821.868	27698
822.008	27523
822.149	27542
822.289	27561
822.429	27279
822.569	27226
822.709	27317
822.849	26998
822.99	27085
823.13	26982
823.27	26918
823.41	26902
823.55	26758
823.69	26762
823.83	26910
823.97	26861
824.11	26686
824.25	26773
824.389	26579
824.529	26682
824.669	26686
824.809	26845
824.949	26849
825.089	26910
825.228	26838
825.368	26556
825.508	26667
825.648	26651
825.787	26598
825.927	26667
826.067	26655
826.206	26549
826.346	26571
826.485	26670
826.625	26613
826.765	26815
826.904	26678
827.044	26507
827.183	26355
827.323	26263
827.462	26438
827.601	26328
827.741	26393
827.88	26381
828.02	26199
828.159	26343
828.298	26343
828.437	26248
828.577	26180
828.716	26339
828.855	26317
828.994	26069
829.134	26065
829.273	26126
829.412	25951
829.551	25898
829.69	25989
829.829	25944
829.968	26039
830.107	26039
830.246	25959
830.385	25993
830.524	25894
830.663	25917
830.802	25921
830.941	25708
831.08	25537
831.219	25765
831.357	25780
831.496	25765
831.635	25666
831.774	25628
831.913	25521
832.051	25468
832.19	25365
832.329	25358
832.467	25301
832.606	25251
832.744	25137
832.883	25274
833.022	25293
833.16	25244
833.299	25346
833.437	25419
833.576	25388
833.714	25377
833.852	25457
833.991	25529
834.129	25529
834.267	25400
834.406	25324
834.544	25407
834.682	25308
834.821	25445
834.959	25559
835.097	25293
835.235	25388
835.373	25282
835.511	25377
835.65	25316
835.788	25187
835.926	25164
836.064	25031
836.202	25046
836.34	25190
836.478	25266
836.615	25156
836.753	25213
836.891	25183
837.029	25285
837.167	25114
837.305	25042
837.443	25019
837.58	24962
837.718	25137
837.856	25023
837.993	25027
838.131	25050
838.269	24890
838.406	24932
838.544	24817
838.681	24703
838.819	24681
838.956	24376
839.094	24525
839.231	24502
839.369	24563
839.506	24924
839.643	24681
839.781	24403
839.918	24490
840.055	24346
840.193	24410
840.33	24365
840.467	24372
840.604	24365
840.742	24719
840.879	24144
841.016	24353
841.153	24235
841.29	24498
841.427	24448
841.564	24376
841.701	24391
841.838	24251
841.975	24304
842.112	24327
842.249	24041
842.385	24148
842.522	24388
842.659	24372
842.796	24144
842.933	24155
843.069	24057
843.206	24239
843.343	24258
843.479	24171
843.616	24133
843.752	23946
843.889	23916
844.025	24114
844.162	23893
844.298	23969
844.435	23939
844.571	23897
844.708	23908
844.844	24114
844.98	24079
845.117	24007
845.253	23824
845.389	23855
845.525	23722
845.661	23779
845.798	23608
845.934	23630
846.07	23551
846.206	23665
846.342	23767
846.478	23687
846.614	23471
846.75	23254
846.886	23410
847.022	23364
847.158	23467
847.294	23372
847.429	23379
847.565	23345
847.701	23585
847.837	23094
847.972	23151
848.108	23151
848.244	23113
848.379	22991
848.515	22965
848.65	22991
848.786	22843
848.921	22987
849.057	23029
849.192	22930
849.328	23010
849.463	22896
849.598	22862
849.734	22691
849.869	22755
850.004	22778
850.14	22733
850.275	22805
850.41	22740
850.545	22698
850.68	22668
850.815	22736
850.95	22736
851.085	22889
851.22	22854
851.355	22763
851.49	22729
851.625	22809
851.76	22653
851.895	22679
852.03	22736
852.165	22717
852.299	22675
852.434	22820
852.569	22790
852.703	22744
852.838	22622
852.973	22790
853.107	22923
853.242	22691
853.376	22508
853.511	22394
853.645	22455
853.78	22588
853.914	22573
854.048	22554
854.183	22413
854.317	22683
854.451	22588
854.585	22569
854.72	22557
854.854	22615
854.988	22565
855.122	22493
855.256	22459
855.39	22375
855.524	22641
855.658	22535
855.792	22557
855.926	22535
856.06	22565
856.194	22550
856.327	22413
856.461	22527
856.595	22413
856.729	22538
856.862	22634
856.996	22557
857.13	22538
857.263	22691
857.397	22615
857.53	22474
857.664	22588
857.797	22683
857.931	22653
858.064	22497
858.197	22569
858.331	22573
858.464	22405
858.597	22402
858.731	22546
858.864	22474
858.997	22580
859.13	22462
859.263	22546
859.396	22649
859.529	22542
859.662	22546
859.795	22527
859.928	22603
860.061	22519
860.194	22752
860.327	22573
860.46	22523
860.592	22755
860.725	22744
860.858	22744
860.99	22519
861.123	22485
861.256	22447
861.388	22535
861.521	23239
861.653	22474
861.786	22223
861.918	22337
862.05	22489
862.183	22379
862.315	22489
862.447	22443
862.58	22432
862.712	22207
862.844	22238
862.976	22424
863.108	22363
863.24	22580
863.372	22242
863.504	22249
863.636	22341
863.768	22246
863.9	22188
864.032	22196
864.164	22192
864.296	22070
864.428	22325
864.559	22318
864.691	22295
864.823	22360
864.954	22166
865.086	22280
865.217	22048
865.349	21937
865.48	22131
865.612	22112
865.743	22196
865.875	22177
866.006	21956
866.137	21979
866.269	22139
866.4	22055
866.531	22067
866.662	22040
866.793	22044
866.924	21991
867.055	22124
867.186	22051
867.317	21930
867.448	22017
867.579	22070
867.71	22013
867.841	21922
867.972	21968
868.103	22074
868.233	22082
868.364	22067
868.495	22109
868.625	22158
868.756	22363
868.886	22173
869.017	22200
869.147	22371
869.278	22363
869.408	22223
869.539	22219
869.669	22303
869.799	22352
869.929	22417
870.06	22402
870.19	22569
870.32	22489
870.45	22615
870.58	22618
870.71	22755
870.84	22763
870.97	22713
871.1	22721
871.23	22778
871.36	22854
871.489	22797
871.619	22767
871.749	22816
871.879	23048
872.008	23052
872.138	22930
872.267	22953
872.397	22744
872.526	22641
872.656	22744
872.785	22702
872.915	22873
873.044	22934
873.173	22797
873.303	22892
873.432	22987
873.561	22972
873.69	22946
873.819	22797
873.948	23064
874.077	22953
874.206	22900
874.335	22934
874.464	22949
874.593	23086
874.722	23090
874.851	23128
874.979	23132
875.108	23242
875.237	23113
875.365	23075
875.494	23113
875.623	22942
875.751	23166
875.88	23056
876.008	23235
876.136	23334
876.265	23417
876.393	23642
876.521	23551
876.65	23539
876.778	23600
876.906	23516
877.034	23356
877.162	23406
877.29	23356
877.418	23531
877.546	23596
877.674	23528
877.802	23486
877.93	23471
878.058	23429
878.185	23402
878.313	23364
878.441	23395
878.568	23292
878.696	23448
878.824	23539
878.951	23478
879.079	23604
879.206	23714
879.333	23600
879.461	23448
879.588	23490
879.715	23756
879.842	23779
879.97	23581
880.097	23311
880.224	23315
880.351	23296
880.478	23136
880.605	23280
880.732	23136
880.859	23554
880.986	23299
881.112	23345
881.239	23220
881.366	22995
881.493	22961
881.619	22869
881.746	22889
881.872	22771
881.999	22858
882.125	22721
882.252	22869
882.378	22755
882.505	23037
882.631	22717
882.757	22584
882.883	22656
883.01	22451
883.136	22485
883.262	22424
883.388	22360
883.514	22603
883.64	22462
883.766	22405
883.892	22261
884.018	22246
884.143	22474
884.269	22512
884.395	22154
884.52	22067
884.646	22086
884.772	22086
884.897	22131
885.023	22074
885.148	22261
885.274	22310
885.399	22173
885.524	22139
885.65	22158
885.775	22086
885.9	22109
886.025	22162
886.15	22093
886.275	22002
886.4	22105
886.525	22078
886.65	22200
886.775	22051
886.9	22181
887.025	22367
887.149	22261
887.274	21979
887.399	22044
887.523	21994
887.648	21751
887.773	21774
887.897	21888
888.021	21953
888.146	21876
888.27	22006
888.395	21949
888.519	21953
888.643	21956
888.767	21869
888.891	21747
889.015	21637
889.139	21808
889.263	21652
889.387	21827
889.511	21850
889.635	21903
889.759	21652
889.883	21671
890.006	21747
890.13	21819
890.254	21599
890.377	21637
890.501	21340
890.624	21279
890.748	21477
890.871	21443
890.995	21260
891.118	21112
891.241	21161
891.364	21310
891.488	21466
891.611	21100
891.734	21222
891.857	21351
891.98	21249
892.103	21294
892.226	21249
892.349	21127
892.471	21093
892.594	21184
892.717	21146
892.839	21127
892.962	21043
893.085	21256
893.207	21192
893.33	20986
893.452	21100
893.575	21157
893.697	21039
893.819	21211
893.941	21348
894.064	21317
894.186	21135
894.308	21062
894.43	21058
894.552	21260
894.674	21135
894.796	21123
894.918	21112
895.04	21036
895.161	21203
895.283	21119
895.405	20952
895.526	21154
895.648	21074
895.769	21138
895.891	21043
896.012	21214
896.134	21123
896.255	21089
896.376	20986
896.498	21146
896.619	21173
896.74	21020
896.861	21211
896.982	21405
897.103	21401
897.224	21336
897.345	21214
897.466	21329
897.587	21359
897.708	21367
897.828	21351
897.949	21252
898.07	21096
898.19	21218
898.311	21370
898.431	21264
898.552	21340
898.672	21340
898.792	21332
898.913	21306
899.033	21116
899.153	21108
899.273	20826
899.393	21051
899.513	21024
899.633	20986
899.753	21020
899.873	20826
899.993	21180
900.113	20990
900.232	21058
900.352	20864
900.472	20872
900.591	20777
900.711	20758
900.83	20845
900.95	20948
901.069	20796
901.189	20621
901.308	20431
901.427	20370
901.546	20339
901.665	20374
901.784	20393
901.904	20202
902.023	20199
902.141	19856
902.26	19963
902.379	20035
902.498	19864
902.617	19807
902.735	19894
902.854	19841
902.973	19822
903.091	19537
903.21	19381
903.328	19480
903.446	19464
903.565	19343
903.683	19365
903.801	19137
903.919	19346
904.038	19297
904.156	19145
904.274	19217
904.392	19050
904.51	19080
904.627	19065
904.745	19198
904.863	19061
904.981	18859
905.098	18848
905.216	18779
905.334	18730
905.451	18764
905.569	18620
905.686	18745
905.803	18597
905.921	18521
906.038	18753
906.155	18688
906.272	18395
906.389	18346
906.506	18346
906.623	18311
906.74	18243
906.857	18163
906.974	18220
907.091	18300
907.208	18456
907.324	18239
907.441	18190
907.557	18045
907.674	17992
907.79	17923
907.907	17977
908.023	17901
908.139	17870
908.256	17996
908.372	17859
908.488	17863
908.604	17832
908.72	17653
908.836	17733
908.952	17737
909.068	17687
909.184	17802
909.3	17756
909.415	17771
909.531	17665
909.647	17448
909.762	17406
909.878	17341
909.993	17395
910.108	17296
910.224	17292
910.339	17379
910.454	17239
910.57	17223
910.685	17105
910.8	17341
910.915	17307
911.03	17105
911.145	17037
911.259	16991
911.374	16976
911.489	16968
911.604	16908
911.718	16809
911.833	16698
911.947	16630
912.062	16497
912.176	16691
912.291	16740
912.405	16607
912.519	16835
912.633	16828
912.748	16786
912.862	16611
912.976	16569
913.09	16398
913.204	16481
913.318	16569
913.431	16637
913.545	16691
913.659	16599
913.772	16440
913.886	16356
914	16268
914.113	16329
914.226	16478
914.34	16295
914.453	16158
914.566	16409
914.68	16173
914.793	16234
914.906	15907
915.019	15945
915.132	15899
915.245	15854
915.358	15949
915.47	15899
915.583	15781
915.696	15888
915.809	15972
915.921	16059
916.034	15800
916.146	15720
916.259	15755
916.371	15937
916.483	15808
916.595	15717
916.708	15751
916.82	15720
916.932	15629
917.044	15614
917.156	15652
917.268	15572
917.38	15599
917.491	15469
917.603	15462
917.715	15542
917.826	15701
917.938	15462
918.049	15359
918.161	15435
918.272	15576
918.384	15523
918.495	15397
918.606	15351
918.717	15199
918.828	15348
918.939	15275
919.05	15173
919.161	15279
919.272	15077
919.383	15077
919.494	15222
919.604	15378
919.715	15313
919.826	15127
919.936	15146
920.047	15264
920.157	15154
920.267	15325
920.378	15127
920.488	15218
920.598	15378
920.708	15492
920.818	15359
920.928	15298
921.038	15530
921.148	15359
921.258	15051
921.368	15001
921.477	14982
921.587	14982
921.697	14834
921.806	15017
921.916	14819
922.025	14705
922.134	14552
922.244	14507
922.353	14495
922.462	14434
922.571	14374
922.68	14282
922.789	14168
922.898	14290
923.007	14221
923.116	14233
923.224	14157
923.333	14145
923.442	13986
923.55	14043
923.659	14050
923.767	13974
923.876	13928
923.984	13989
924.092	13871
924.201	13868
924.309	13940
924.417	13837
924.525	13814
924.633	13879
924.741	14788
924.849	13605
924.956	13814
925.064	13693
925.172	13548
925.279	13540
925.387	13639
925.494	13639
925.602	13731
925.709	13575
925.816	13426
925.924	13464
926.031	13521
926.138	13472
926.245	13552
926.352	13392
926.459	13571
926.566	13620
926.673	13419
926.779	13324
926.886	13312
926.993	13168
927.099	13149
927.206	13122
927.312	13156
927.419	13031
927.525	13107
927.631	13126
927.737	13008
927.843	12878
927.95	12806
928.056	12894
928.162	12913
928.267	12993
928.373	13586
928.479	13072
928.585	12810
928.69	12920
928.796	12989
928.901	12719
929.007	12662
929.112	12764
929.218	12684
929.323	12631
929.428	12646
929.533	12711
929.638	12532
929.743	12486
929.848	12570
929.953	12593
930.058	12426
930.163	12159
930.267	12350
930.372	12467
930.477	12262
930.581	12403
930.685	12292
930.79	12182
930.894	12175
930.998	12194
931.103	12235
931.207	11973
931.311	11885
931.415	11741
931.519	11627
931.623	11528
