Data from test_V78500241_994.txt Node
Date: Fri Mar 25 15:48:41 CST 2022
User: usil
Spectrometer: V785-0024
Trigger mode: 0
Integration Time (sec): 4.000000E-1
Scans to average: 1
Nonlinearity correction enabled: false
Boxcar width: 0
Storing dark spectrum: false
XAxis mode: Wavelengths
Number of Pixels in Spectrum: 1024
>>>>>Begin Spectral Data<<<<<
801.071	28455
801.214	28230
801.356	28044
801.499	27861
801.641	27812
801.783	27869
801.926	27960
802.068	27903
802.211	27842
802.353	27850
802.496	27519
802.638	27629
802.78	27587
802.923	27485
803.065	27576
803.208	27587
803.35	27595
803.492	27709
803.635	27831
803.777	27629
803.919	27827
804.061	27975
804.204	27907
804.346	27781
804.488	27739
804.63	27781
804.773	27648
804.915	27827
805.057	28010
805.199	27861
805.341	27907
805.483	27914
805.626	27899
805.768	27709
805.91	27991
806.052	27911
806.194	27892
806.336	28093
806.478	28112
806.62	28032
806.762	28112
806.904	28329
807.046	28413
807.188	28352
807.33	28470
807.472	28493
807.614	28443
807.756	28390
807.898	28268
808.04	28268
808.182	28303
808.324	28322
808.465	28234
808.607	28584
808.749	28592
808.891	28698
809.033	28839
809.174	28805
809.316	28516
809.458	28641
809.6	28607
809.741	28828
809.883	28698
810.025	28869
810.166	28911
810.308	28984
810.45	28771
810.591	28953
810.733	28740
810.875	28618
811.016	28577
811.158	28413
811.299	28702
811.441	28755
811.582	28828
811.724	28729
811.865	28721
812.007	28698
812.148	28592
812.29	28740
812.431	28744
812.573	28991
812.714	29117
812.855	29216
812.997	29269
813.138	29379
813.279	29410
813.421	29174
813.562	29067
813.703	29033
813.845	28999
813.986	28577
814.127	28493
814.268	28295
814.41	28462
814.551	28421
814.692	28379
814.833	28348
814.974	28318
815.115	28401
815.256	28181
815.397	28226
815.539	28215
815.68	28070
815.821	28101
815.962	28223
816.103	28086
816.244	27968
816.385	28029
816.526	27892
816.666	27755
816.807	27614
816.948	27812
817.089	27774
817.23	27675
817.371	27610
817.512	27724
817.653	27717
817.793	27481
817.934	27561
818.075	27610
818.216	27694
818.356	27755
818.497	27564
818.638	27374
818.778	27427
818.919	27416
819.06	27534
819.2	27667
819.341	27679
819.481	27686
819.622	27819
819.762	27975
819.903	27934
820.043	27827
820.184	27713
820.324	27728
820.465	27778
820.605	27823
820.746	27808
820.886	27713
821.026	27793
821.167	27793
821.307	27819
821.447	27606
821.588	27633
821.728	27530
821.868	27393
822.008	27218
822.149	27264
822.289	27055
822.429	26807
822.569	26807
822.709	26796
822.849	26826
822.99	26708
823.13	26621
823.27	26606
823.41	26499
823.55	26385
823.69	26541
823.83	26522
823.97	26469
824.11	26267
824.25	26210
824.389	26393
824.529	26412
824.669	26313
824.809	26438
824.949	26419
825.089	26495
825.228	26377
825.368	26157
825.508	26195
825.648	26100
825.787	26142
825.927	26282
826.067	26142
826.206	26058
826.346	26332
826.485	26130
826.625	26164
826.765	26423
826.904	26199
827.044	26005
827.183	25989
827.323	25841
827.462	25944
827.601	25944
827.741	25963
827.88	26016
828.02	25826
828.159	25921
828.298	25849
828.437	25944
828.577	25875
828.716	26134
828.855	25791
828.994	25559
829.134	25670
829.273	25635
829.412	25506
829.551	25616
829.69	25643
829.829	25476
829.968	25635
830.107	25502
830.246	25689
830.385	25552
830.524	25468
830.663	25377
830.802	25384
830.941	25232
831.08	25225
831.219	25388
831.357	25327
831.496	25403
831.635	25270
831.774	25213
831.913	25091
832.051	25057
832.19	25133
832.329	24951
832.467	24894
832.606	24863
832.744	24806
832.883	24932
833.022	24817
833.16	24817
833.299	25126
833.437	24852
833.576	24985
833.714	24981
833.852	25076
833.991	25042
834.129	25031
834.267	25004
834.406	25053
834.544	24882
834.682	24924
834.821	24890
834.959	25137
835.097	24905
835.235	24966
835.373	24837
835.511	24989
835.65	24924
835.788	24840
835.926	24635
836.064	24566
836.202	24673
836.34	24909
836.478	24875
836.615	24749
836.753	24779
836.891	24905
837.029	24817
837.167	24700
837.305	24623
837.443	24502
837.58	24536
837.718	24631
837.856	24570
837.993	24544
838.131	24684
838.269	24426
838.406	24555
838.544	24528
838.681	24144
838.819	24251
838.956	24007
839.094	24068
839.231	24136
839.369	24247
839.506	24369
839.643	24235
839.781	24106
839.918	23923
840.055	24144
840.193	23984
840.33	24015
840.467	23946
840.604	24194
840.742	24209
840.879	23821
841.016	23893
841.153	23916
841.29	24022
841.427	23992
841.564	23965
841.701	23908
841.838	23847
841.975	23813
842.112	23882
842.249	23756
842.385	23661
842.522	23939
842.659	23767
842.796	23756
842.933	23737
843.069	23627
843.206	23695
843.343	23870
843.479	23665
843.616	23729
843.752	23471
843.889	23379
844.025	23699
844.162	23528
844.298	23611
844.435	23440
844.571	23410
844.708	23585
844.844	23551
844.98	23505
845.117	23623
845.253	23482
845.389	23341
845.525	23391
845.661	23440
845.798	23162
845.934	23292
846.07	23178
846.206	23204
846.342	23337
846.478	23147
846.614	23132
846.75	22949
846.886	22946
847.022	23105
847.158	23037
847.294	22904
847.429	23071
847.565	23018
847.701	23155
847.837	22786
847.972	22603
848.108	22892
848.244	22778
848.379	22637
848.515	22569
848.65	22546
848.786	22599
848.921	22527
849.057	22599
849.192	22535
849.328	22645
849.463	22432
849.598	22535
849.734	22382
849.869	22497
850.004	22314
850.14	22322
850.275	22344
850.41	22284
850.545	22196
850.68	22234
850.815	22329
850.95	22405
851.085	22500
851.22	22421
851.355	22287
851.49	22310
851.625	22272
851.76	22310
851.895	22135
852.03	22147
852.165	22295
852.299	22280
852.434	22299
852.569	22268
852.703	22265
852.838	22379
852.973	22417
853.107	22337
853.242	22154
853.376	22226
853.511	22032
853.645	22124
853.78	22200
853.914	22207
854.048	22093
854.183	22063
854.317	22124
854.451	22223
854.585	22173
854.72	22204
854.854	22120
854.988	22002
855.122	22158
855.256	21964
855.39	22070
855.524	22204
855.658	22215
855.792	22299
855.926	22097
856.06	22135
856.194	22261
856.327	22048
856.461	22044
856.595	22196
856.729	22021
856.862	22207
856.996	22181
857.13	22196
857.263	22234
857.397	22219
857.53	22131
857.664	22147
857.797	22230
857.931	22261
858.064	22139
858.197	22185
858.331	22166
858.464	21991
858.597	22040
858.731	22017
858.864	22070
858.997	21956
859.13	22230
859.263	22188
859.396	22192
859.529	22124
859.662	22051
859.795	22086
859.928	22169
860.061	22230
860.194	22333
860.327	22204
860.46	22116
860.592	22070
860.725	22299
860.858	22196
860.99	22181
861.123	22048
861.256	22078
861.388	22116
861.521	22592
861.653	22078
861.786	21949
861.918	21827
862.05	21975
862.183	22025
862.315	22128
862.447	22150
862.58	21960
862.712	21846
862.844	21701
862.976	21979
863.108	21861
863.24	22207
863.372	21819
863.504	21808
863.636	21720
863.768	21911
863.9	21956
864.032	21793
864.164	21778
864.296	21880
864.428	21873
864.559	21972
864.691	21960
864.823	21755
864.954	21728
865.086	21759
865.217	21713
865.349	21656
865.48	21797
865.612	21675
865.743	21850
865.875	21762
866.006	21679
866.137	21797
866.269	21724
866.4	21720
866.531	21652
866.662	21599
866.793	21637
866.924	21614
867.055	21663
867.186	21701
867.317	21622
867.448	21519
867.579	21454
867.71	21561
867.841	21599
867.972	21625
868.103	21652
868.233	21614
868.364	21690
868.495	21720
868.625	21873
868.756	22040
868.886	21785
869.017	21850
869.147	21857
869.278	22002
869.408	21842
869.539	21755
869.669	22074
869.799	21922
869.929	22063
870.06	22139
870.19	22135
870.32	22181
870.45	22204
870.58	22360
870.71	22382
870.84	22272
870.97	22325
871.1	22360
871.23	22402
871.36	22413
871.489	22398
871.619	22447
871.749	22443
871.879	22535
872.008	22634
872.138	22554
872.267	22447
872.397	22291
872.526	22261
872.656	22325
872.785	22207
872.915	22588
873.044	22660
873.173	22516
873.303	22531
873.432	22577
873.561	22596
873.69	22531
873.819	22379
873.948	22478
874.077	22428
874.206	22500
874.335	22440
874.464	22607
874.593	22744
874.722	22713
874.851	22615
874.979	22717
875.108	22847
875.237	22694
875.365	22698
875.494	22523
875.623	22752
875.751	22626
875.88	22683
876.008	22866
876.136	22892
876.265	23254
876.393	23140
876.521	23098
876.65	23132
876.778	23105
876.906	23052
877.034	23044
877.162	23140
877.29	23098
877.418	22968
877.546	23102
877.674	22927
877.802	23022
877.93	22984
878.058	23098
878.185	22885
878.313	23098
878.441	22987
878.568	22721
878.696	22938
878.824	23121
878.951	23311
879.079	23208
879.206	23376
879.333	23204
879.461	23075
879.588	23204
879.715	23280
879.842	23360
879.97	23098
880.097	22904
880.224	22957
880.351	22816
880.478	22873
880.605	22919
880.732	22911
880.859	23060
880.986	22957
881.112	23003
881.239	22740
881.366	22523
881.493	22447
881.619	22497
881.746	22500
881.872	22474
881.999	22363
882.125	22348
882.252	22451
882.378	22375
882.505	22523
882.631	22333
882.757	22219
882.883	22131
883.01	22139
883.136	22154
883.262	22032
883.388	21915
883.514	22135
883.64	22105
883.766	22025
883.892	21911
884.018	21918
884.143	22059
884.269	22185
884.395	21907
884.52	21686
884.646	21823
884.772	21804
884.897	21705
885.023	21603
885.148	21694
885.274	21926
885.399	21797
885.524	21717
885.65	21766
885.775	21747
885.9	21717
886.025	21857
886.15	21785
886.275	21660
886.4	21709
886.525	21823
886.65	21644
886.775	21561
886.9	21953
887.025	21994
887.149	21732
887.274	21618
887.399	21450
887.523	21572
887.648	21519
887.773	21523
887.897	21587
888.021	21610
888.146	21466
888.27	21500
888.395	21542
888.519	21538
888.643	21530
888.767	21667
888.891	21454
889.015	21283
889.139	21321
889.263	21226
889.387	21511
889.511	21553
889.635	21439
889.759	21226
889.883	21203
890.006	21310
890.13	21412
890.254	21207
890.377	21237
890.501	21165
890.624	20982
890.748	21157
890.871	21100
890.995	20914
891.118	20918
891.241	20948
891.364	20887
891.488	20937
891.611	20823
891.734	20834
891.857	20925
891.98	20899
892.103	20853
892.226	20762
892.349	20746
892.471	20731
892.594	20765
892.717	20807
892.839	20746
892.962	20796
893.085	20762
893.207	20765
893.33	20716
893.452	20686
893.575	20804
893.697	20746
893.819	20910
893.941	20895
894.064	20861
894.186	20746
894.308	20739
894.43	20781
894.552	20834
894.674	20864
894.796	20648
894.918	20693
895.04	20716
895.161	20644
895.283	20785
895.405	20708
895.526	20785
895.648	20769
895.769	20830
895.891	20800
896.012	20838
896.134	20754
896.255	20788
896.376	20758
896.498	20796
896.619	20796
896.74	20769
896.861	20857
896.982	20967
897.103	21188
897.224	20979
897.345	20982
897.466	20895
897.587	20937
897.708	21112
897.828	20929
897.949	20887
898.07	20762
898.19	20910
898.311	21047
898.431	20849
898.552	20891
898.672	21017
898.792	21005
898.913	20952
899.033	20819
899.153	20819
899.273	20678
899.393	20625
899.513	20621
899.633	20682
899.753	20750
899.873	20621
899.993	20648
900.113	20617
900.232	20670
900.352	20644
900.472	20625
900.591	20533
900.711	20484
900.83	20434
900.95	20689
901.069	20537
901.189	20377
901.308	20256
901.427	19940
901.546	20039
901.665	20046
901.784	20016
901.904	19875
902.023	19731
902.141	19670
902.26	19594
902.379	19651
902.498	19441
902.617	19616
902.735	19491
902.854	19373
902.973	19468
903.091	19308
903.21	19247
903.328	19187
903.446	19129
903.565	19137
903.683	18970
903.801	18989
903.919	19023
904.038	19053
904.156	18814
904.274	18840
904.392	18696
904.51	18719
904.627	18677
904.745	18897
904.863	18772
904.981	18601
905.098	18521
905.216	18479
905.334	18456
905.451	18365
905.569	18346
905.686	18414
905.803	18361
905.921	18247
906.038	18239
906.155	18273
906.272	18178
906.389	18121
906.506	17893
906.623	17935
906.74	18030
906.857	17912
906.974	17901
907.091	17958
907.208	18102
907.324	17946
907.441	17855
907.557	17737
907.674	17676
907.79	17596
907.907	17718
908.023	17676
908.139	17608
908.256	17665
908.372	17611
908.488	17543
908.604	17410
908.72	17398
908.836	17471
908.952	17417
909.068	17463
909.184	17410
909.3	17330
909.415	17349
909.531	17318
909.647	17098
909.762	17109
909.878	17067
909.993	17060
910.108	17079
910.224	17094
910.339	16972
910.454	16908
910.57	17006
910.685	16847
910.8	17113
910.915	16980
911.03	16877
911.145	16691
911.259	16725
911.374	16721
911.489	16622
911.604	16466
911.718	16363
911.833	16341
911.947	16344
912.062	16124
912.176	16436
912.291	16500
912.405	16428
912.519	16622
912.633	16546
912.748	16535
912.862	16265
912.976	16257
913.09	16124
913.204	16215
913.318	16284
913.431	16299
913.545	16185
913.659	16337
913.772	16093
913.886	16013
914	16063
914.113	16071
914.226	16006
914.34	16105
914.453	15857
914.566	16112
914.68	15861
914.793	15869
914.906	15633
915.019	15633
915.132	15542
915.245	15690
915.358	15660
915.47	15701
915.583	15580
915.696	15736
915.809	15637
915.921	15667
916.034	15568
916.146	15408
916.259	15542
916.371	15485
916.483	15564
916.595	15477
916.708	15420
916.82	15416
916.932	15386
917.044	15348
917.156	15252
917.268	15184
917.38	15336
917.491	15157
917.603	15199
917.715	15382
917.826	15317
917.938	15173
918.049	15116
918.161	15154
918.272	15397
918.384	15214
918.495	15188
918.606	15013
918.717	14876
918.828	14891
918.939	15047
919.05	14941
919.161	14956
919.272	14769
919.383	14724
919.494	15024
919.604	15184
919.715	14933
919.826	14899
919.936	14918
920.047	14963
920.157	14986
920.267	15013
920.378	14982
920.488	14834
920.598	15051
920.708	15222
920.818	15089
920.928	15055
921.038	15100
921.148	15272
921.258	14906
921.368	14864
921.477	14735
921.587	14724
921.697	14518
921.806	14724
921.916	14431
922.025	14412
922.134	14294
922.244	14221
922.353	14317
922.462	14214
922.571	14103
922.68	13974
922.789	13868
922.898	13982
923.007	13963
923.116	13913
923.224	13940
923.333	14001
923.442	13795
923.55	13795
923.659	13704
923.767	13856
923.876	13655
923.984	13799
924.092	13662
924.201	13746
924.309	13643
924.417	13788
924.525	13651
924.633	13624
924.741	14438
924.849	13422
924.956	13594
925.064	13407
925.172	13301
925.279	13400
925.387	13400
925.494	13331
925.602	13411
925.709	13381
925.816	13251
925.924	13301
926.031	13354
926.138	13266
926.245	13304
926.352	13156
926.459	13392
926.566	13365
926.673	13160
926.779	13110
926.886	13027
926.993	12924
927.099	12909
927.206	12886
927.312	12909
927.419	12901
927.525	12749
927.631	12844
927.737	12734
927.843	12772
927.95	12627
928.056	12692
928.162	12730
928.267	12730
928.373	13312
928.479	12821
928.585	12517
928.69	12665
928.796	12692
928.901	12494
929.007	12429
929.112	12547
929.218	12540
929.323	12445
929.428	12483
929.533	12513
929.638	12319
929.743	12403
929.848	12490
929.953	12350
930.058	12323
930.163	12117
930.267	12140
930.372	12327
930.477	12060
930.581	12289
930.685	12148
930.79	12038
930.894	12076
930.998	11939
931.103	12155
931.207	11695
931.311	11745
931.415	11608
931.519	11414
931.623	11288
