Data from test_V78500241_3211.txt Node
Date: Fri Mar 25 16:04:02 CST 2022
User: usil
Spectrometer: V785-0024
Trigger mode: 0
Integration Time (sec): 4.000000E-1
Scans to average: 1
Nonlinearity correction enabled: false
Boxcar width: 0
Storing dark spectrum: false
XAxis mode: Wavelengths
Number of Pixels in Spectrum: 1024
>>>>>Begin Spectral Data<<<<<
801.071	28672
801.214	28641
801.356	28542
801.499	28546
801.641	28417
801.783	28257
801.926	28333
802.068	28405
802.211	28333
802.353	28246
802.496	28040
802.638	28112
802.78	27949
802.923	27945
803.065	27926
803.208	27926
803.35	27956
803.492	28169
803.635	28329
803.777	28017
803.919	28284
804.061	28470
804.204	28249
804.346	28299
804.488	28204
804.63	28185
804.773	28219
804.915	28367
805.057	28428
805.199	28242
805.341	28306
805.483	28379
805.626	28398
805.768	28318
805.91	28531
806.052	28428
806.194	28428
806.336	28485
806.478	28379
806.62	28455
806.762	28599
806.904	28888
807.046	28877
807.188	28843
807.33	28930
807.472	28984
807.614	28900
807.756	28938
807.898	28896
808.04	28641
808.182	28698
808.324	28675
808.465	28767
808.607	28972
808.749	29216
808.891	29265
809.033	29273
809.174	29246
809.316	29098
809.458	29250
809.6	29147
809.741	29227
809.883	29269
810.025	29341
810.166	29315
810.308	29410
810.45	29341
810.591	29284
810.733	29280
810.875	29105
811.016	29140
811.158	29098
811.299	29360
811.441	29383
811.582	29269
811.724	29250
811.865	29140
812.007	29178
812.148	29254
812.29	29265
812.431	29280
812.573	29417
812.714	29444
812.855	29783
812.997	29691
813.138	29916
813.279	29733
813.421	29714
813.562	29642
813.703	29467
813.845	29444
813.986	29258
814.127	28934
814.268	28805
814.41	28752
814.551	28740
814.692	29071
814.833	28900
814.974	28881
815.115	28797
815.256	28653
815.397	28812
815.539	28752
815.68	28687
815.821	28485
815.962	28706
816.103	28672
816.244	28592
816.385	28512
816.526	28523
816.666	28329
816.807	28105
816.948	28318
817.089	28238
817.23	28318
817.371	28181
817.512	28154
817.653	28169
817.793	28120
817.934	28192
818.075	28070
818.216	28128
818.356	28086
818.497	28093
818.638	27865
818.778	27911
818.919	27991
819.06	28078
819.2	27975
819.341	28211
819.481	28215
819.622	28341
819.762	28645
819.903	28516
820.043	28367
820.184	28348
820.324	28356
820.465	28421
820.605	28356
820.746	28409
820.886	28139
821.026	28188
821.167	28185
821.307	28249
821.447	28234
821.588	28139
821.728	27941
821.868	27861
822.008	27583
822.149	27720
822.289	27431
822.429	27291
822.569	27344
822.709	27348
822.849	27230
822.99	27157
823.13	27077
823.27	27058
823.41	27013
823.55	26937
823.69	26845
823.83	26952
823.97	26994
824.11	26826
824.25	26739
824.389	26785
824.529	26830
824.669	26773
824.809	26933
824.949	26750
825.089	26838
825.228	26880
825.368	26777
825.508	26727
825.648	26678
825.787	26883
825.927	26769
826.067	26708
826.206	26716
826.346	26781
826.485	26716
826.625	26583
826.765	26758
826.904	26823
827.044	26461
827.183	26549
827.323	26381
827.462	26594
827.601	26298
827.741	26351
827.88	26362
828.02	26324
828.159	26469
828.298	26381
828.437	26530
828.577	26320
828.716	26632
828.855	26355
828.994	26145
829.134	26107
829.273	26134
829.412	26050
829.551	26092
829.69	26107
829.829	26073
829.968	26119
830.107	26191
830.246	26134
830.385	26092
830.524	25936
830.663	26031
830.802	25795
830.941	25742
831.08	25681
831.219	25856
831.357	25811
831.496	25894
831.635	25643
831.774	25655
831.913	25647
832.051	25518
832.19	25559
832.329	25594
832.467	25434
832.606	25434
832.744	25419
832.883	25445
833.022	25354
833.16	25358
833.299	25445
833.437	25369
833.576	25460
833.714	25403
833.852	25411
833.991	25377
834.129	25449
834.267	25586
834.406	25525
834.544	25445
834.682	25445
834.821	25407
834.959	25552
835.097	25339
835.235	25529
835.373	25327
835.511	25464
835.65	25228
835.788	25266
835.926	25255
836.064	25179
836.202	25027
836.34	25282
836.478	25388
836.615	25331
836.753	25293
836.891	25304
837.029	25209
837.167	25209
837.305	25175
837.443	25244
837.58	25038
837.718	25160
837.856	25137
837.993	25027
838.131	25148
838.269	24901
838.406	25019
838.544	24897
838.681	24669
838.819	24658
838.956	24665
839.094	24601
839.231	24574
839.369	24658
839.506	24992
839.643	24802
839.781	24631
839.918	24380
840.055	24574
840.193	24544
840.33	24437
840.467	24566
840.604	24661
840.742	24673
840.879	24429
841.016	24448
841.153	24323
841.29	24574
841.427	24429
841.564	24403
841.701	24433
841.838	24376
841.975	24289
842.112	24437
842.249	24224
842.385	24190
842.522	24426
842.659	24311
842.796	24201
842.933	24243
843.069	24228
843.206	24239
843.343	24342
843.479	24346
843.616	24243
843.752	24076
843.889	23977
844.025	24205
844.162	23916
844.298	23999
844.435	24049
844.571	23843
844.708	24174
844.844	24057
844.98	24079
845.117	24098
845.253	24018
845.389	23752
845.525	23809
845.661	23802
845.798	23790
845.934	23733
846.07	23737
846.206	23805
846.342	23874
846.478	23646
846.614	23482
846.75	23482
846.886	23436
847.022	23452
847.158	23486
847.294	23554
847.429	23547
847.565	23307
847.701	23745
847.837	23155
847.972	23242
848.108	23261
848.244	23113
848.379	23174
848.515	23025
848.65	23083
848.786	22949
848.921	23090
849.057	23132
849.192	23086
849.328	23079
849.463	22949
849.598	22980
849.734	22889
849.869	22911
850.004	22748
850.14	22839
850.275	22866
850.41	22752
850.545	22733
850.68	22725
850.815	22812
850.95	22778
851.085	23075
851.22	22824
851.355	22873
851.49	22774
851.625	22934
851.76	22892
851.895	22611
852.03	22767
852.165	22725
852.299	22797
852.434	22915
852.569	22919
852.703	22752
852.838	22782
852.973	22957
853.107	23018
853.242	22850
853.376	22782
853.511	22573
853.645	22611
853.78	22778
853.914	22698
854.048	22519
854.183	22516
854.317	22626
854.451	22763
854.585	22660
854.72	22531
854.854	22778
854.988	22554
855.122	22660
855.256	22538
855.39	22713
855.524	22645
855.658	22573
855.792	22649
855.926	22683
856.06	22744
856.194	22759
856.327	22588
856.461	22565
856.595	22626
856.729	22618
856.862	22687
856.996	22672
857.13	22729
857.263	22816
857.397	22843
857.53	22554
857.664	22668
857.797	22687
857.931	22706
858.064	22706
858.197	22771
858.331	22710
858.464	22592
858.597	22561
858.731	22516
858.864	22519
858.997	22573
859.13	22622
859.263	22653
859.396	22744
859.529	22683
859.662	22683
859.795	22584
859.928	22580
860.061	22797
860.194	22953
860.327	22656
860.46	22763
860.592	22793
860.725	22736
860.858	22687
860.99	22542
861.123	22508
861.256	22557
861.388	22717
861.521	23345
861.653	22489
861.786	22478
861.918	22421
862.05	22615
862.183	22569
862.315	22493
862.447	22592
862.58	22497
862.712	22421
862.844	22291
862.976	22356
863.108	22440
863.24	22744
863.372	22280
863.504	22379
863.636	22306
863.768	22375
863.9	22287
864.032	22177
864.164	22257
864.296	22306
864.428	22474
864.559	22375
864.691	22455
864.823	22356
864.954	22390
865.086	22428
865.217	22230
865.349	22128
865.48	22310
865.612	22390
865.743	22440
865.875	22105
866.006	22211
866.137	22280
866.269	22287
866.4	22169
866.531	22181
866.662	22067
866.793	22150
866.924	22128
867.055	22200
867.186	22135
867.317	22143
867.448	22063
867.579	22158
867.71	22029
867.841	22032
867.972	22074
868.103	22128
868.233	22086
868.364	22093
868.495	22166
868.625	22413
868.756	22413
868.886	22265
869.017	22375
869.147	22497
869.278	22546
869.408	22470
869.539	22299
869.669	22436
869.799	22455
869.929	22508
870.06	22565
870.19	22721
870.32	22580
870.45	22771
870.58	22797
870.71	22881
870.84	22889
870.97	22687
871.1	22748
871.23	23018
871.36	22866
871.489	22942
871.619	22930
871.749	22930
871.879	23048
872.008	23170
872.138	22995
872.267	22923
872.397	22805
872.526	22835
872.656	22828
872.785	22839
872.915	22953
873.044	23102
873.173	22957
873.303	22915
873.432	23033
873.561	23075
873.69	23029
873.819	23075
873.948	23132
874.077	23098
874.206	22915
874.335	23029
874.464	23071
874.593	23318
874.722	23189
874.851	23360
874.979	23178
875.108	23231
875.237	23315
875.365	23056
875.494	23102
875.623	23353
875.751	23288
875.88	23315
876.008	23360
876.136	23509
876.265	23577
876.393	23771
876.521	23661
876.65	23790
876.778	23691
876.906	23516
877.034	23547
877.162	23554
877.29	23509
877.418	23524
877.546	23672
877.674	23448
877.802	23585
877.93	23665
878.058	23448
878.185	23379
878.313	23436
878.441	23562
878.568	23372
878.696	23444
878.824	23665
878.951	23589
879.079	23767
879.206	23786
879.333	23786
879.461	23634
879.588	23714
879.715	23699
879.842	23733
879.97	23570
880.097	23341
880.224	23356
880.351	23478
880.478	23364
880.605	23356
880.732	23501
880.859	23577
880.986	23478
881.112	23368
881.239	23284
881.366	23071
881.493	23018
881.619	22904
881.746	23105
881.872	22953
881.999	22911
882.125	22793
882.252	22938
882.378	22869
882.505	22976
882.631	22736
882.757	22607
882.883	22675
883.01	22637
883.136	22668
883.262	22478
883.388	22451
883.514	22603
883.64	22641
883.766	22481
883.892	22356
884.018	22474
884.143	22478
884.269	22615
884.395	22299
884.52	22207
884.646	22344
884.772	22131
884.897	22207
885.023	22120
885.148	22268
885.274	22291
885.399	22249
885.524	22265
885.65	22325
885.775	22223
885.9	22356
886.025	22443
886.15	22226
886.275	22230
886.4	22162
886.525	22177
886.65	22036
886.775	22082
886.9	22265
887.025	22360
887.149	22143
887.274	22048
887.399	22105
887.523	22048
887.648	21983
887.773	21842
887.897	21968
888.021	21983
888.146	21915
888.27	21926
888.395	22013
888.519	22055
888.643	21964
888.767	22040
888.891	21892
889.015	21812
889.139	21854
889.263	21895
889.387	21793
889.511	21934
889.635	21892
889.759	21728
889.883	21720
890.006	21812
890.13	21793
890.254	21720
890.377	21698
890.501	21485
890.624	21507
890.748	21648
890.871	21382
890.995	21412
891.118	21260
891.241	21340
891.364	21389
891.488	21382
891.611	21218
891.734	21439
891.857	21454
891.98	21310
892.103	21241
892.226	21348
892.349	21298
892.471	21119
892.594	21192
892.717	21268
892.839	21256
892.962	21283
893.085	21310
893.207	21294
893.33	21058
893.452	21199
893.575	21283
893.697	21226
893.819	21458
893.941	21294
894.064	21279
894.186	21169
894.308	21180
894.43	21249
894.552	21306
894.674	21188
894.796	21074
894.918	21131
895.04	21211
895.161	21313
895.283	21260
895.405	21074
895.526	21233
895.648	21157
895.769	21230
895.891	21275
896.012	21302
896.134	21275
896.255	21241
896.376	21093
896.498	21173
896.619	21291
896.74	21272
896.861	21233
896.982	21492
897.103	21743
897.224	21443
897.345	21447
897.466	21393
897.587	21367
897.708	21595
897.828	21439
897.949	21317
898.07	21310
898.19	21260
898.311	21367
898.431	21405
898.552	21500
898.672	21447
898.792	21393
898.913	21355
899.033	21226
899.153	21226
899.273	21131
899.393	21176
899.513	21207
899.633	21184
899.753	21138
899.873	21116
899.993	21264
900.113	21074
900.232	21188
900.352	21066
900.472	20963
900.591	20941
900.711	21009
900.83	20830
900.95	21096
901.069	20971
901.189	20853
901.308	20587
901.427	20454
901.546	20564
901.665	20473
901.784	20556
901.904	20221
902.023	20336
902.141	20001
902.26	20157
902.379	20039
902.498	20016
902.617	19849
902.735	20020
902.854	19967
902.973	19921
903.091	19670
903.21	19635
903.328	19609
903.446	19499
903.565	19552
903.683	19472
903.801	19369
903.919	19392
904.038	19495
904.156	19122
904.274	19339
904.392	19107
904.51	19266
904.627	19114
904.745	19263
904.863	19171
904.981	19076
905.098	18878
905.216	18943
905.334	18947
905.451	18920
905.569	18741
905.686	18886
905.803	18856
905.921	18620
906.038	18707
906.155	18673
906.272	18547
906.389	18540
906.506	18388
906.623	18475
906.74	18365
906.857	18216
906.974	18330
907.091	18456
907.208	18509
907.324	18403
907.441	18365
907.557	18125
907.674	18209
907.79	17973
907.907	18049
908.023	18171
908.139	18133
908.256	17988
908.372	17946
908.488	17897
908.604	17836
908.72	17775
908.836	17786
908.952	17798
909.068	17851
909.184	17874
909.3	17794
909.415	17817
909.531	17779
909.647	17535
909.762	17493
909.878	17547
909.993	17455
910.108	17425
910.224	17330
910.339	17547
910.454	17223
910.57	17273
910.685	17227
910.8	17520
910.915	17364
911.03	17356
911.145	17083
911.259	17128
911.374	17052
911.489	16961
911.604	17003
911.718	16755
911.833	16919
911.947	16744
912.062	16706
912.176	16771
912.291	16869
912.405	16854
912.519	17086
912.633	16961
912.748	16713
912.862	16706
912.976	16656
913.09	16592
913.204	16550
913.318	16729
913.431	16706
913.545	16637
913.659	16668
913.772	16561
913.886	16478
914	16375
914.113	16478
914.226	16531
914.34	16500
914.453	16261
914.566	16558
914.68	16257
914.793	16272
914.906	16013
915.019	16013
915.132	15934
915.245	16074
915.358	16036
915.47	16021
915.583	16063
915.696	16017
915.809	16059
915.921	16131
916.034	15934
916.146	15873
916.259	15895
916.371	15846
916.483	15937
916.595	15827
916.708	15831
916.82	15926
916.932	15778
917.044	15789
917.156	15728
917.268	15534
917.38	15610
917.491	15500
917.603	15637
917.715	15686
917.826	15610
917.938	15606
918.049	15443
918.161	15523
918.272	15686
918.384	15698
918.495	15492
918.606	15401
918.717	15313
918.828	15397
918.939	15348
919.05	15329
919.161	15249
919.272	15180
919.383	15249
919.494	15367
919.604	15549
919.715	15306
919.826	15218
919.936	15233
920.047	15382
920.157	15439
920.267	15386
920.378	15325
920.488	15397
920.598	15408
920.708	15469
920.818	15530
920.928	15386
921.038	15553
921.148	15587
921.258	15207
921.368	15214
921.477	15108
921.587	15036
921.697	14941
921.806	15001
921.916	14792
922.025	14769
922.134	14689
922.244	14522
922.353	14583
922.462	14530
922.571	14507
922.68	14294
922.789	14332
922.898	14278
923.007	14153
923.116	14358
923.224	14206
923.333	14263
923.442	14115
923.55	14172
923.659	14130
923.767	14252
923.876	14012
923.984	14153
924.092	13997
924.201	13989
924.309	13986
924.417	14020
924.525	13970
924.633	13947
924.741	14701
924.849	13765
924.956	13746
925.064	13723
925.172	13548
925.279	13658
925.387	13693
925.494	13731
925.602	13757
925.709	13681
925.816	13540
925.924	13651
926.031	13723
926.138	13594
926.245	13666
926.352	13540
926.459	13636
926.566	13655
926.673	13468
926.779	13358
926.886	13396
926.993	13266
927.099	13145
927.206	13190
927.312	13110
927.419	13194
927.525	13213
927.631	13225
927.737	13053
927.843	13023
927.95	12947
928.056	12970
928.162	13061
928.267	13103
928.373	13616
928.479	13046
928.585	12913
928.69	13023
928.796	13027
928.901	12875
929.007	12772
929.112	12859
929.218	12760
929.323	12871
929.428	12719
929.533	12776
929.638	12551
929.743	12700
929.848	12726
929.953	12658
930.058	12597
930.163	12380
930.267	12418
930.372	12547
930.477	12384
930.581	12547
930.685	12350
930.79	12251
930.894	12308
930.998	12182
931.103	12407
931.207	11942
931.311	11980
931.415	11859
931.519	11638
931.623	11558
