Data from test_V78500241_2065.txt Node
Date: Fri Mar 25 15:56:06 CST 2022
User: usil
Spectrometer: V785-0024
Trigger mode: 0
Integration Time (sec): 4.000000E-1
Scans to average: 1
Nonlinearity correction enabled: false
Boxcar width: 0
Storing dark spectrum: false
XAxis mode: Wavelengths
Number of Pixels in Spectrum: 1024
>>>>>Begin Spectral Data<<<<<
801.071	28744
801.214	28725
801.356	28588
801.499	28603
801.641	28344
801.783	28238
801.926	28375
802.068	28447
802.211	28280
802.353	28363
802.496	28048
802.638	28101
802.78	28109
802.923	27937
803.065	27975
803.208	28029
803.35	28211
803.492	28173
803.635	28299
803.777	28200
803.919	28341
804.061	28592
804.204	28462
804.346	28219
804.488	28226
804.63	28367
804.773	28287
804.915	28398
805.057	28443
805.199	28261
805.341	28333
805.483	28538
805.626	28485
805.768	28223
805.91	28447
806.052	28573
806.194	28223
806.336	28573
806.478	28527
806.62	28516
806.762	28710
806.904	28805
807.046	28953
807.188	28896
807.33	28938
807.472	28866
807.614	28771
807.756	28961
807.898	28801
808.04	28752
808.182	28603
808.324	28721
808.465	28888
808.607	29041
808.749	29048
808.891	29311
809.033	29326
809.174	29155
809.316	29094
809.458	29212
809.6	29022
809.741	29303
809.883	29220
810.025	29334
810.166	29520
810.308	29402
810.45	29395
810.591	29341
810.733	29162
810.875	29098
811.016	29220
811.158	28961
811.299	29349
811.441	29280
811.582	29337
811.724	29212
811.865	29170
812.007	29200
812.148	29216
812.29	29299
812.431	29391
812.573	29608
812.714	29627
812.855	29535
812.997	29855
813.138	29840
813.279	29832
813.421	29893
813.562	29646
813.703	29512
813.845	29379
813.986	29105
814.127	28930
814.268	28881
814.41	29022
814.551	28942
814.692	29128
814.833	28858
814.974	28809
815.115	28946
815.256	28694
815.397	28908
815.539	28687
815.68	28740
815.821	28706
815.962	28744
816.103	28733
816.244	28523
816.385	28424
816.526	28478
816.666	28405
816.807	28188
816.948	28287
817.089	28257
817.23	28215
817.371	28192
817.512	28257
817.653	28101
817.793	28040
817.934	28192
818.075	28158
818.216	28147
818.356	28200
818.497	28147
818.638	27956
818.778	28006
818.919	28021
819.06	27975
819.2	28188
819.341	28207
819.481	28299
819.622	28371
819.762	28470
819.903	28413
820.043	28413
820.184	28310
820.324	28356
820.465	28268
820.605	28375
820.746	28360
820.886	28082
821.026	28306
821.167	28390
821.307	28272
821.447	28344
821.588	28109
821.728	27899
821.868	27914
822.008	27842
822.149	27618
822.289	27701
822.429	27485
822.569	27348
822.709	27393
822.849	27214
822.99	27127
823.13	27203
823.27	27180
823.41	27043
823.55	26948
823.69	26986
823.83	27047
823.97	26902
824.11	26853
824.25	26887
824.389	26944
824.529	26944
824.669	26929
824.809	26925
824.949	26982
825.089	26906
825.228	26940
825.368	26682
825.508	26735
825.648	26663
825.787	26754
825.927	26689
826.067	26625
826.206	26807
826.346	26811
826.485	26826
826.625	26564
826.765	26693
826.904	26667
827.044	26549
827.183	26480
827.323	26419
827.462	26492
827.601	26453
827.741	26594
827.88	26545
828.02	26374
828.159	26480
828.298	26518
828.437	26495
828.577	26336
828.716	26465
828.855	26438
828.994	26054
829.134	26134
829.273	26100
829.412	25989
829.551	26161
829.69	26016
829.829	26153
829.968	26240
830.107	26210
830.246	26271
830.385	26180
830.524	26054
830.663	25906
830.802	25906
830.941	25727
831.08	25658
831.219	25708
831.357	25909
831.496	25997
831.635	25822
831.774	25731
831.913	25765
832.051	25525
832.19	25449
832.329	25426
832.467	25533
832.606	25354
832.744	25430
832.883	25369
833.022	25301
833.16	25350
833.299	25464
833.437	25476
833.576	25476
833.714	25457
833.852	25662
833.991	25476
834.129	25491
834.267	25571
834.406	25468
834.544	25518
834.682	25426
834.821	25495
834.959	25586
835.097	25381
835.235	25346
835.373	25468
835.511	25582
835.65	25411
835.788	25221
835.926	25046
836.064	25202
836.202	25171
836.34	25263
836.478	25274
836.615	25187
836.753	25301
836.891	25434
837.029	25441
837.167	25244
837.305	25103
837.443	25217
837.58	24996
837.718	25034
837.856	25148
837.993	25042
838.131	25183
838.269	24939
838.406	25088
838.544	24886
838.681	24783
838.819	24810
838.956	24604
839.094	24620
839.231	24631
839.369	24734
839.506	24992
839.643	24833
839.781	24513
839.918	24532
840.055	24547
840.193	24540
840.33	24452
840.467	24631
840.604	24475
840.742	24772
840.879	24330
841.016	24311
841.153	24513
841.29	24585
841.427	24509
841.564	24525
841.701	24483
841.838	24342
841.975	24296
842.112	24350
842.249	24273
842.385	24247
842.522	24475
842.659	24311
842.796	24171
842.933	24171
843.069	24182
843.206	24220
843.343	24262
843.479	24266
843.616	24270
843.752	24026
843.889	23859
844.025	24194
844.162	24060
844.298	24140
844.435	24022
844.571	23950
844.708	23992
844.844	24194
844.98	24247
845.117	24136
845.253	24026
845.389	23893
845.525	23828
845.661	23931
845.798	23726
845.934	23745
846.07	23676
846.206	23726
846.342	23805
846.478	23703
846.614	23592
846.75	23452
846.886	23391
847.022	23524
847.158	23501
847.294	23512
847.429	23436
847.565	23383
847.701	23627
847.837	23193
847.972	23269
848.108	23204
848.244	23227
848.379	23090
848.515	23071
848.65	23041
848.786	23060
848.921	23079
849.057	23223
849.192	23159
849.328	23010
849.463	22976
849.598	23041
849.734	22961
849.869	22778
850.004	22748
850.14	22847
850.275	22694
850.41	22592
850.545	22793
850.68	22850
850.815	22900
850.95	22805
851.085	22987
851.22	22881
851.355	22987
851.49	22797
851.625	22790
851.76	22816
851.895	22637
852.03	22725
852.165	22763
852.299	22927
852.434	22816
852.569	22896
852.703	22744
852.838	22847
852.973	22949
853.107	22885
853.242	22687
853.376	22691
853.511	22634
853.645	22542
853.78	22702
853.914	22592
854.048	22683
854.183	22713
854.317	22626
854.451	22721
854.585	22698
854.72	22653
854.854	22611
854.988	22478
855.122	22607
855.256	22538
855.39	22519
855.524	22577
855.658	22603
855.792	22721
855.926	22599
856.06	22664
856.194	22744
856.327	22713
856.461	22512
856.595	22641
856.729	22531
856.862	22649
856.996	22660
857.13	22748
857.263	22698
857.397	22839
857.53	22626
857.664	22740
857.797	22668
857.931	22710
858.064	22679
858.197	22733
858.331	22596
858.464	22618
858.597	22519
858.731	22557
858.864	22592
858.997	22599
859.13	22554
859.263	22687
859.396	22710
859.529	22603
859.662	22512
859.795	22691
859.928	22630
860.061	22858
860.194	22881
860.327	22645
860.46	22573
860.592	22736
860.725	22679
860.858	22763
860.99	22664
861.123	22542
861.256	22641
861.388	22592
861.521	23143
861.653	22478
861.786	22417
861.918	22493
862.05	22516
862.183	22599
862.315	22504
862.447	22691
862.58	22508
862.712	22314
862.844	22284
862.976	22485
863.108	22303
863.24	22782
863.372	22287
863.504	22341
863.636	22371
863.768	22314
863.9	22371
864.032	22291
864.164	22166
864.296	22424
864.428	22371
864.559	22504
864.691	22440
864.823	22287
864.954	22226
865.086	22318
865.217	22207
865.349	22105
865.48	22318
865.612	22325
865.743	22344
865.875	22284
866.006	22143
866.137	22158
866.269	22188
866.4	22284
866.531	22086
866.662	22097
866.793	21972
866.924	22002
867.055	22185
867.186	22166
867.317	22032
867.448	22131
867.579	22139
867.71	22196
867.841	22036
867.972	22196
868.103	22154
868.233	22166
868.364	22185
868.495	22333
868.625	22306
868.756	22466
868.886	22333
869.017	22360
869.147	22497
869.278	22421
869.408	22344
869.539	22322
869.669	22371
869.799	22580
869.929	22580
870.06	22398
870.19	22634
870.32	22603
870.45	22573
870.58	22778
870.71	22908
870.84	22877
870.97	22839
871.1	22763
871.23	22900
871.36	23083
871.489	22862
871.619	22934
871.749	22953
871.879	23098
872.008	22995
872.138	23075
872.267	23006
872.397	22843
872.526	22881
872.656	22847
872.785	22717
872.915	22930
873.044	23071
873.173	22999
873.303	23037
873.432	23044
873.561	22980
873.69	23025
873.819	22987
873.948	22995
874.077	22908
874.206	23029
874.335	22980
874.464	23044
874.593	23296
874.722	23204
874.851	23265
874.979	23261
875.108	23322
875.237	23056
875.365	23140
875.494	23124
875.623	23341
875.751	23273
875.88	23151
876.008	23303
876.136	23318
876.265	23646
876.393	23821
876.521	23649
876.65	23623
876.778	23653
876.906	23619
877.034	23478
877.162	23444
877.29	23417
877.418	23433
877.546	23516
877.674	23478
877.802	23638
877.93	23490
878.058	23592
878.185	23223
878.313	23608
878.441	23524
878.568	23322
878.696	23471
878.824	23459
878.951	23592
879.079	23703
879.206	23752
879.333	23615
879.461	23573
879.588	23729
879.715	23665
879.842	23665
879.97	23634
880.097	23402
880.224	23334
880.351	23444
880.478	23414
880.605	23337
880.732	23349
880.859	23604
880.986	23509
881.112	23440
881.239	23284
881.366	23090
881.493	22919
881.619	22847
881.746	22892
881.872	23006
881.999	22797
882.125	22904
882.252	23094
882.378	22786
882.505	23025
882.631	22759
882.757	22538
882.883	22683
883.01	22500
883.136	22588
883.262	22432
883.388	22447
883.514	22641
883.64	22615
883.766	22481
883.892	22291
884.018	22318
884.143	22573
884.269	22626
884.395	22363
884.52	22185
884.646	22306
884.772	22112
884.897	22143
885.023	22265
885.148	22352
885.274	22356
885.399	22211
885.524	22074
885.65	22188
885.775	22238
885.9	22162
886.025	22177
886.15	22314
886.275	22120
886.4	22082
886.525	22226
886.65	22154
886.775	21960
886.9	22447
887.025	22367
887.149	22154
887.274	21949
887.399	22025
887.523	21945
887.648	21949
887.773	21934
887.897	21987
888.021	21975
888.146	21915
888.27	21968
888.395	22006
888.519	22166
888.643	21884
888.767	22021
888.891	21880
889.015	21705
889.139	21953
889.263	21713
889.387	21770
889.511	21956
889.635	21857
889.759	21656
889.883	21709
890.006	21755
890.13	21823
890.254	21652
890.377	21572
890.501	21526
890.624	21458
890.748	21576
890.871	21386
890.995	21348
891.118	21294
891.241	21256
891.364	21370
891.488	21336
891.611	21294
891.734	21275
891.857	21294
891.98	21374
892.103	21344
892.226	21287
892.349	21230
892.471	21024
892.594	21108
892.717	21157
892.839	21199
892.962	21096
893.085	21237
893.207	21245
893.33	20971
893.452	21020
893.575	21275
893.697	21188
893.819	21420
893.941	21336
894.064	21321
894.186	21055
894.308	21169
894.43	21252
894.552	21367
894.674	21310
894.796	21146
894.918	21089
895.04	21028
895.161	21127
895.283	21142
895.405	21138
895.526	21241
895.648	21116
895.769	21055
895.891	21123
896.012	21222
896.134	21222
896.255	21165
896.376	21165
896.498	21142
896.619	21211
896.74	21207
896.861	21264
896.982	21507
897.103	21568
897.224	21488
897.345	21211
897.466	21184
897.587	21332
897.708	21370
897.828	21424
897.949	21249
898.07	21207
898.19	21218
898.311	21473
898.431	21374
898.552	21367
898.672	21389
898.792	21473
898.913	21321
899.033	21218
899.153	21173
899.273	21104
899.393	21161
899.513	21237
899.633	21074
899.753	21119
899.873	21009
899.993	21138
900.113	20937
900.232	21123
900.352	20960
900.472	20891
900.591	20792
900.711	20906
900.83	20986
900.95	20807
901.069	20925
901.189	20785
901.308	20632
901.427	20507
901.546	20324
901.665	20465
901.784	20389
901.904	20263
902.023	20111
902.141	20012
902.26	20020
902.379	19955
902.498	19936
902.617	19868
902.735	19909
902.854	19913
902.973	19917
903.091	19616
903.21	19578
903.328	19658
903.446	19476
903.565	19491
903.683	19354
903.801	19099
903.919	19381
904.038	19244
904.156	19168
904.274	19183
904.392	19217
904.51	19126
904.627	19152
904.745	19133
904.863	19080
904.981	18970
905.098	18795
905.216	18886
905.334	18829
905.451	18814
905.569	18783
905.686	18814
905.803	18856
905.921	18620
906.038	18726
906.155	18547
906.272	18509
906.389	18585
906.506	18258
906.623	18372
906.74	18350
906.857	18270
906.974	18338
907.091	18395
907.208	18414
907.324	18304
907.441	18087
907.557	18087
907.674	18190
907.79	18083
907.907	17969
908.023	18076
908.139	18038
908.256	17931
908.372	17927
908.488	17874
908.604	17737
908.72	17733
908.836	17703
908.952	17627
909.068	17649
909.184	17760
909.3	17737
909.415	17729
909.531	17779
909.647	17611
909.762	17482
909.878	17478
909.993	17482
910.108	17417
910.224	17341
910.339	17421
910.454	17204
910.57	17254
910.685	17113
910.8	17391
910.915	17425
911.03	17159
911.145	17147
911.259	16976
911.374	17098
911.489	16949
911.604	17018
911.718	16866
911.833	16774
911.947	16622
912.062	16603
912.176	16702
912.291	16835
912.405	16797
912.519	16934
912.633	16938
912.748	16831
912.862	16733
912.976	16664
913.09	16500
913.204	16538
913.318	16561
913.431	16615
913.545	16679
913.659	16653
913.772	16497
913.886	16398
914	16329
914.113	16402
914.226	16432
914.34	16470
914.453	16219
914.566	16363
914.68	16169
914.793	16169
914.906	15964
915.019	16082
915.132	15850
915.245	15876
915.358	15899
915.47	15930
915.583	15964
915.696	15903
915.809	16097
915.921	16078
916.034	15869
916.146	15865
916.259	15838
916.371	15903
916.483	15934
916.595	15743
916.708	15816
916.82	15804
916.932	15671
917.044	15671
917.156	15538
917.268	15511
917.38	15679
917.491	15622
917.603	15542
917.715	15686
917.826	15591
917.938	15450
918.049	15359
918.161	15439
918.272	15644
918.384	15584
918.495	15466
918.606	15256
918.717	15260
918.828	15348
918.939	15321
919.05	15233
919.161	15355
919.272	14998
919.383	15195
919.494	15332
919.604	15447
919.715	15241
919.826	15119
919.936	15241
920.047	15222
920.157	15268
920.267	15412
920.378	15222
920.488	15226
920.598	15462
920.708	15523
920.818	15382
920.928	15359
921.038	15466
921.148	15542
921.258	15154
921.368	15135
921.477	15001
921.587	15009
921.697	14804
921.806	14982
921.916	14739
922.025	14792
922.134	14613
922.244	14587
922.353	14587
922.462	14552
922.571	14419
922.68	14275
922.789	14259
922.898	14271
923.007	14244
923.116	14301
923.224	14282
923.333	14221
923.442	14073
923.55	14054
923.659	14054
923.767	14111
923.876	13974
923.984	14073
924.092	13868
924.201	13951
924.309	14001
924.417	14016
924.525	13890
924.633	13879
924.741	14876
924.849	13681
924.956	13814
925.064	13578
925.172	13643
925.279	13590
925.387	13639
925.494	13605
925.602	13719
925.709	13666
925.816	13472
925.924	13567
926.031	13666
926.138	13594
926.245	13647
926.352	13445
926.459	13552
926.566	13624
926.673	13392
926.779	13369
926.886	13339
926.993	13213
927.099	13198
927.206	13088
927.312	13110
927.419	13179
927.525	13145
927.631	13114
927.737	13050
927.843	13023
927.95	12947
928.056	12954
928.162	13038
928.267	13038
928.373	13518
928.479	13103
928.585	12825
928.69	12958
928.796	13000
928.901	12852
929.007	12684
929.112	12798
929.218	12795
929.323	12700
929.428	12654
929.533	12722
929.638	12536
929.743	12639
929.848	12585
929.953	12616
930.058	12566
930.163	12388
930.267	12304
930.372	12460
930.477	12243
930.581	12570
930.685	12338
930.79	12273
930.894	12220
930.998	12209
931.103	12384
931.207	11916
931.311	11866
931.415	11714
931.519	11581
931.623	11623
