Data from test_V78500241_38.txt Node
Date: Fri Mar 25 15:42:03 CST 2022
User: usil
Spectrometer: V785-0024
Trigger mode: 0
Integration Time (sec): 4.000000E-1
Scans to average: 1
Nonlinearity correction enabled: false
Boxcar width: 0
Storing dark spectrum: false
XAxis mode: Wavelengths
Number of Pixels in Spectrum: 1024
>>>>>Begin Spectral Data<<<<<
801.071	28641
801.214	28554
801.356	28249
801.499	28360
801.641	28078
801.783	28131
801.926	28131
802.068	27903
802.211	28036
802.353	27895
802.496	27751
802.638	27557
802.78	27485
802.923	27477
803.065	27450
803.208	27606
803.35	27622
803.492	27724
803.635	27956
803.777	27701
803.919	27736
804.061	27998
804.204	27819
804.346	27774
804.488	27591
804.63	27675
804.773	27618
804.915	27644
805.057	27774
805.199	27629
805.341	27705
805.483	27892
805.626	27827
805.768	27705
805.91	27835
806.052	27732
806.194	27751
806.336	27857
806.478	27865
806.62	27804
806.762	27899
806.904	27998
807.046	28093
807.188	28150
807.33	28040
807.472	28352
807.614	28105
807.756	28166
807.898	27922
808.04	27720
808.182	27945
808.324	27945
808.465	27987
808.607	28173
808.749	28181
808.891	28341
809.033	28401
809.174	28299
809.316	28173
809.458	28150
809.6	28185
809.741	28287
809.883	28508
810.025	28405
810.166	28413
810.308	28573
810.45	28447
810.591	28379
810.733	28242
810.875	28215
811.016	28101
811.158	28063
811.299	28303
811.441	28287
811.582	28249
811.724	28158
811.865	28116
812.007	27994
812.148	28101
812.29	28154
812.431	28344
812.573	28356
812.714	28481
812.855	28596
812.997	28637
813.138	28748
813.279	28744
813.421	28615
813.562	28554
813.703	28440
813.845	28295
813.986	27949
814.127	27797
814.268	27698
814.41	27774
814.551	27637
814.692	27766
814.833	27614
814.974	27641
815.115	27606
815.256	27603
815.397	27542
815.539	27526
815.68	27553
815.821	27321
815.962	27496
816.103	27313
816.244	27260
816.385	27203
816.526	27074
816.666	26986
816.807	26739
816.948	26750
817.089	26937
817.23	26891
817.371	26796
817.512	26750
817.653	26609
817.793	26716
817.934	26746
818.075	26746
818.216	26815
818.356	26724
818.497	26590
818.638	26450
818.778	26438
818.919	26427
819.06	26476
819.2	26480
819.341	26678
819.481	26613
819.622	26868
819.762	27013
819.903	26807
820.043	26800
820.184	26705
820.324	26826
820.465	26834
820.605	26750
820.746	26754
820.886	26556
821.026	26731
821.167	26503
821.307	26670
821.447	26541
821.588	26579
821.728	26499
821.868	26256
822.008	25982
822.149	26035
822.289	26035
822.429	25693
822.569	25571
822.709	25693
822.849	25483
822.99	25601
823.13	25426
823.27	25430
823.41	25289
823.55	25285
823.69	25343
823.83	25282
823.97	25202
824.11	25000
824.25	25076
824.389	25084
824.529	25183
824.669	25095
824.809	25183
824.949	24996
825.089	25072
825.228	25038
825.368	24928
825.508	24916
825.648	24798
825.787	24852
825.927	25061
826.067	24852
826.206	24829
826.346	24913
826.485	24886
826.625	24932
826.765	24901
826.904	25008
827.044	24642
827.183	24597
827.323	24517
827.462	24551
827.601	24391
827.741	24563
827.88	24578
828.02	24426
828.159	24559
828.298	24521
828.437	24532
828.577	24456
828.716	24536
828.855	24407
828.994	24270
829.134	24311
829.273	24270
829.412	24087
829.551	24076
829.69	24018
829.829	24224
829.968	24148
830.107	24330
830.246	24277
830.385	24106
830.524	24018
830.663	23931
830.802	23866
830.941	23672
831.08	23733
831.219	23687
831.357	23745
831.496	23893
831.635	23646
831.774	23520
831.913	23509
832.051	23444
832.19	23524
832.329	23455
832.467	23383
832.606	23372
832.744	23280
832.883	23360
833.022	23345
833.16	23345
833.299	23311
833.437	23318
833.576	23440
833.714	23311
833.852	23379
833.991	23330
834.129	23402
834.267	23417
834.406	23410
834.544	23318
834.682	23242
834.821	23421
834.959	23379
835.097	23109
835.235	23330
835.373	23284
835.511	23254
835.65	23159
835.788	23117
835.926	23128
836.064	22919
836.202	23056
836.34	23185
836.478	23200
836.615	23117
836.753	23155
836.891	23269
837.029	23105
837.167	22938
837.305	23094
837.443	22999
837.58	23052
837.718	22965
837.856	23010
837.993	22881
838.131	22915
838.269	22980
838.406	22892
838.544	22748
838.681	22599
838.819	22485
838.956	22523
839.094	22322
839.231	22485
839.369	22542
839.506	22713
839.643	22580
839.781	22322
839.918	22287
840.055	22306
840.193	22188
840.33	22276
840.467	22352
840.604	22356
840.742	22527
840.879	22082
841.016	22211
841.153	22173
841.29	22295
841.427	22261
841.564	22329
841.701	22188
841.838	22253
841.975	22162
842.112	22185
842.249	22124
842.385	22017
842.522	22200
842.659	21968
842.796	21854
842.933	21732
843.069	21823
843.206	21941
843.343	22044
843.479	22036
843.616	21903
843.752	21838
843.889	21667
844.025	21895
844.162	21625
844.298	21873
844.435	21770
844.571	21720
844.708	21690
844.844	21899
844.98	21747
845.117	21633
845.253	21587
845.389	21450
845.525	21595
845.661	21591
845.798	21408
845.934	21561
846.07	21454
846.206	21481
846.342	21538
846.478	21405
846.614	21279
846.75	21017
846.886	21093
847.022	21058
847.158	21066
847.294	21192
847.429	21157
847.565	21093
847.701	21298
847.837	20834
847.972	20739
848.108	20982
848.244	20872
848.379	20667
848.515	20640
848.65	20571
848.786	20651
848.921	20530
849.057	20754
849.192	20796
849.328	20727
849.463	20754
849.598	20659
849.734	20503
849.869	20488
850.004	20396
850.14	20385
850.275	20526
850.41	20336
850.545	20263
850.68	20450
850.815	20309
850.95	20400
851.085	20457
851.22	20423
851.355	20415
851.49	20294
851.625	20336
851.76	20450
851.895	20282
852.03	20214
852.165	20419
852.299	20332
852.434	20385
852.569	20431
852.703	20347
852.838	20328
852.973	20469
853.107	20377
853.242	20256
853.376	20248
853.511	20149
853.645	20103
853.78	20267
853.914	20358
854.048	20107
854.183	20161
854.317	20294
854.451	20377
854.585	20069
854.72	20084
854.854	20271
854.988	20145
855.122	20065
855.256	20161
855.39	20176
855.524	20313
855.658	20210
855.792	20237
855.926	20221
856.06	20267
856.194	20263
856.327	20233
856.461	20035
856.595	20107
856.729	20103
856.862	20206
856.996	20065
857.13	20240
857.263	20244
857.397	20317
857.53	20191
857.664	20225
857.797	20191
857.931	20161
858.064	20176
858.197	20191
858.331	20195
858.464	20012
858.597	19947
858.731	20058
858.864	19963
858.997	20039
859.13	20164
859.263	20122
859.396	20164
859.529	19970
859.662	20027
859.795	20062
859.928	20100
860.061	20199
860.194	20218
860.327	20145
860.46	20096
860.592	19917
860.725	20168
860.858	20134
860.99	19997
861.123	20100
861.256	19993
861.388	20103
861.521	20583
861.653	19852
861.786	19894
861.918	19974
862.05	20062
862.183	20100
862.315	20202
862.447	20103
862.58	20073
862.712	19814
862.844	19849
862.976	19791
863.108	19894
863.24	20157
863.372	19807
863.504	19727
863.636	19879
863.768	19868
863.9	19776
864.032	19635
864.164	19628
864.296	19700
864.428	19776
864.559	19784
864.691	19830
864.823	19852
864.954	19803
865.086	19693
865.217	19734
865.349	19677
865.48	19666
865.612	19632
865.743	19826
865.875	19620
866.006	19674
866.137	19651
866.269	19594
866.4	19601
866.531	19677
866.662	19750
866.793	19586
866.924	19544
867.055	19506
867.186	19578
867.317	19400
867.448	19605
867.579	19677
867.71	19590
867.841	19400
867.972	19586
868.103	19559
868.233	19655
868.364	19605
868.495	19674
868.625	19822
868.756	20027
868.886	19757
869.017	19807
869.147	19868
869.278	19967
869.408	19731
869.539	19791
869.669	19913
869.799	19917
869.929	19951
870.06	19765
870.19	20187
870.32	20092
870.45	20225
870.58	20233
870.71	20339
870.84	20248
870.97	20187
871.1	19989
871.23	20389
871.36	20343
871.489	20328
871.619	20278
871.749	20423
871.879	20415
872.008	20499
872.138	20454
872.267	20396
872.397	20301
872.526	20298
872.656	20332
872.785	20336
872.915	20442
873.044	20454
873.173	20381
873.303	20419
873.432	20495
873.561	20571
873.69	20499
873.819	20450
873.948	20556
874.077	20473
874.206	20438
874.335	20374
874.464	20575
874.593	20674
874.722	20659
874.851	20727
874.979	20651
875.108	20765
875.237	20708
875.365	20590
875.494	20689
875.623	20826
875.751	20621
875.88	20727
876.008	20838
876.136	20880
876.265	21039
876.393	21313
876.521	21058
876.65	21252
876.778	21165
876.906	20956
877.034	21077
877.162	21032
877.29	20990
877.418	21028
877.546	21051
877.674	20933
877.802	21074
877.93	21089
878.058	21017
878.185	21028
878.313	21058
878.441	21039
878.568	20956
878.696	21009
878.824	21165
878.951	21192
879.079	21256
879.206	21298
879.333	21291
879.461	21138
879.588	21173
879.715	21386
879.842	21317
879.97	21203
880.097	20891
880.224	20864
880.351	20921
880.478	20857
880.605	20815
880.732	20918
880.859	21116
880.986	20910
881.112	20853
881.239	20735
881.366	20750
881.493	20556
881.619	20431
881.746	20541
881.872	20590
881.999	20374
882.125	20518
882.252	20492
882.378	20476
882.505	20701
882.631	20324
882.757	20202
882.883	20263
883.01	20374
883.136	20343
883.262	20111
883.388	20157
883.514	20256
883.64	20358
883.766	20233
883.892	20043
884.018	20161
884.143	20256
884.269	20282
884.395	19951
884.52	19868
884.646	19925
884.772	19928
884.897	19700
885.023	19997
885.148	20046
885.274	19902
885.399	20111
885.524	19925
885.65	19925
885.775	19967
885.9	19959
886.025	20024
886.15	19963
886.275	19822
886.4	19833
886.525	19826
886.65	19822
886.775	19753
886.9	20031
887.025	20103
887.149	19746
887.274	19700
887.399	19765
887.523	19605
887.648	19521
887.773	19578
887.897	19753
888.021	19689
888.146	19571
888.27	19723
888.395	19662
888.519	19738
888.643	19719
888.767	19700
888.891	19525
889.015	19559
889.139	19384
889.263	19445
889.387	19521
889.511	19632
889.635	19552
889.759	19430
889.883	19460
890.006	19460
890.13	19552
890.254	19377
890.377	19415
890.501	19206
890.624	19107
890.748	19320
890.871	19164
890.995	18985
891.118	18981
891.241	19080
891.364	19091
891.488	19145
891.611	19107
891.734	19057
891.857	19137
891.98	19046
892.103	19107
892.226	19015
892.349	19126
892.471	18810
892.594	19072
892.717	18985
892.839	18924
892.962	19042
893.085	19061
893.207	19091
893.33	18859
893.452	18882
893.575	18970
893.697	18916
893.819	19103
893.941	19244
894.064	19084
894.186	19046
894.308	18856
894.43	19114
894.552	19046
894.674	19179
894.796	18935
894.918	18996
895.04	19084
895.161	19050
895.283	19023
895.405	18935
895.526	18970
895.648	18973
895.769	19046
895.891	19027
896.012	19152
896.134	19046
896.255	19072
896.376	19038
896.498	19015
896.619	19171
896.74	19061
896.861	19137
896.982	19453
897.103	19582
897.224	19297
897.345	19343
897.466	19232
897.587	19301
897.708	19411
897.828	19266
897.949	19156
898.07	19099
898.19	19133
898.311	19358
898.431	19194
898.552	19221
898.672	19164
898.792	19278
898.913	19183
899.033	19152
899.153	18932
899.273	18897
899.393	18943
899.513	18951
899.633	18966
899.753	18962
899.873	18882
899.993	19012
900.113	18913
900.232	18966
900.352	18779
900.472	18920
900.591	18665
900.711	18673
900.83	18726
900.95	18916
901.069	18859
901.189	18703
901.308	18426
901.427	18388
901.546	18429
901.665	18407
901.784	18410
901.904	18281
902.023	18182
902.141	17946
902.26	17878
902.379	17980
902.498	17889
902.617	17775
902.735	17904
902.854	17950
902.973	17760
903.091	17589
903.21	17543
903.328	17596
903.446	17455
903.565	17395
903.683	17391
903.801	17334
903.919	17299
904.038	17364
904.156	17136
904.274	17220
904.392	17086
904.51	17159
904.627	17079
904.745	17246
904.863	17166
904.981	16972
905.098	16801
905.216	16793
905.334	16835
905.451	16736
905.569	16847
905.686	16835
905.803	16820
905.921	16573
906.038	16721
906.155	16519
906.272	16508
906.389	16538
906.506	16443
906.623	16375
906.74	16276
906.857	16363
906.974	16268
907.091	16443
907.208	16402
907.324	16417
907.441	16230
907.557	16059
907.674	16048
907.79	15991
907.907	16109
908.023	16071
908.139	16025
908.256	16021
908.372	15949
908.488	15816
908.604	15736
908.72	15625
908.836	15698
908.952	15667
909.068	15762
909.184	15873
909.3	15701
909.415	15808
909.531	15641
909.647	15447
909.762	15401
909.878	15439
909.993	15397
910.108	15401
910.224	15306
910.339	15401
910.454	15306
910.57	15214
910.685	15180
910.8	15412
910.915	15386
911.03	15283
911.145	15070
911.259	15032
911.374	15081
911.489	14906
911.604	14872
911.718	14762
911.833	14838
911.947	14777
912.062	14807
912.176	14697
912.291	14796
912.405	14773
912.519	15051
912.633	14937
912.748	14819
912.862	14697
912.976	14625
913.09	14381
913.204	14545
913.318	14541
913.431	14701
913.545	14724
913.659	14705
913.772	14514
913.886	14396
914	14358
914.113	14511
914.226	14431
914.34	14419
914.453	14374
914.566	14537
914.68	14301
914.793	14237
914.906	14024
915.019	14077
915.132	14111
915.245	14043
915.358	14062
915.47	14054
915.583	14073
915.696	14092
915.809	14126
915.921	14153
916.034	13928
916.146	13902
916.259	13955
916.371	14031
916.483	13986
916.595	13868
916.708	13913
916.82	13875
916.932	13826
917.044	13871
917.156	13814
917.268	13677
917.38	13757
917.491	13575
917.603	13784
917.715	13887
917.826	13845
917.938	13704
918.049	13525
918.161	13723
918.272	13788
918.384	13856
918.495	13586
918.606	13563
918.717	13480
918.828	13548
918.939	13533
919.05	13506
919.161	13491
919.272	13324
919.383	13373
919.494	13464
919.604	13685
919.715	13472
919.826	13419
919.936	13373
920.047	13453
920.157	13499
920.267	13616
920.378	13445
920.488	13365
920.598	13540
920.708	13750
920.818	13674
920.928	13559
921.038	13845
921.148	13624
921.258	13480
921.368	13365
921.477	13255
921.587	13297
921.697	13088
921.806	13168
921.916	13012
922.025	12970
922.134	12859
922.244	12947
922.353	12825
922.462	12658
922.571	12589
922.68	12559
922.789	12506
922.898	12525
923.007	12483
923.116	12452
923.224	12467
923.333	12437
923.442	12353
923.55	12281
923.659	12338
923.767	12372
923.876	12384
923.984	12338
924.092	12239
924.201	12281
924.309	12350
924.417	12311
924.525	12220
924.633	12197
924.741	13114
924.849	12049
924.956	12144
925.064	11992
925.172	11904
925.279	11954
925.387	12022
925.494	12019
925.602	12243
925.709	12019
925.816	11889
925.924	11946
926.031	12022
926.138	11977
926.245	11973
926.352	11802
926.459	12022
926.566	11927
926.673	11851
926.779	11794
926.886	11657
926.993	11653
927.099	11596
927.206	11554
927.312	11455
927.419	11600
927.525	11581
927.631	11653
927.737	11353
927.843	11414
927.95	11296
928.056	11360
928.162	11493
928.267	11486
928.373	12083
928.479	11463
928.585	11197
928.69	11326
928.796	11421
928.901	11307
929.007	11124
929.112	11326
929.218	11277
929.323	11124
929.428	11121
929.533	11269
929.638	11022
929.743	11086
929.848	11166
929.953	11048
930.058	10915
930.163	10767
930.267	10809
930.372	10896
930.477	10694
930.581	10984
930.685	10889
930.79	10710
930.894	10729
930.998	10656
931.103	10835
931.207	10489
931.311	10432
931.415	10329
931.519	10112
931.623	10109
