Data from test_V78500241_1365.txt Node
Date: Fri Mar 25 15:51:15 CST 2022
User: usil
Spectrometer: V785-0024
Trigger mode: 0
Integration Time (sec): 4.000000E-1
Scans to average: 1
Nonlinearity correction enabled: false
Boxcar width: 0
Storing dark spectrum: false
XAxis mode: Wavelengths
Number of Pixels in Spectrum: 1024
>>>>>Begin Spectral Data<<<<<
801.071	28226
801.214	28169
801.356	27979
801.499	27934
801.641	27831
801.783	27857
801.926	27797
802.068	27781
802.211	27762
802.353	27720
802.496	27606
802.638	27424
802.78	27576
802.923	27401
803.065	27325
803.208	27443
803.35	27500
803.492	27549
803.635	27686
803.777	27538
803.919	27625
804.061	28059
804.204	27739
804.346	27614
804.488	27652
804.63	27618
804.773	27652
804.915	27739
805.057	27751
805.199	27675
805.341	27850
805.483	27865
805.626	27823
805.768	27800
805.91	27884
806.052	27956
806.194	27766
806.336	28025
806.478	27880
806.62	27819
806.762	27983
806.904	28181
807.046	28470
807.188	28424
807.33	28375
807.472	28428
807.614	28261
807.756	28337
807.898	28265
808.04	28200
808.182	28124
808.324	28166
808.465	28200
808.607	28398
808.749	28470
808.891	28470
809.033	28683
809.174	28535
809.316	28599
809.458	28386
809.6	28466
809.741	28645
809.883	28618
810.025	28908
810.166	28812
810.308	28900
810.45	28790
810.591	28835
810.733	28557
810.875	28500
811.016	28424
811.158	28344
811.299	28752
811.441	28706
811.582	28679
811.724	28592
811.865	28424
812.007	28440
812.148	28557
812.29	28573
812.431	28698
812.573	28843
812.714	28991
812.855	28999
812.997	29056
813.138	29075
813.279	29166
813.421	29117
813.562	28946
813.703	28801
813.845	28729
813.986	28405
814.127	28409
814.268	28230
814.41	28360
814.551	28128
814.692	28280
814.833	28325
814.974	28238
815.115	28306
815.256	28105
815.397	28116
815.539	28063
815.68	28040
815.821	27865
815.962	28032
816.103	28063
816.244	27800
816.385	27823
816.526	27755
816.666	27603
816.807	27507
816.948	27443
817.089	27682
817.23	27622
817.371	27488
817.512	27576
817.653	27454
817.793	27477
817.934	27523
818.075	27523
818.216	27572
818.356	27424
818.497	27504
818.638	27218
818.778	27294
818.919	27302
819.06	27302
819.2	27389
819.341	27603
819.481	27545
819.622	27633
819.762	27804
819.903	27705
820.043	27774
820.184	27701
820.324	27610
820.465	27641
820.605	27739
820.746	27564
820.886	27564
821.026	27724
821.167	27660
821.307	27637
821.447	27713
821.588	27504
821.728	27405
821.868	27165
822.008	27024
822.149	26994
822.289	27005
822.429	26788
822.569	26655
822.709	26769
822.849	26537
822.99	26686
823.13	26492
823.27	26434
823.41	26457
823.55	26252
823.69	26419
823.83	26366
823.97	26370
824.11	26172
824.25	26088
824.389	26100
824.529	26320
824.669	26248
824.809	26313
824.949	26229
825.089	26263
825.228	26191
825.368	26111
825.508	26073
825.648	26027
825.787	26248
825.927	26172
826.067	26107
826.206	26081
826.346	26081
826.485	26153
826.625	26069
826.765	26062
826.904	26069
827.044	25738
827.183	25715
827.323	25947
827.462	25826
827.601	25731
827.741	25765
827.88	25734
828.02	25712
828.159	25780
828.298	25708
828.437	25814
828.577	25700
828.716	25795
828.855	25677
828.994	25441
829.134	25430
829.273	25499
829.412	25575
829.551	25400
829.69	25495
829.829	25407
829.968	25491
830.107	25514
830.246	25457
830.385	25350
830.524	25270
830.663	25236
830.802	25156
830.941	25091
831.08	25061
831.219	25133
831.357	25053
831.496	25274
831.635	25046
831.774	24996
831.913	24966
832.051	24924
832.19	24947
832.329	24856
832.467	24791
832.606	24635
832.744	24719
832.883	24810
833.022	24604
833.16	24817
833.299	24802
833.437	24734
833.576	24875
833.714	24810
833.852	24859
833.991	24787
834.129	24863
834.267	24886
834.406	24863
834.544	24882
834.682	24757
834.821	24722
834.959	24924
835.097	24722
835.235	24844
835.373	24730
835.511	24768
835.65	24620
835.788	24566
835.926	24475
836.064	24536
836.202	24391
836.34	24688
836.478	24635
836.615	24639
836.753	24730
836.891	24593
837.029	24681
837.167	24559
837.305	24376
837.443	24464
837.58	24494
837.718	24570
837.856	24407
837.993	24418
838.131	24464
838.269	24460
838.406	24311
838.544	24277
838.681	24197
838.819	24125
838.956	23939
839.094	23912
839.231	23973
839.369	24038
839.506	24266
839.643	24194
839.781	24034
839.918	23859
840.055	23923
840.193	23889
840.33	23870
840.467	23756
840.604	23912
840.742	24194
840.879	23672
841.016	23623
841.153	23653
841.29	23901
841.427	23813
841.564	23904
841.701	23824
841.838	23695
841.975	23741
842.112	23687
842.249	23646
842.385	23665
842.522	23794
842.659	23604
842.796	23745
842.933	23596
843.069	23497
843.206	23638
843.343	23703
843.479	23592
843.616	23558
843.752	23326
843.889	23402
844.025	23349
844.162	23307
844.298	23471
844.435	23463
844.571	23284
844.708	23349
844.844	23611
844.98	23398
845.117	23463
845.253	23387
845.389	23102
845.525	23193
845.661	23246
845.798	22953
845.934	23269
846.07	23128
846.206	22999
846.342	23242
846.478	23079
846.614	22915
846.75	22805
846.886	22767
847.022	22908
847.158	22812
847.294	22862
847.429	22873
847.565	22797
847.701	23140
847.837	22474
847.972	22493
848.108	22637
848.244	22603
848.379	22462
848.515	22363
848.65	22447
848.786	22436
848.921	22432
849.057	22478
849.192	22428
849.328	22485
849.463	22405
849.598	22405
849.734	22253
849.869	22226
850.004	22162
850.14	22238
850.275	22169
850.41	21994
850.545	22158
850.68	22090
850.815	22257
850.95	22169
851.085	22341
851.22	22272
851.355	22158
851.49	22139
851.625	22131
851.76	22272
851.895	22139
852.03	22101
852.165	22223
852.299	22162
852.434	22325
852.569	22120
852.703	22219
852.838	22238
852.973	22150
853.107	22200
853.242	22188
853.376	22029
853.511	21964
853.645	22025
853.78	22010
853.914	22051
854.048	21880
854.183	21975
854.317	22090
854.451	22207
854.585	21975
854.72	21945
854.854	22032
854.988	21888
855.122	22074
855.256	21789
855.39	21876
855.524	22032
855.658	21998
855.792	21941
855.926	21983
856.06	22021
856.194	22036
856.327	21880
856.461	21899
856.595	22021
856.729	22040
856.862	22090
856.996	22006
857.13	22063
857.263	22086
857.397	22101
857.53	22036
857.664	21998
857.797	22025
857.931	22086
858.064	21941
858.197	22223
858.331	22032
858.464	21934
858.597	21838
858.731	21926
858.864	22097
858.997	22059
859.13	21983
859.263	21987
859.396	21991
859.529	22067
859.662	22010
859.795	21994
859.928	21945
860.061	22173
860.194	22112
860.327	21869
860.46	21972
860.592	22070
860.725	22158
860.858	22147
860.99	21911
861.123	21907
861.256	21953
861.388	21964
861.521	22664
861.653	21835
861.786	21808
861.918	21747
862.05	21876
862.183	21991
862.315	21994
862.447	21911
862.58	21793
862.712	21644
862.844	21690
862.976	21770
863.108	21743
863.24	22268
863.372	21701
863.504	21819
863.636	21728
863.768	21686
863.9	21717
864.032	21538
864.164	21663
864.296	21770
864.428	21808
864.559	21728
864.691	21778
864.823	21812
864.954	21682
865.086	21652
865.217	21603
865.349	21458
865.48	21519
865.612	21576
865.743	21701
865.875	21705
866.006	21618
866.137	21610
866.269	21603
866.4	21549
866.531	21507
866.662	21526
866.793	21572
866.924	21572
867.055	21511
867.186	21507
867.317	21504
867.448	21355
867.579	21530
867.71	21477
867.841	21378
867.972	21553
868.103	21515
868.233	21416
868.364	21412
868.495	21606
868.625	21781
868.756	21816
868.886	21709
869.017	21736
869.147	21850
869.278	21812
869.408	21838
869.539	21724
869.669	21751
869.799	21747
869.929	21880
870.06	21739
870.19	22139
870.32	21968
870.45	22128
870.58	22200
870.71	22226
870.84	22059
870.97	22169
871.1	22185
871.23	22268
871.36	22268
871.489	22177
871.619	22318
871.749	22318
871.879	22344
872.008	22459
872.138	22265
872.267	22386
872.397	22211
872.526	22246
872.656	22230
872.785	22135
872.915	22379
873.044	22363
873.173	22371
873.303	22367
873.432	22405
873.561	22519
873.69	22284
873.819	22360
873.948	22363
874.077	22360
874.206	22344
874.335	22291
874.464	22474
874.593	22694
874.722	22618
874.851	22618
874.979	22599
875.108	22694
875.237	22459
875.365	22500
875.494	22641
875.623	22721
875.751	22519
875.88	22554
876.008	22630
876.136	22805
876.265	22957
876.393	23075
876.521	22987
876.65	23086
876.778	23037
876.906	23052
877.034	22934
877.162	22896
877.29	22816
877.418	22915
877.546	23044
877.674	22968
877.802	22965
877.93	22953
878.058	22828
878.185	22797
878.313	22854
878.441	22972
878.568	22694
878.696	22862
878.824	23006
878.951	23018
879.079	23041
879.206	23277
879.333	23204
879.461	22987
879.588	23102
879.715	23105
879.842	23075
879.97	23090
880.097	22721
880.224	22786
880.351	22782
880.478	22782
880.605	22759
880.732	22713
880.859	22987
880.986	22717
881.112	22641
881.239	22675
881.366	22394
881.493	22325
881.619	22207
881.746	22382
881.872	22284
881.999	22337
882.125	22200
882.252	22238
882.378	22318
882.505	22386
882.631	22109
882.757	22040
882.883	22051
883.01	21998
883.136	21949
883.262	21907
883.388	21816
883.514	22074
883.64	22086
883.766	21968
883.892	21789
884.018	21888
884.143	21911
884.269	22116
884.395	21622
884.52	21690
884.646	21644
884.772	21595
884.897	21580
885.023	21660
885.148	21713
885.274	21869
885.399	21770
885.524	21622
885.65	21637
885.775	21759
885.9	21637
886.025	21903
886.15	21747
886.275	21629
886.4	21526
886.525	21705
886.65	21561
886.775	21618
886.9	21736
887.025	21846
887.149	21473
887.274	21553
887.399	21340
887.523	21420
887.648	21264
887.773	21226
887.897	21386
888.021	21538
888.146	21416
888.27	21504
888.395	21500
888.519	21435
888.643	21462
888.767	21431
888.891	21252
889.015	21188
889.139	21325
889.263	21203
889.387	21317
889.511	21454
889.635	21424
889.759	21112
889.883	21150
890.006	21138
890.13	21291
890.254	21051
890.377	21275
890.501	20906
890.624	20952
890.748	21009
890.871	20830
890.995	20777
891.118	20632
891.241	20727
891.364	20773
891.488	20735
891.611	20724
891.734	20743
891.857	20895
891.98	20765
892.103	20792
892.226	20811
892.349	20587
892.471	20587
892.594	20739
892.717	20727
892.839	20686
892.962	20697
893.085	20697
893.207	20587
893.33	20552
893.452	20568
893.575	20651
893.697	20598
893.819	20663
893.941	20785
894.064	20857
894.186	20579
894.308	20423
894.43	20720
894.552	20792
894.674	20739
894.796	20598
894.918	20617
895.04	20579
895.161	20667
895.283	20708
895.405	20598
895.526	20663
895.648	20606
895.769	20655
895.891	20644
896.012	20720
896.134	20644
896.255	20621
896.376	20590
896.498	20590
896.619	20621
896.74	20457
896.861	20598
896.982	20902
897.103	21085
897.224	20880
897.345	20796
897.466	20750
897.587	20853
897.708	20990
897.828	21024
897.949	20807
898.07	20632
898.19	20804
898.311	20872
898.431	20746
898.552	20834
898.672	20857
898.792	20929
898.913	20914
899.033	20842
899.153	20575
899.273	20556
899.393	20785
899.513	20526
899.633	20541
899.753	20739
899.873	20549
899.993	20575
900.113	20476
900.232	20530
900.352	20594
900.472	20385
900.591	20427
900.711	20431
900.83	20347
900.95	20476
901.069	20366
901.189	20225
901.308	20073
901.427	19921
901.546	19951
901.665	19947
901.784	19940
901.904	19734
902.023	19769
902.141	19491
902.26	19518
902.379	19605
902.498	19438
902.617	19384
902.735	19472
902.854	19434
902.973	19312
903.091	19255
903.21	19065
903.328	19118
903.446	19069
903.565	18897
903.683	18859
903.801	18814
903.919	18962
904.038	18901
904.156	18707
904.274	18726
904.392	18593
904.51	18749
904.627	18642
904.745	18730
904.863	18730
904.981	18479
905.098	18422
905.216	18399
905.334	18292
905.451	18266
905.569	18300
905.686	18384
905.803	18308
905.921	18053
906.038	18330
906.155	18125
906.272	18049
906.389	18038
906.506	17916
906.623	17912
906.74	17954
906.857	17821
906.974	17821
907.091	17965
907.208	17988
907.324	17882
907.441	17764
907.557	17756
907.674	17638
907.79	17600
907.907	17634
908.023	17653
908.139	17642
908.256	17520
908.372	17570
908.488	17421
908.604	17383
908.72	17337
908.836	17299
908.952	17303
909.068	17391
909.184	17376
909.3	17383
909.415	17368
909.531	17334
909.647	17124
909.762	17128
909.878	17022
909.993	17075
910.108	17022
910.224	16953
910.339	16972
910.454	17071
910.57	16752
910.685	16733
910.8	17006
910.915	16965
911.03	16809
911.145	16683
911.259	16577
911.374	16607
911.489	16455
911.604	16489
911.718	16318
911.833	16428
911.947	16200
912.062	16207
912.176	16360
912.291	16356
912.405	16382
912.519	16565
912.633	16504
912.748	16432
912.862	16249
912.976	16207
913.09	15964
913.204	16150
913.318	16101
913.431	16310
913.545	16219
913.659	16272
913.772	16128
913.886	16040
914	15953
914.113	15968
914.226	16017
914.34	15968
914.453	15838
914.566	15915
914.68	15816
914.793	15770
914.906	15671
915.019	15591
915.132	15500
915.245	15542
915.358	15572
915.47	15553
915.583	15572
915.696	15591
915.809	15656
915.921	15698
916.034	15538
916.146	15473
916.259	15420
916.371	15572
916.483	15469
916.595	15355
916.708	15405
916.82	15336
916.932	15401
917.044	15332
917.156	15340
917.268	15272
917.38	15199
917.491	15260
917.603	15249
917.715	15291
917.826	15279
917.938	15112
918.049	15077
918.161	15135
918.272	15355
918.384	15340
918.495	15157
918.606	15020
918.717	14864
918.828	15009
918.939	14921
919.05	14861
919.161	14948
919.272	14746
919.383	14781
919.494	14986
919.604	15192
919.715	14982
919.826	14842
919.936	14857
920.047	14895
920.157	14861
920.267	15047
920.378	14956
920.488	14811
920.598	15036
920.708	15211
920.818	15108
920.928	15062
921.038	15260
921.148	15176
921.258	14876
921.368	14777
921.477	14682
921.587	14682
921.697	14484
921.806	14610
921.916	14480
922.025	14374
922.134	14263
922.244	14252
922.353	14206
922.462	14119
922.571	14115
922.68	13982
922.789	13974
922.898	13955
923.007	13845
923.116	13894
923.224	13913
923.333	13822
923.442	13685
923.55	13772
923.659	13731
923.767	13776
923.876	13677
923.984	13761
924.092	13601
924.201	13700
924.309	13605
924.417	13609
924.525	13605
924.633	13525
924.741	14511
924.849	13373
924.956	13540
925.064	13403
925.172	13278
925.279	13244
925.387	13320
925.494	13255
925.602	13400
925.709	13327
925.816	13118
925.924	13225
926.031	13324
926.138	13289
926.245	13278
926.352	13133
926.459	13259
926.566	13327
926.673	13156
926.779	13027
926.886	13042
926.993	12856
927.099	12951
927.206	12821
927.312	12875
927.419	12894
927.525	12871
927.631	12981
927.737	12730
927.843	12711
927.95	12585
928.056	12669
928.162	12730
928.267	12738
928.373	13335
928.479	12764
928.585	12490
928.69	12658
928.796	12544
928.901	12582
929.007	12395
929.112	12494
929.218	12445
929.323	12441
929.428	12391
929.533	12536
929.638	12323
929.743	12334
929.848	12388
929.953	12380
930.058	12270
930.163	12064
930.267	12076
930.372	12228
930.477	12095
930.581	12262
930.685	12194
930.79	11935
930.894	11942
930.998	11927
931.103	12057
931.207	11657
931.311	11592
931.415	11600
931.519	11349
931.623	11368
