Data from test_V78500241_1845.txt Node
Date: Fri Mar 25 15:54:34 CST 2022
User: usil
Spectrometer: V785-0024
Trigger mode: 0
Integration Time (sec): 4.000000E-1
Scans to average: 1
Nonlinearity correction enabled: false
Boxcar width: 0
Storing dark spectrum: false
XAxis mode: Wavelengths
Number of Pixels in Spectrum: 1024
>>>>>Begin Spectral Data<<<<<
801.071	28367
801.214	28398
801.356	28166
801.499	28070
801.641	28135
801.783	27998
801.926	28131
802.068	27968
802.211	27846
802.353	27888
802.496	27816
802.638	27701
802.78	27694
802.923	27728
803.065	27523
803.208	27660
803.35	27774
803.492	27701
803.635	27846
803.777	27835
803.919	27960
804.061	28158
804.204	27937
804.346	27865
804.488	27694
804.63	27876
804.773	27846
804.915	27793
805.057	28090
805.199	28063
805.341	28029
805.483	28025
805.626	28002
805.768	27975
805.91	27930
806.052	27945
806.194	27854
806.336	28086
806.478	27987
806.62	27991
806.762	28272
806.904	28322
807.046	28405
807.188	28398
807.33	28569
807.472	28557
807.614	28538
807.756	28466
807.898	28306
808.04	28360
808.182	28287
808.324	28462
808.465	28413
808.607	28474
808.749	28752
808.891	28713
809.033	28976
809.174	28801
809.316	28812
809.458	28603
809.6	28664
809.741	28881
809.883	28892
810.025	28934
810.166	28923
810.308	28965
810.45	28824
810.591	28797
810.733	28736
810.875	28607
811.016	28656
811.158	28622
811.299	28649
811.441	28866
811.582	29048
811.724	28618
811.865	28588
812.007	28736
812.148	28801
812.29	28843
812.431	28953
812.573	29041
812.714	29083
812.855	29254
812.997	29402
813.138	29433
813.279	29482
813.421	29269
813.562	29277
813.703	28999
813.845	29109
813.986	28812
814.127	28497
814.268	28466
814.41	28344
814.551	28379
814.692	28417
814.833	28409
814.974	28424
815.115	28401
815.256	28417
815.397	28352
815.539	28363
815.68	28173
815.821	28154
815.962	28226
816.103	28246
816.244	28128
816.385	27854
816.526	27899
816.666	27892
816.807	27724
816.948	27675
817.089	27816
817.23	27797
817.371	27770
817.512	27717
817.653	27530
817.793	27800
817.934	27781
818.075	27671
818.216	27755
818.356	27774
818.497	27709
818.638	27564
818.778	27329
818.919	27610
819.06	27564
819.2	27583
819.341	27728
819.481	27755
819.622	27808
819.762	28048
819.903	27846
820.043	27914
820.184	27922
820.324	27720
820.465	27972
820.605	27850
820.746	27854
820.886	27686
821.026	27876
821.167	27827
821.307	27869
821.447	27778
821.588	27682
821.728	27580
821.868	27348
822.008	27192
822.149	27256
822.289	27291
822.429	26899
822.569	26788
822.709	26876
822.849	26735
822.99	26750
823.13	26606
823.27	26708
823.41	26514
823.55	26419
823.69	26549
823.83	26545
823.97	26514
824.11	26362
824.25	26328
824.389	26495
824.529	26552
824.669	26412
824.809	26499
824.949	26533
825.089	26587
825.228	26473
825.368	26172
825.508	26305
825.648	26309
825.787	26328
825.927	26320
826.067	26111
826.206	26168
826.346	26233
826.485	26183
826.625	26259
826.765	26229
826.904	26164
827.044	26005
827.183	26039
827.323	25883
827.462	25959
827.601	26126
827.741	26039
827.88	26001
828.02	25913
828.159	25871
828.298	25902
828.437	26046
828.577	25791
828.716	25963
828.855	25944
828.994	25605
829.134	25605
829.273	25666
829.412	25472
829.551	25571
829.69	25578
829.829	25693
829.968	25651
830.107	25632
830.246	25613
830.385	25552
830.524	25373
830.663	25487
830.802	25320
830.941	25247
831.08	25133
831.219	25263
831.357	25316
831.496	25362
831.635	25263
831.774	25129
831.913	25114
832.051	25050
832.19	25046
832.329	25046
832.467	24935
832.606	24989
832.744	24875
832.883	24992
833.022	24779
833.16	24958
833.299	24852
833.437	24962
833.576	25103
833.714	24791
833.852	25031
833.991	25099
834.129	25053
834.267	25160
834.406	24916
834.544	25008
834.682	24878
834.821	25027
834.959	25171
835.097	24867
835.235	25057
835.373	24981
835.511	24943
835.65	24791
835.788	24833
835.926	24631
836.064	24616
836.202	24627
836.34	24783
836.478	24817
836.615	24859
836.753	24829
836.891	24764
837.029	24875
837.167	24627
837.305	24616
837.443	24654
837.58	24608
837.718	24642
837.856	24646
837.993	24593
838.131	24547
838.269	24540
838.406	24460
838.544	24483
838.681	24308
838.819	24342
838.956	24072
839.094	24053
839.231	24148
839.369	24308
839.506	24502
839.643	24350
839.781	24174
839.918	24060
840.055	24030
840.193	24087
840.33	23965
840.467	23969
840.604	24007
840.742	24197
840.879	23817
841.016	23893
841.153	23965
841.29	24102
841.427	24007
841.564	24034
841.701	23977
841.838	23836
841.975	23878
842.112	23904
842.249	23771
842.385	23764
842.522	23855
842.659	23863
842.796	23699
842.933	23699
843.069	23760
843.206	23760
843.343	23847
843.479	23840
843.616	23710
843.752	23455
843.889	23512
844.025	23665
844.162	23497
844.298	23558
844.435	23554
844.571	23509
844.708	23581
844.844	23733
844.98	23752
845.117	23615
845.253	23414
845.389	23303
845.525	23505
845.661	23284
845.798	23193
845.934	23395
846.07	23136
846.206	23200
846.342	23444
846.478	23307
846.614	23102
846.75	22900
846.886	22938
847.022	23029
847.158	23033
847.294	22968
847.429	22980
847.565	22930
847.701	23212
847.837	22862
847.972	22793
848.108	22759
848.244	22713
848.379	22607
848.515	22626
848.65	22535
848.786	22592
848.921	22565
849.057	22626
849.192	22782
849.328	22546
849.463	22561
849.598	22474
849.734	22516
849.869	22344
850.004	22322
850.14	22367
850.275	22265
850.41	22363
850.545	22306
850.68	22363
850.815	22398
850.95	22367
851.085	22561
851.22	22421
851.355	22432
851.49	22291
851.625	22348
851.76	22356
851.895	22223
852.03	22280
852.165	22402
852.299	22219
852.434	22447
852.569	22280
852.703	22226
852.838	22352
852.973	22569
853.107	22474
853.242	22150
853.376	22204
853.511	22032
853.645	22124
853.78	22287
853.914	22093
854.048	22128
854.183	22135
854.317	22219
854.451	22424
854.585	22154
854.72	22101
854.854	22211
854.988	21994
855.122	22196
855.256	21941
855.39	21998
855.524	22246
855.658	22341
855.792	22246
855.926	22112
856.06	22272
856.194	22211
856.327	22261
856.461	22109
856.595	22181
856.729	22135
856.862	22238
856.996	22272
857.13	22253
857.263	22249
857.397	22223
857.53	22059
857.664	22166
857.797	22257
857.931	22207
858.064	22310
858.197	22238
858.331	22158
858.464	22063
858.597	22040
858.731	22086
858.864	22147
858.997	22139
859.13	22226
859.263	22051
859.396	22204
859.529	22181
859.662	22017
859.795	22131
859.928	22154
860.061	22185
860.194	22394
860.327	22143
860.46	22185
860.592	22226
860.725	22261
860.858	22268
860.99	22173
861.123	22078
861.256	22040
861.388	22219
861.521	22904
861.653	22074
861.786	21949
861.918	22063
862.05	22051
862.183	22017
862.315	22055
862.447	22185
862.58	22055
862.712	21854
862.844	21869
862.976	22025
863.108	21873
863.24	22424
863.372	21816
863.504	21903
863.636	21873
863.768	21812
863.9	21831
864.032	21671
864.164	21888
864.296	21895
864.428	21934
864.559	21892
864.691	21888
864.823	21831
864.954	21717
865.086	21884
865.217	21899
865.349	21694
865.48	21717
865.612	21797
865.743	21899
865.875	21736
866.006	21770
866.137	21781
866.269	21732
866.4	21709
866.531	21781
866.662	21686
866.793	21663
866.924	21736
867.055	21618
867.186	21667
867.317	21576
867.448	21606
867.579	21633
867.71	21629
867.841	21622
867.972	21766
868.103	21679
868.233	21515
868.364	21629
868.495	21774
868.625	21778
868.756	22002
868.886	21884
869.017	22055
869.147	21983
869.278	22097
869.408	21911
869.539	21911
869.669	22002
869.799	21926
869.929	22078
870.06	21994
870.19	22196
870.32	22215
870.45	22253
870.58	22382
870.71	22402
870.84	22375
870.97	22341
871.1	22287
871.23	22409
871.36	22443
871.489	22428
871.619	22531
871.749	22466
871.879	22516
872.008	22672
872.138	22592
872.267	22577
872.397	22325
872.526	22424
872.656	22295
872.785	22451
872.915	22546
873.044	22596
873.173	22607
873.303	22485
873.432	22554
873.561	22618
873.69	22512
873.819	22466
873.948	22634
874.077	22466
874.206	22390
874.335	22535
874.464	22664
874.593	22694
874.722	22672
874.851	22835
874.979	22736
875.108	22843
875.237	22668
875.365	22702
875.494	22675
875.623	22820
875.751	22733
875.88	22828
876.008	22908
876.136	22774
876.265	23231
876.393	23250
876.521	23220
876.65	23307
876.778	23029
876.906	23178
877.034	23094
877.162	23052
877.29	23094
877.418	23113
877.546	23075
877.674	23124
877.802	23155
877.93	23121
878.058	23117
878.185	23022
878.313	23140
878.441	23033
878.568	22809
878.696	23121
878.824	23132
878.951	23162
879.079	23239
879.206	23360
879.333	23277
879.461	23132
879.588	23166
879.715	23212
879.842	23284
879.97	23227
880.097	23056
880.224	22854
880.351	23003
880.478	22919
880.605	22934
880.732	22869
880.859	23170
880.986	22968
881.112	22900
881.239	22733
881.366	22603
881.493	22550
881.619	22508
881.746	22470
881.872	22523
881.999	22542
882.125	22360
882.252	22489
882.378	22584
882.505	22478
882.631	22356
882.757	22226
882.883	22253
883.01	22166
883.136	22017
883.262	22112
883.388	22086
883.514	22162
883.64	22036
883.766	22032
883.892	21979
884.018	21918
884.143	21960
884.269	22135
884.395	21915
884.52	21709
884.646	21888
884.772	21724
884.897	21759
885.023	21743
885.148	21743
885.274	21903
885.399	21842
885.524	21835
885.65	21759
885.775	21880
885.9	21713
886.025	21861
886.15	21899
886.275	21774
886.4	21682
886.525	21743
886.65	21720
886.775	21747
886.9	21888
887.025	21987
887.149	21709
887.274	21606
887.399	21606
887.523	21542
887.648	21526
887.773	21488
887.897	21679
888.021	21576
888.146	21504
888.27	21625
888.395	21633
888.519	21447
888.643	21644
888.767	21568
888.891	21462
889.015	21344
889.139	21511
889.263	21466
889.387	21511
889.511	21545
889.635	21447
889.759	21264
889.883	21428
890.006	21348
890.13	21477
890.254	21287
890.377	21268
890.501	21176
890.624	21085
890.748	21070
890.871	21077
890.995	20918
891.118	21005
891.241	20948
891.364	20899
891.488	20975
891.611	20918
891.734	20979
891.857	21005
891.98	20941
892.103	21074
892.226	20956
892.349	20792
892.471	20621
892.594	20849
892.717	20823
892.839	20811
892.962	20792
893.085	20891
893.207	20811
893.33	20594
893.452	20708
893.575	20815
893.697	20864
893.819	20906
893.941	20990
894.064	21005
894.186	20773
894.308	20800
894.43	20811
894.552	20918
894.674	21039
894.796	20720
894.918	20758
895.04	20815
895.161	20914
895.283	20739
895.405	20667
895.526	20804
895.648	20720
895.769	20807
895.891	20815
896.012	20895
896.134	20796
896.255	20750
896.376	20708
896.498	20830
896.619	20735
896.74	20739
896.861	20921
896.982	21108
897.103	21252
897.224	21055
897.345	21081
897.466	21032
897.587	21089
897.708	21070
897.828	21036
897.949	20891
898.07	20750
898.19	20906
898.311	21119
898.431	20861
898.552	20910
898.672	21028
898.792	20960
898.913	20998
899.033	20727
899.153	20785
899.273	20629
899.393	20689
899.513	20861
899.633	20811
899.753	20640
899.873	20613
899.993	20819
900.113	20659
900.232	20754
900.352	20568
900.472	20518
900.591	20571
900.711	20632
900.83	20431
900.95	20587
901.069	20640
901.189	20256
901.308	20237
901.427	20084
901.546	20130
901.665	20088
901.784	20206
901.904	20016
902.023	19822
902.141	19632
902.26	19544
902.379	19750
902.498	19556
902.617	19464
902.735	19529
902.854	19514
902.973	19521
903.091	19247
903.21	19118
903.328	19103
903.446	19156
903.565	19118
903.683	19107
903.801	18993
903.919	19023
904.038	18924
904.156	18901
904.274	19019
904.392	18878
904.51	18852
904.627	18760
904.745	18768
904.863	18894
904.981	18574
905.098	18536
905.216	18369
905.334	18448
905.451	18479
905.569	18513
905.686	18494
905.803	18353
905.921	18315
906.038	18323
906.155	18296
906.272	18155
906.389	18102
906.506	18038
906.623	17920
906.74	18022
906.857	17935
906.974	17939
907.091	18072
907.208	18155
907.324	18030
907.441	17939
907.557	17684
907.674	17752
907.79	17710
907.907	17722
908.023	17699
908.139	17684
908.256	17657
908.372	17554
908.488	17558
908.604	17528
908.72	17360
908.836	17406
908.952	17337
909.068	17585
909.184	17493
909.3	17383
909.415	17543
909.531	17353
909.647	17109
909.762	17128
909.878	17098
909.993	17109
910.108	17132
910.224	16949
910.339	17006
910.454	16938
910.57	16949
910.685	16831
910.8	17143
910.915	16972
911.03	16949
911.145	16790
911.259	16710
911.374	16752
911.489	16672
911.604	16554
911.718	16466
911.833	16462
911.947	16272
912.062	16253
912.176	16493
912.291	16577
912.405	16478
912.519	16485
912.633	16736
912.748	16474
912.862	16390
912.976	16356
913.09	16207
913.204	16261
913.318	16150
913.431	16287
913.545	16329
913.659	16322
913.772	16017
913.886	15998
914	16029
914.113	16207
914.226	16135
914.34	16013
914.453	15960
914.566	16147
914.68	15907
914.793	15926
914.906	15675
915.019	15625
915.132	15549
915.245	15644
915.358	15682
915.47	15625
915.583	15713
915.696	15686
915.809	15739
915.921	15800
916.034	15538
916.146	15485
916.259	15428
916.371	15610
916.483	15530
916.595	15500
916.708	15408
916.82	15443
916.932	15348
917.044	15389
917.156	15355
917.268	15199
917.38	15321
917.491	15279
917.603	15329
917.715	15291
917.826	15332
917.938	15165
918.049	15211
918.161	15135
918.272	15386
918.384	15291
918.495	15195
918.606	15138
918.717	14967
918.828	15089
918.939	15024
919.05	14990
919.161	14998
919.272	14754
919.383	14929
919.494	15119
919.604	15241
919.715	15077
919.826	14849
919.936	15013
920.047	15119
920.157	15043
920.267	15157
920.378	14933
920.488	14948
920.598	15062
920.708	15272
920.818	15173
920.928	15100
921.038	15256
921.148	15272
921.258	14937
921.368	14823
921.477	14724
921.587	14697
921.697	14507
921.806	14705
921.916	14450
922.025	14484
922.134	14408
922.244	14301
922.353	14396
922.462	14138
922.571	14046
922.68	13932
922.789	14031
922.898	13955
923.007	13898
923.116	13947
923.224	13921
923.333	13974
923.442	13833
923.55	13776
923.659	13818
923.767	13811
923.876	13731
923.984	13852
924.092	13708
924.201	13681
924.309	13677
924.417	13689
924.525	13609
924.633	13658
924.741	14381
924.849	13510
924.956	13563
925.064	13388
925.172	13335
925.279	13384
925.387	13316
925.494	13362
925.602	13518
925.709	13373
925.816	13221
925.924	13282
926.031	13381
926.138	13282
926.245	13369
926.352	13168
926.459	13320
926.566	13320
926.673	13171
926.779	13137
926.886	13129
926.993	12928
927.099	12890
927.206	12863
927.312	12817
927.419	12935
927.525	13015
927.631	12928
927.737	12878
927.843	12764
927.95	12688
928.056	12715
928.162	12757
928.267	12757
928.373	13396
928.479	12844
928.585	12578
928.69	12681
928.796	12650
928.901	12646
929.007	12528
929.112	12578
929.218	12578
929.323	12547
929.428	12452
929.533	12582
929.638	12369
929.743	12422
929.848	12479
929.953	12342
930.058	12308
930.163	12178
930.267	12273
930.372	12315
930.477	12087
930.581	12277
930.685	12163
930.79	11942
930.894	12026
930.998	12007
931.103	12057
931.207	11863
931.311	11638
931.415	11535
931.519	11425
931.623	11364
