Data from test_V78500241_2629.txt Node
Date: Fri Mar 25 16:00:00 CST 2022
User: usil
Spectrometer: V785-0024
Trigger mode: 0
Integration Time (sec): 4.000000E-1
Scans to average: 1
Nonlinearity correction enabled: false
Boxcar width: 0
Storing dark spectrum: false
XAxis mode: Wavelengths
Number of Pixels in Spectrum: 1024
>>>>>Begin Spectral Data<<<<<
801.071	28888
801.214	28904
801.356	28679
801.499	28721
801.641	28428
801.783	28382
801.926	28428
802.068	28523
802.211	28485
802.353	28470
802.496	28185
802.638	28158
802.78	28207
802.923	28181
803.065	28067
803.208	28013
803.35	28215
803.492	28436
803.635	28459
803.777	28287
803.919	28363
804.061	28949
804.204	28470
804.346	28265
804.488	28284
804.63	28436
804.773	28295
804.915	28436
805.057	28550
805.199	28417
805.341	28592
805.483	28569
805.626	28531
805.768	28493
805.91	28710
806.052	28637
806.194	28561
806.336	28904
806.478	28767
806.62	28660
806.762	28675
806.904	28923
807.046	29147
807.188	29060
807.33	29071
807.472	29208
807.614	29025
807.756	29216
807.898	28866
808.04	28888
808.182	28980
808.324	28930
808.465	29037
808.607	29090
808.749	29326
808.891	29486
809.033	29440
809.174	29497
809.316	29345
809.458	29174
809.6	29269
809.741	29334
809.883	29524
810.025	29562
810.166	29539
810.308	29516
810.45	29684
810.591	29608
810.733	29372
810.875	29379
811.016	29204
811.158	29250
811.299	29490
811.441	29402
811.582	29429
811.724	29235
811.865	29254
812.007	29402
812.148	29398
812.29	29490
812.431	29539
812.573	29699
812.714	29767
812.855	29828
812.997	29859
813.138	30091
813.279	30018
813.421	29866
813.562	29642
813.703	29634
813.845	29581
813.986	29410
814.127	29128
814.268	28930
814.41	29056
814.551	28900
814.692	29159
814.833	29022
814.974	29022
815.115	29041
815.256	28938
815.397	28839
815.539	28930
815.68	28843
815.821	28812
815.962	28797
816.103	29113
816.244	28672
816.385	28790
816.526	28599
816.666	28432
816.807	28390
816.948	28485
817.089	28542
817.23	28268
817.371	28424
817.512	28238
817.653	28360
817.793	28276
817.934	28497
818.075	28401
818.216	28440
818.356	28318
818.497	28196
818.638	28090
818.778	28067
818.919	28090
819.06	28181
819.2	28223
819.341	28432
819.481	28459
819.622	28523
819.762	28752
819.903	28778
820.043	28481
820.184	28611
820.324	28561
820.465	28569
820.605	28531
820.746	28622
820.886	28344
821.026	28542
821.167	28546
821.307	28573
821.447	28474
821.588	28333
821.728	28124
821.868	28090
822.008	27960
822.149	27797
822.289	27819
822.429	27705
822.569	27549
822.709	27545
822.849	27443
822.99	27401
823.13	27256
823.27	27199
823.41	27344
823.55	26994
823.69	27131
823.83	27173
823.97	27013
824.11	26986
824.25	27070
824.389	27157
824.529	26986
824.669	26975
824.809	27028
824.949	27096
825.089	27112
825.228	27074
825.368	26914
825.508	27001
825.648	26902
825.787	26990
825.927	27123
826.067	26876
826.206	27039
826.346	27043
826.485	26982
826.625	26937
826.765	27066
826.904	26918
827.044	26697
827.183	26663
827.323	26590
827.462	26750
827.601	26587
827.741	26564
827.88	26686
828.02	26492
828.159	26564
828.298	26651
828.437	26609
828.577	26484
828.716	26670
828.855	26446
828.994	26278
829.134	26476
829.273	26473
829.412	26259
829.551	26324
829.69	26324
829.829	26263
829.968	26427
830.107	26465
830.246	26191
830.385	26332
830.524	26248
830.663	26077
830.802	26050
830.941	25761
831.08	25700
831.219	26046
831.357	25978
831.496	26237
831.635	25963
831.774	25909
831.913	25784
832.051	25677
832.19	25769
832.329	25719
832.467	25624
832.606	25571
832.744	25495
832.883	25578
833.022	25674
833.16	25647
833.299	25712
833.437	25567
833.576	25666
833.714	25746
833.852	25788
833.991	25696
834.129	25811
834.267	25788
834.406	25738
834.544	25738
834.682	25799
834.821	25734
834.959	25753
835.097	25495
835.235	25772
835.373	25616
835.511	25704
835.65	25453
835.788	25525
835.926	25297
836.064	25259
836.202	25354
836.34	25483
836.478	25609
836.615	25403
836.753	25438
836.891	25594
837.029	25506
837.167	25388
837.305	25434
837.443	25411
837.58	25369
837.718	25373
837.856	25346
837.993	25350
838.131	25209
838.269	25217
838.406	25183
838.544	25171
838.681	24886
838.819	24958
838.956	24719
839.094	24814
839.231	24825
839.369	24939
839.506	25259
839.643	25103
839.781	24791
839.918	24677
840.055	24806
840.193	24772
840.33	24722
840.467	24604
840.604	24711
840.742	25012
840.879	24429
841.016	24566
841.153	24601
841.29	24852
841.427	24730
841.564	24669
841.701	24726
841.838	24479
841.975	24544
842.112	24585
842.249	24521
842.385	24410
842.522	24707
842.659	24559
842.796	24403
842.933	24361
843.069	24296
843.206	24399
843.343	24228
843.479	24433
843.616	24429
843.752	24220
843.889	24289
844.025	24376
844.162	24243
844.298	24338
844.435	24110
844.571	24300
844.708	24213
844.844	24323
844.98	24357
845.117	24232
845.253	24243
845.389	24102
845.525	24057
845.661	23984
845.798	23912
845.934	23908
846.07	23859
846.206	23824
846.342	24049
846.478	23916
846.614	23805
846.75	23436
846.886	23661
847.022	23691
847.158	23710
847.294	23699
847.429	23665
847.565	23695
847.701	23760
847.837	23364
847.972	23360
848.108	23356
848.244	23455
848.379	23299
848.515	23174
848.65	23273
848.786	23128
848.921	23242
849.057	23376
849.192	23334
849.328	23284
849.463	23273
849.598	23143
849.734	23109
849.869	23170
850.004	22991
850.14	22987
850.275	23056
850.41	22987
850.545	23003
850.68	23003
850.815	22991
850.95	23041
851.085	23052
851.22	23197
851.355	23014
851.49	22896
851.625	23037
851.76	23025
851.895	22904
852.03	22911
852.165	22938
852.299	23044
852.434	23189
852.569	23041
852.703	23010
852.838	23109
852.973	23151
853.107	23067
853.242	22968
853.376	22919
853.511	22759
853.645	22691
853.78	22896
853.914	22786
854.048	22729
854.183	22691
854.317	22831
854.451	23086
854.585	22908
854.72	22812
854.854	22866
854.988	22793
855.122	22850
855.256	22706
855.39	22854
855.524	22908
855.658	22858
855.792	22900
855.926	22733
856.06	22816
856.194	22854
856.327	22736
856.461	22767
856.595	22698
856.729	22759
856.862	22889
856.996	22824
857.13	22927
857.263	22892
857.397	22911
857.53	22812
857.664	22831
857.797	22847
857.931	22934
858.064	22881
858.197	22869
858.331	22733
858.464	22641
858.597	22740
858.731	22835
858.864	22805
858.997	22767
859.13	22892
859.263	22782
859.396	22976
859.529	22946
859.662	22733
859.795	22733
859.928	22759
860.061	22942
860.194	22980
860.327	22858
860.46	22869
860.592	22801
860.725	22991
860.858	22866
860.99	22805
861.123	22744
861.256	22797
861.388	22835
861.521	23611
861.653	22603
861.786	22588
861.918	22622
862.05	22626
862.183	22702
862.315	22649
862.447	22831
862.58	22660
862.712	22417
862.844	22561
862.976	22710
863.108	22592
863.24	22976
863.372	22516
863.504	22504
863.636	22516
863.768	22508
863.9	22474
864.032	22455
864.164	22443
864.296	22424
864.428	22634
864.559	22554
864.691	22607
864.823	22478
864.954	22405
865.086	22523
865.217	22478
865.349	22272
865.48	22527
865.612	22398
865.743	22542
865.875	22394
866.006	22402
866.137	22367
866.269	22367
866.4	22272
866.531	22341
866.662	22162
866.793	22382
866.924	22287
867.055	22287
867.186	22352
867.317	22314
867.448	22105
867.579	22363
867.71	22249
867.841	22158
867.972	22436
868.103	22314
868.233	22348
868.364	22360
868.495	22375
868.625	22622
868.756	22729
868.886	22432
869.017	22508
869.147	22622
869.278	22744
869.408	22527
869.539	22535
869.669	22691
869.799	22653
869.929	22630
870.06	22660
870.19	22797
870.32	22854
870.45	22850
870.58	22991
870.71	23067
870.84	23109
870.97	22885
871.1	22987
871.23	23090
871.36	23227
871.489	23029
871.619	23090
871.749	23220
871.879	23140
872.008	23121
872.138	23185
872.267	23105
872.397	23044
872.526	23037
872.656	23029
872.785	23056
872.915	23231
873.044	23258
873.173	23231
873.303	23174
873.432	23189
873.561	23395
873.69	23288
873.819	23231
873.948	23315
874.077	23246
874.206	23086
874.335	23178
874.464	23189
874.593	23337
874.722	23368
874.851	23353
874.979	23444
875.108	23387
875.237	23318
875.365	23246
875.494	23254
875.623	23398
875.751	23417
875.88	23402
876.008	23543
876.136	23509
876.265	23699
876.393	23946
876.521	23920
876.65	23843
876.778	23775
876.906	23798
877.034	23722
877.162	23714
877.29	23665
877.418	23737
877.546	23718
877.674	23684
877.802	23729
877.93	23672
878.058	23577
878.185	23535
878.313	23680
878.441	23665
878.568	23558
878.696	23554
878.824	23760
878.951	23798
879.079	23901
879.206	24034
879.333	23908
879.461	23748
879.588	23745
879.715	23988
879.842	24060
879.97	23901
880.097	23543
880.224	23566
880.351	23600
880.478	23634
880.605	23490
880.732	23756
880.859	23802
880.986	23539
881.112	23710
881.239	23440
881.366	23330
881.493	23303
881.619	23242
881.746	23170
881.872	23075
881.999	23105
882.125	23143
882.252	23147
882.378	23174
882.505	23113
882.631	22957
882.757	22786
882.883	22850
883.01	22862
883.136	22812
883.262	22698
883.388	22637
883.514	22748
883.64	22809
883.766	22664
883.892	22455
884.018	22782
884.143	22835
884.269	22809
884.395	22516
884.52	22497
884.646	22497
884.772	22341
884.897	22360
885.023	22440
885.148	22493
885.274	22538
885.399	22622
885.524	22538
885.65	22367
885.775	22390
885.9	22352
886.025	22489
886.15	22451
886.275	22379
886.4	22360
886.525	22424
886.65	22310
886.775	22268
886.9	22512
887.025	22538
887.149	22440
887.274	22341
887.399	22154
887.523	22143
887.648	22204
887.773	22105
887.897	22154
888.021	22284
888.146	22150
888.27	22249
888.395	22234
888.519	22287
888.643	22333
888.767	22268
888.891	22078
889.015	22150
889.139	22067
889.263	22010
889.387	22063
889.511	22150
889.635	22135
889.759	21949
889.883	21922
890.006	21937
890.13	22010
890.254	21895
890.377	21953
890.501	21915
890.624	21625
890.748	21827
890.871	21610
890.995	21488
891.118	21492
891.241	21492
891.364	21545
891.488	21583
891.611	21526
891.734	21538
891.857	21564
891.98	21504
892.103	21561
892.226	21515
892.349	21443
892.471	21279
892.594	21447
892.717	21393
892.839	21370
892.962	21393
893.085	21473
893.207	21405
893.33	21321
893.452	21287
893.575	21393
893.697	21389
893.819	21542
893.941	21709
894.064	21656
894.186	21351
894.308	21367
894.43	21443
894.552	21473
894.674	21336
894.796	21302
894.918	21340
895.04	21458
895.161	21477
895.283	21424
895.405	21363
895.526	21374
895.648	21291
895.769	21344
895.891	21477
896.012	21389
896.134	21466
896.255	21374
896.376	21473
896.498	21408
896.619	21386
896.74	21367
896.861	21382
896.982	21694
897.103	21873
897.224	21610
897.345	21549
897.466	21450
897.587	21572
897.708	21682
897.828	21530
897.949	21553
898.07	21401
898.19	21580
898.311	21724
898.431	21488
898.552	21515
898.672	21568
898.792	21595
898.913	21576
899.033	21450
899.153	21428
899.273	21268
899.393	21340
899.513	21359
899.633	21241
899.753	21245
899.873	21344
899.993	21344
900.113	21154
900.232	21340
900.352	21176
900.472	21123
900.591	20921
900.711	20929
900.83	21009
900.95	21150
901.069	21180
901.189	20941
901.308	20678
901.427	20613
901.546	20617
901.665	20640
901.784	20651
901.904	20575
902.023	20385
902.141	20225
902.26	20107
902.379	20107
902.498	20134
902.617	20149
902.735	20035
902.854	20073
902.973	20062
903.091	19894
903.21	19776
903.328	19776
903.446	19635
903.565	19666
903.683	19521
903.801	19419
903.919	19571
904.038	19552
904.156	19263
904.274	19369
904.392	19259
904.51	19282
904.627	19240
904.745	19327
904.863	19381
904.981	19129
905.098	19091
905.216	18913
905.334	19042
905.451	19027
905.569	18981
905.686	18905
905.803	18951
905.921	18821
906.038	18871
906.155	18734
906.272	18768
906.389	18639
906.506	18563
906.623	18566
906.74	18574
906.857	18372
906.974	18418
907.091	18642
907.208	18658
907.324	18582
907.441	18376
907.557	18228
907.674	18292
907.79	18201
907.907	18247
908.023	18201
908.139	18216
908.256	18136
908.372	18087
908.488	18144
908.604	17927
908.72	17893
908.836	17916
908.952	17908
909.068	17999
909.184	18015
909.3	17916
909.415	17996
909.531	17859
909.647	17695
909.762	17634
909.878	17684
909.993	17710
910.108	17657
910.224	17566
910.339	17684
910.454	17391
910.57	17395
910.685	17353
910.8	17524
910.915	17558
911.03	17410
911.145	17258
911.259	17204
911.374	17162
911.489	17113
911.604	17025
911.718	16904
911.833	17033
911.947	16957
912.062	16778
912.176	16934
912.291	16904
912.405	16911
912.519	17170
912.633	17018
912.748	16961
912.862	16824
912.976	16740
913.09	16691
913.204	16622
913.318	16778
913.431	16774
913.545	16771
913.659	16782
913.772	16592
913.886	16653
914	16599
914.113	16691
914.226	16577
914.34	16607
914.453	16413
914.566	16558
914.68	16375
914.793	16436
914.906	16215
915.019	16105
915.132	16124
915.245	16139
915.358	16078
915.47	16059
915.583	16082
915.696	16109
915.809	16181
915.921	16238
916.034	15991
916.146	16063
916.259	15983
916.371	16002
916.483	16021
916.595	15888
916.708	15945
916.82	15922
916.932	15831
917.044	15930
917.156	15880
917.268	15793
917.38	15671
917.491	15606
917.603	15698
917.715	15800
917.826	15728
917.938	15595
918.049	15610
918.161	15564
918.272	15747
918.384	15755
918.495	15603
918.606	15420
918.717	15378
918.828	15481
918.939	15515
919.05	15374
919.161	15405
919.272	15150
919.383	15252
919.494	15485
919.604	15606
919.715	15363
919.826	15348
919.936	15435
920.047	15428
920.157	15374
920.267	15652
920.378	15553
920.488	15401
920.598	15568
920.708	15762
920.818	15542
920.928	15545
921.038	15660
921.148	15618
921.258	15268
921.368	15291
921.477	15260
921.587	15188
921.697	14937
921.806	15062
921.916	14952
922.025	14830
922.134	14769
922.244	14762
922.353	14807
922.462	14533
922.571	14552
922.68	14393
922.789	14366
922.898	14408
923.007	14256
923.116	14332
923.224	14339
923.333	14317
923.442	14092
923.55	14278
923.659	14183
923.767	14176
923.876	14100
923.984	14142
924.092	14092
924.201	14111
924.309	14107
924.417	14130
924.525	13993
924.633	14035
924.741	15013
924.849	13791
924.956	13860
925.064	13864
925.172	13712
925.279	13769
925.387	13822
925.494	13818
925.602	13826
925.709	13875
925.816	13639
925.924	13632
926.031	13693
926.138	13723
926.245	13719
926.352	13586
926.459	13772
926.566	13712
926.673	13586
926.779	13552
926.886	13400
926.993	13339
927.099	13419
927.206	13266
927.312	13274
927.419	13331
927.525	13335
927.631	13297
927.737	13228
927.843	13141
927.95	13023
928.056	13065
928.162	13114
928.267	13133
928.373	13624
928.479	13149
928.585	12966
928.69	13015
928.796	13061
928.901	12962
929.007	12875
929.112	12985
929.218	12958
929.323	12757
929.428	12711
929.533	12920
929.638	12707
929.743	12760
929.848	12852
929.953	12726
930.058	12650
930.163	12426
930.267	12452
930.372	12627
930.477	12391
930.581	12555
930.685	12517
930.79	12350
930.894	12418
930.998	12289
931.103	12498
931.207	12019
931.311	11973
931.415	11996
931.519	11760
931.623	11680
