Data from test_V78500241_1168.txt Node
Date: Fri Mar 25 15:49:53 CST 2022
User: usil
Spectrometer: V785-0024
Trigger mode: 0
Integration Time (sec): 4.000000E-1
Scans to average: 1
Nonlinearity correction enabled: false
Boxcar width: 0
Storing dark spectrum: false
XAxis mode: Wavelengths
Number of Pixels in Spectrum: 1024
>>>>>Begin Spectral Data<<<<<
801.071	28550
801.214	28497
801.356	28223
801.499	28246
801.641	28139
801.783	27987
801.926	28215
802.068	28128
802.211	27930
802.353	27991
802.496	27724
802.638	27793
802.78	27774
802.923	27542
803.065	27717
803.208	27838
803.35	27827
803.492	27850
803.635	27972
803.777	27797
803.919	27964
804.061	28238
804.204	28128
804.346	27987
804.488	27770
804.63	28002
804.773	27911
804.915	27975
805.057	28116
805.199	27873
805.341	27941
805.483	28048
805.626	28051
805.768	28040
805.91	28097
806.052	28143
806.194	28021
806.336	28337
806.478	28025
806.62	28246
806.762	28204
806.904	28390
807.046	28763
807.188	28634
807.33	28653
807.472	28641
807.614	28664
807.756	28546
807.898	28459
808.04	28375
808.182	28223
808.324	28394
808.465	28516
808.607	28660
808.749	28763
808.891	28888
809.033	28900
809.174	28934
809.316	28820
809.458	28831
809.6	28831
809.741	28915
809.883	28927
810.025	28999
810.166	29094
810.308	29117
810.45	29044
810.591	29006
810.733	28839
810.875	28835
811.016	28675
811.158	28713
811.299	28908
811.441	29113
811.582	28957
811.724	28801
811.865	28869
812.007	28904
812.148	28771
812.29	28938
812.431	28949
812.573	29159
812.714	29231
812.855	29372
812.997	29539
813.138	29539
813.279	29334
813.421	29459
813.562	29391
813.703	29113
813.845	29109
813.986	28885
814.127	28596
814.268	28497
814.41	28592
814.551	28436
814.692	28489
814.833	28447
814.974	28489
815.115	28584
815.256	28303
815.397	28367
815.539	28440
815.68	28261
815.821	28306
815.962	28390
816.103	28409
816.244	28154
816.385	28166
816.526	28242
816.666	27945
816.807	27747
816.948	28086
817.089	27926
817.23	27835
817.371	27911
817.512	27774
817.653	27766
817.793	27793
817.934	27667
818.075	27743
818.216	27793
818.356	27785
818.497	27690
818.638	27564
818.778	27603
818.919	27656
819.06	27637
819.2	27789
819.341	27800
819.481	27827
819.622	28002
819.762	28131
819.903	28219
820.043	28097
820.184	28006
820.324	28013
820.465	28055
820.605	28090
820.746	27781
820.886	27941
821.026	28002
821.167	27838
821.307	28059
821.447	28017
821.588	27850
821.728	27614
821.868	27492
822.008	27348
822.149	27291
822.289	27367
822.429	27127
822.569	27058
822.709	27051
822.849	26845
822.99	26880
823.13	26868
823.27	26724
823.41	26594
823.55	26476
823.69	26857
823.83	26594
823.97	26476
824.11	26473
824.25	26465
824.389	26442
824.529	26689
824.669	26511
824.809	26568
824.949	26606
825.089	26629
825.228	26533
825.368	26530
825.508	26412
825.648	26457
825.787	26412
825.927	26450
826.067	26533
826.206	26294
826.346	26370
826.485	26381
826.625	26442
826.765	26499
826.904	26362
827.044	26240
827.183	26062
827.323	26043
827.462	26176
827.601	26103
827.741	26016
827.88	26180
828.02	25936
828.159	26103
828.298	26069
828.437	26202
828.577	26054
828.716	26168
828.855	25936
828.994	25807
829.134	25772
829.273	25814
829.412	25765
829.551	25685
829.69	25746
829.829	25784
829.968	25951
830.107	25849
830.246	25761
830.385	25799
830.524	25704
830.663	25578
830.802	25582
830.941	25308
831.08	25381
831.219	25415
831.357	25373
831.496	25712
831.635	25373
831.774	25285
831.913	25206
832.051	25240
832.19	24985
832.329	25114
832.467	25129
832.606	25023
832.744	25107
832.883	25004
833.022	24928
833.16	24924
833.299	25053
833.437	25171
833.576	25209
833.714	25084
833.852	25148
833.991	25099
834.129	25301
834.267	25190
834.406	25110
834.544	25057
834.682	25168
834.821	25091
834.959	25251
835.097	24939
835.235	25156
835.373	25126
835.511	25015
835.65	24905
835.788	24920
835.926	24829
836.064	24703
836.202	24817
836.34	24996
836.478	25053
836.615	24905
836.753	24932
836.891	25027
837.029	24837
837.167	24825
837.305	24871
837.443	24829
837.58	24760
837.718	24863
837.856	24772
837.993	24631
838.131	24779
838.269	24696
838.406	24719
838.544	24627
838.681	24330
838.819	24494
838.956	24190
839.094	24224
839.231	24319
839.369	24460
839.506	24616
839.643	24574
839.781	24323
839.918	24163
840.055	24334
840.193	24171
840.33	24091
840.467	24228
840.604	24159
840.742	24399
840.879	23931
841.016	24194
841.153	24182
841.29	24224
841.427	24125
841.564	24129
841.701	24171
841.838	24072
841.975	24117
842.112	23946
842.249	23950
842.385	23889
842.522	24159
842.659	23961
842.796	23794
842.933	23748
843.069	23828
843.206	23885
843.343	23988
843.479	23939
843.616	23931
843.752	23646
843.889	23619
844.025	23855
844.162	23687
844.298	23710
844.435	23619
844.571	23520
844.708	23684
844.844	23710
844.98	23729
845.117	23786
845.253	23623
845.389	23421
845.525	23596
845.661	23478
845.798	23284
845.934	23509
846.07	23376
846.206	23452
846.342	23528
846.478	23360
846.614	23292
846.75	23151
846.886	23075
847.022	23254
847.158	23162
847.294	23113
847.429	23132
847.565	23067
847.701	23372
847.837	22889
847.972	22782
848.108	22961
848.244	22961
848.379	22683
848.515	22729
848.65	22645
848.786	22691
848.921	22634
849.057	22748
849.192	22927
849.328	22733
849.463	22771
849.598	22729
849.734	22694
849.869	22573
850.004	22466
850.14	22504
850.275	22474
850.41	22367
850.545	22386
850.68	22481
850.815	22333
850.95	22440
851.085	22679
851.22	22474
851.355	22508
851.49	22447
851.625	22451
851.76	22447
851.895	22382
852.03	22360
852.165	22580
852.299	22402
852.434	22447
852.569	22500
852.703	22580
852.838	22569
852.973	22603
853.107	22580
853.242	22436
853.376	22348
853.511	22291
853.645	22223
853.78	22398
853.914	22284
854.048	22219
854.183	22325
854.317	22306
854.451	22443
854.585	22318
854.72	22207
854.854	22424
854.988	22268
855.122	22158
855.256	22188
855.39	22147
855.524	22329
855.658	22337
855.792	22310
855.926	22348
856.06	22367
856.194	22318
856.327	22162
856.461	22196
856.595	22272
856.729	22223
856.862	22322
856.996	22299
857.13	22417
857.263	22455
857.397	22394
857.53	22295
857.664	22280
857.797	22348
857.931	22337
858.064	22246
858.197	22565
858.331	22257
858.464	22185
858.597	22188
858.731	22238
858.864	22367
858.997	22162
859.13	22306
859.263	22276
859.396	22382
859.529	22223
859.662	22280
859.795	22200
859.928	22310
860.061	22405
860.194	22451
860.327	22280
860.46	22280
860.592	22394
860.725	22398
860.858	22459
860.99	22341
861.123	22154
861.256	22306
861.388	22295
861.521	22934
861.653	22207
861.786	22067
861.918	21991
862.05	22105
862.183	22192
862.315	22181
862.447	22318
862.58	22226
862.712	22032
862.844	22032
862.976	21953
863.108	21979
863.24	22462
863.372	21949
863.504	22143
863.636	22006
863.768	22006
863.9	21975
864.032	21922
864.164	21972
864.296	21979
864.428	22044
864.559	22021
864.691	21937
864.823	22105
864.954	21956
865.086	21937
865.217	21941
865.349	21778
865.48	21850
865.612	21785
865.743	22017
865.875	21854
866.006	21808
866.137	21991
866.269	21972
866.4	21895
866.531	21705
866.662	21701
866.793	21778
866.924	21812
867.055	21899
867.186	21698
867.317	21846
867.448	21644
867.579	21827
867.71	21720
867.841	21751
867.972	21728
868.103	21793
868.233	21827
868.364	21808
868.495	21892
868.625	21895
868.756	22295
868.886	21949
869.017	21987
869.147	22162
869.278	22074
869.408	22006
869.539	22051
869.669	21998
869.799	22078
869.929	22131
870.06	22109
870.19	22371
870.32	22215
870.45	22485
870.58	22443
870.71	22500
870.84	22504
870.97	22325
871.1	22356
871.23	22557
871.36	22596
871.489	22379
871.619	22611
871.749	22538
871.879	22607
872.008	22771
872.138	22565
872.267	22683
872.397	22546
872.526	22424
872.656	22538
872.785	22459
872.915	22755
873.044	22637
873.173	22656
873.303	22755
873.432	22782
873.561	22752
873.69	22611
873.819	22687
873.948	22664
874.077	22672
874.206	22538
874.335	22656
874.464	22786
874.593	22725
874.722	22820
874.851	22824
874.979	22866
875.108	22831
875.237	22843
875.365	22744
875.494	22805
875.623	22915
875.751	22889
875.88	22911
876.008	22934
876.136	23113
876.265	23185
876.393	23322
876.521	23265
876.65	23452
876.778	23174
876.906	23242
877.034	23132
877.162	23197
877.29	23189
877.418	23124
877.546	23151
877.674	23189
877.802	23189
877.93	23124
878.058	23098
878.185	23200
878.313	23098
878.441	23178
878.568	22930
878.696	23102
878.824	23102
878.951	23250
879.079	23383
879.206	23402
879.333	23433
879.461	23136
879.588	23250
879.715	23299
879.842	23493
879.97	23303
880.097	23147
880.224	23056
880.351	23018
880.478	22972
880.605	23022
880.732	23128
880.859	23178
880.986	23090
881.112	22904
881.239	22923
881.366	22801
881.493	22519
881.619	22573
881.746	22618
881.872	22603
881.999	22656
882.125	22474
882.252	22554
882.378	22523
882.505	22630
882.631	22489
882.757	22219
882.883	22443
883.01	22295
883.136	22268
883.262	21960
883.388	22143
883.514	22223
883.64	22371
883.766	22272
883.892	22070
884.018	22158
884.143	22128
884.269	22234
884.395	21888
884.52	21835
884.646	21956
884.772	21816
884.897	21736
885.023	21793
885.148	21968
885.274	22082
885.399	21998
885.524	21812
885.65	21838
885.775	21774
885.9	21903
886.025	22044
886.15	21972
886.275	21842
886.4	21755
886.525	21854
886.65	21808
886.775	21713
886.9	22109
887.025	22086
887.149	21869
887.274	21663
887.399	21701
887.523	21728
887.648	21542
887.773	21606
887.897	21922
888.021	21709
888.146	21557
888.27	21701
888.395	21705
888.519	21656
888.643	21580
888.767	21682
888.891	21542
889.015	21431
889.139	21530
889.263	21405
889.387	21656
889.511	21633
889.635	21595
889.759	21348
889.883	21355
890.006	21458
890.13	21416
890.254	21317
890.377	21344
890.501	21150
890.624	21100
890.748	21203
890.871	21142
890.995	20967
891.118	20842
891.241	21032
891.364	20899
891.488	21077
891.611	20941
891.734	20941
891.857	21104
891.98	20925
892.103	21036
892.226	20971
892.349	20883
892.471	20663
892.594	20826
892.717	20834
892.839	20906
892.962	20914
893.085	20842
893.207	20944
893.33	20773
893.452	20853
893.575	20921
893.697	20857
893.819	21062
893.941	21013
894.064	21032
894.186	20857
894.308	20731
894.43	20990
894.552	20864
894.674	20887
894.796	20819
894.918	20838
895.04	20800
895.161	20956
895.283	20929
895.405	20830
895.526	20864
895.648	20906
895.769	20929
895.891	20971
896.012	21017
896.134	20994
896.255	20830
896.376	20861
896.498	20883
896.619	20910
896.74	21024
896.861	20872
896.982	21116
897.103	21310
897.224	21032
897.345	21043
897.466	21146
897.587	21146
897.708	21279
897.828	21043
897.949	21024
898.07	20853
898.19	21005
898.311	21089
898.431	21043
898.552	21142
898.672	21077
898.792	21074
898.913	21051
899.033	20975
899.153	20834
899.273	20819
899.393	20864
899.513	20944
899.633	20857
899.753	20750
899.873	20724
899.993	20785
900.113	20727
900.232	20727
900.352	20651
900.472	20587
900.591	20533
900.711	20629
900.83	20427
900.95	20697
901.069	20613
901.189	20564
901.308	20229
901.427	20107
901.546	20161
901.665	20240
901.784	20221
901.904	19951
902.023	19906
902.141	19674
902.26	19666
902.379	19772
902.498	19586
902.617	19632
902.735	19666
902.854	19575
902.973	19514
903.091	19244
903.21	19240
903.328	19301
903.446	19232
903.565	19156
903.683	19194
903.801	19057
903.919	19038
904.038	19061
904.156	18825
904.274	18947
904.392	18882
904.51	18859
904.627	18764
904.745	18844
904.863	18863
904.981	18722
905.098	18582
905.216	18601
905.334	18547
905.451	18593
905.569	18525
905.686	18544
905.803	18486
905.921	18311
906.038	18334
906.155	18277
906.272	18216
906.389	18232
906.506	18083
906.623	18133
906.74	18087
906.857	17946
906.974	18053
907.091	18060
907.208	18213
907.324	18155
907.441	18011
907.557	17836
907.674	17718
907.79	17665
907.907	17802
908.023	17916
908.139	17687
908.256	17748
908.372	17691
908.488	17623
908.604	17505
908.72	17478
908.836	17535
908.952	17406
909.068	17482
909.184	17573
909.3	17532
909.415	17509
909.531	17482
909.647	17349
909.762	17181
909.878	17227
909.993	17121
910.108	17166
910.224	17045
910.339	17178
910.454	17064
910.57	17064
910.685	16869
910.8	17235
910.915	17045
911.03	16961
911.145	16843
911.259	16771
911.374	16835
911.489	16774
911.604	16607
911.718	16497
911.833	16554
911.947	16470
912.062	16428
912.176	16516
912.291	16554
912.405	16500
912.519	16706
912.633	16660
912.748	16550
912.862	16443
912.976	16375
913.09	16242
913.204	16238
913.318	16344
913.431	16367
913.545	16474
913.659	16337
913.772	16280
913.886	16154
914	16086
914.113	16204
914.226	16196
914.34	16147
914.453	16071
914.566	16192
914.68	15964
914.793	15842
914.906	15793
915.019	15660
915.132	15739
915.245	15701
915.358	15709
915.47	15698
915.583	15747
915.696	15759
915.809	15797
915.921	15800
916.034	15614
916.146	15530
916.259	15545
916.371	15717
916.483	15557
916.595	15580
916.708	15530
916.82	15511
916.932	15439
917.044	15507
917.156	15389
917.268	15283
917.38	15370
917.491	15272
917.603	15370
917.715	15401
917.826	15431
917.938	15165
918.049	15256
918.161	15382
918.272	15294
918.384	15405
918.495	15252
918.606	15013
918.717	15043
918.828	15089
918.939	15161
919.05	14952
919.161	15100
919.272	14830
919.383	14914
919.494	15150
919.604	15188
919.715	14929
919.826	15020
919.936	15089
920.047	15055
920.157	14933
920.267	15192
920.378	15036
920.488	14982
920.598	15176
920.708	15272
920.818	15081
920.928	15214
921.038	15249
921.148	15207
921.258	14960
921.368	14880
921.477	14769
921.587	14750
921.697	14621
921.806	14781
921.916	14632
922.025	14412
922.134	14473
922.244	14419
922.353	14332
922.462	14187
922.571	14214
922.68	14081
922.789	14043
922.898	14035
923.007	13868
923.116	14039
923.224	13940
923.333	13997
923.442	13830
923.55	13769
923.659	13902
923.767	14005
923.876	13795
923.984	13856
924.092	13814
924.201	13734
924.309	13681
924.417	13746
924.525	13837
924.633	13704
924.741	14434
924.849	13510
924.956	13620
925.064	13495
925.172	13335
925.279	13434
925.387	13441
925.494	13415
925.602	13548
925.709	13476
925.816	13259
925.924	13312
926.031	13411
926.138	13388
926.245	13460
926.352	13247
926.459	13350
926.566	13392
926.673	13350
926.779	13099
926.886	13126
926.993	12966
927.099	12890
927.206	12909
927.312	12932
927.419	13008
927.525	12916
927.631	12932
927.737	12871
927.843	12798
927.95	12764
928.056	12802
928.162	12795
928.267	12859
928.373	13571
928.479	12856
928.585	12623
928.69	12738
928.796	12825
928.901	12650
929.007	12460
929.112	12711
929.218	12589
929.323	12460
929.428	12445
929.533	12566
929.638	12403
929.743	12483
929.848	12521
929.953	12437
930.058	12330
930.163	12163
930.267	12194
930.372	12251
930.477	12201
930.581	12315
930.685	12194
930.79	12041
930.894	12114
930.998	12007
931.103	12072
931.207	11748
931.311	11771
931.415	11585
931.519	11444
931.623	11360
