Data from test_V78500241_2375.txt Node
Date: Fri Mar 25 15:58:15 CST 2022
User: usil
Spectrometer: V785-0024
Trigger mode: 0
Integration Time (sec): 4.000000E-1
Scans to average: 1
Nonlinearity correction enabled: false
Boxcar width: 0
Storing dark spectrum: false
XAxis mode: Wavelengths
Number of Pixels in Spectrum: 1024
>>>>>Begin Spectral Data<<<<<
801.071	28915
801.214	28713
801.356	28577
801.499	28637
801.641	28561
801.783	28542
801.926	28542
802.068	28531
802.211	28554
802.353	28360
802.496	28284
802.638	28257
802.78	28131
802.923	28177
803.065	28128
803.208	28025
803.35	28261
803.492	28375
803.635	28401
803.777	28219
803.919	28284
804.061	28702
804.204	28443
804.346	28329
804.488	28360
804.63	28474
804.773	28455
804.915	28542
805.057	28519
805.199	28550
805.341	28519
805.483	28615
805.626	28557
805.768	28405
805.91	28561
806.052	28691
806.194	28527
806.336	28664
806.478	28584
806.62	28546
806.762	28717
806.904	28919
807.046	29181
807.188	28999
807.33	29022
807.472	29113
807.614	28927
807.756	29079
807.898	28896
808.04	28854
808.182	28763
808.324	28904
808.465	29048
808.607	29098
808.749	29166
808.891	29368
809.033	29375
809.174	29387
809.316	29353
809.458	29467
809.6	29326
809.741	29433
809.883	29474
810.025	29516
810.166	29589
810.308	29630
810.45	29558
810.591	29455
810.733	29448
810.875	29322
811.016	29299
811.158	29170
811.299	29356
811.441	29353
811.582	29467
811.724	29414
811.865	29425
812.007	29197
812.148	29254
812.29	29436
812.431	29452
812.573	29611
812.714	29729
812.855	29851
812.997	29984
813.138	30102
813.279	29904
813.421	29882
813.562	29843
813.703	29653
813.845	29474
813.986	29311
814.127	29136
814.268	29014
814.41	29254
814.551	29018
814.692	29162
814.833	28850
814.974	29052
815.115	29014
815.256	28961
815.397	28793
815.539	28961
815.68	28911
815.821	28877
815.962	28812
816.103	28877
816.244	28660
816.385	28630
816.526	28672
816.666	28459
816.807	28405
816.948	28538
817.089	28588
817.23	28390
817.371	28360
817.512	28242
817.653	28382
817.793	28341
817.934	28272
818.075	28413
818.216	28276
818.356	28325
818.497	28348
818.638	28006
818.778	28135
818.919	28013
819.06	28249
819.2	28226
819.341	28348
819.481	28333
819.622	28516
819.762	28729
819.903	28721
820.043	28607
820.184	28569
820.324	28371
820.465	28649
820.605	28508
820.746	28398
820.886	28379
821.026	28360
821.167	28485
821.307	28512
821.447	28394
821.588	28367
821.728	28090
821.868	28055
822.008	27804
822.149	27804
822.289	27888
822.429	27583
822.569	27587
822.709	27637
822.849	27450
822.99	27287
823.13	27287
823.27	27207
823.41	27199
823.55	27024
823.69	27020
823.83	27165
823.97	27241
824.11	27013
824.25	26819
824.389	26956
824.529	26960
824.669	27013
824.809	27188
824.949	27077
825.089	27013
825.228	27017
825.368	26937
825.508	26845
825.648	26910
825.787	26937
825.927	26967
826.067	27013
826.206	26902
826.346	26864
826.485	26921
826.625	26823
826.765	27142
826.904	26880
827.044	26686
827.183	26754
827.323	26629
827.462	26750
827.601	26606
827.741	26651
827.88	26625
828.02	26473
828.159	26655
828.298	26629
828.437	26712
828.577	26549
828.716	26590
828.855	26518
828.994	26259
829.134	26351
829.273	26244
829.412	26180
829.551	26305
829.69	26412
829.829	26320
829.968	26446
830.107	26355
830.246	26362
830.385	26328
830.524	26233
830.663	26111
830.802	26077
830.941	25826
831.08	25845
831.219	25860
831.357	26062
831.496	26176
831.635	26073
831.774	25750
831.913	25788
832.051	25666
832.19	25761
832.329	25590
832.467	25476
832.606	25620
832.744	25464
832.883	25411
833.022	25647
833.16	25609
833.299	25495
833.437	25624
833.576	25601
833.714	25674
833.852	25693
833.991	25803
834.129	25666
834.267	25567
834.406	25518
834.544	25655
834.682	25441
834.821	25616
834.959	25795
835.097	25506
835.235	25685
835.373	25651
835.511	25559
835.65	25426
835.788	25449
835.926	25331
836.064	25244
836.202	25289
836.34	25339
836.478	25514
836.615	25434
836.753	25403
836.891	25533
837.029	25506
837.167	25278
837.305	25460
837.443	25282
837.58	25247
837.718	25236
837.856	25289
837.993	25152
838.131	25209
838.269	25107
838.406	25126
838.544	25129
838.681	24992
838.819	24890
838.956	24688
839.094	24707
839.231	24719
839.369	24996
839.506	25137
839.643	24844
839.781	24719
839.918	24700
840.055	24722
840.193	24798
840.33	24715
840.467	24570
840.604	24578
840.742	24905
840.879	24410
841.016	24616
841.153	24460
841.29	24711
841.427	24578
841.564	24711
841.701	24551
841.838	24601
841.975	24486
842.112	24502
842.249	24544
842.385	24437
842.522	24604
842.659	24528
842.796	24315
842.933	24452
843.069	24281
843.206	24311
843.343	24498
843.479	24353
843.616	24350
843.752	24209
843.889	24178
844.025	24315
844.162	24201
844.298	24311
844.435	24186
844.571	24159
844.708	24171
844.844	24311
844.98	24254
845.117	24194
845.253	24064
845.389	24057
845.525	23988
845.661	23965
845.798	23920
845.934	24018
846.07	23775
846.206	23893
846.342	23920
846.478	23859
846.614	23611
846.75	23573
846.886	23589
847.022	23718
847.158	23684
847.294	23539
847.429	23509
847.565	23467
847.701	23843
847.837	23372
847.972	23337
848.108	23330
848.244	23372
848.379	23189
848.515	23193
848.65	23132
848.786	23121
848.921	23162
849.057	23318
849.192	23235
849.328	23231
849.463	23261
849.598	23143
849.734	23048
849.869	23056
850.004	22889
850.14	23033
850.275	22892
850.41	22862
850.545	22923
850.68	22968
850.815	22957
850.95	22999
851.085	23067
851.22	22968
851.355	23018
851.49	23014
851.625	22938
851.76	22961
851.895	22946
852.03	22927
852.165	22923
852.299	22904
852.434	23006
852.569	23014
852.703	23056
852.838	23003
852.973	22923
853.107	23162
853.242	22889
853.376	22786
853.511	22698
853.645	22702
853.78	22957
853.914	22881
854.048	22858
854.183	22805
854.317	22900
854.451	22980
854.585	22759
854.72	22767
854.854	22885
854.988	22771
855.122	22649
855.256	22679
855.39	22759
855.524	22839
855.658	22839
855.792	22702
855.926	22835
856.06	22694
856.194	22911
856.327	22885
856.461	22809
856.595	22679
856.729	22740
856.862	22892
856.996	22805
857.13	22881
857.263	22809
857.397	22889
857.53	22820
857.664	22793
857.797	22786
857.931	22915
858.064	22820
858.197	22820
858.331	22702
858.464	22706
858.597	22615
858.731	22908
858.864	22752
858.997	22831
859.13	22755
859.263	22828
859.396	22896
859.529	22733
859.662	22767
859.795	22702
859.928	22710
860.061	22949
860.194	22987
860.327	22831
860.46	22820
860.592	22850
860.725	22949
860.858	22908
860.99	22771
861.123	22771
861.256	22698
861.388	22763
861.521	23459
861.653	22698
861.786	22455
861.918	22664
862.05	22615
862.183	22748
862.315	22725
862.447	22729
862.58	22740
862.712	22478
862.844	22462
862.976	22565
863.108	22516
863.24	22873
863.372	22386
863.504	22538
863.636	22443
863.768	22512
863.9	22504
864.032	22417
864.164	22390
864.296	22447
864.428	22535
864.559	22508
864.691	22478
864.823	22474
864.954	22451
865.086	22474
865.217	22440
865.349	22375
865.48	22375
865.612	22367
865.743	22489
865.875	22394
866.006	22390
866.137	22363
866.269	22303
866.4	22379
866.531	22295
866.662	22230
866.793	22379
866.924	22185
867.055	22276
867.186	22344
867.317	22207
867.448	22177
867.579	22246
867.71	22204
867.841	22097
867.972	22219
868.103	22249
868.233	22280
868.364	22287
868.495	22314
868.625	22497
868.756	22584
868.886	22390
869.017	22413
869.147	22660
869.278	22656
869.408	22504
869.539	22546
869.669	22565
869.799	22527
869.929	22691
870.06	22641
870.19	22866
870.32	22733
870.45	22896
870.58	22831
870.71	22877
870.84	23079
870.97	22862
871.1	22869
871.23	23067
871.36	23083
871.489	22919
871.619	23109
871.749	23041
871.879	23181
872.008	23299
872.138	23102
872.267	23174
872.397	23109
872.526	22949
872.656	23052
872.785	22938
872.915	23231
873.044	23220
873.173	23025
873.303	23246
873.432	23090
873.561	23280
873.69	23189
873.819	23181
873.948	23136
874.077	23181
874.206	23064
874.335	23277
874.464	23273
874.593	23402
874.722	23368
874.851	23341
874.979	23379
875.108	23383
875.237	23242
875.365	23197
875.494	23417
875.623	23372
875.751	23303
875.88	23429
876.008	23490
876.136	23577
876.265	23737
876.393	23923
876.521	23646
876.65	23745
876.778	23729
876.906	23843
877.034	23653
877.162	23642
877.29	23646
877.418	23824
877.546	23729
877.674	23767
877.802	23509
877.93	23710
878.058	23752
878.185	23516
878.313	23551
878.441	23619
878.568	23592
878.696	23577
878.824	23908
878.951	23729
879.079	23847
879.206	23901
879.333	23874
879.461	23764
879.588	23718
879.715	23859
879.842	23923
879.97	23828
880.097	23421
880.224	23398
880.351	23474
880.478	23364
880.605	23334
880.732	23573
880.859	23790
880.986	23501
881.112	23547
881.239	23406
881.366	23250
881.493	23006
881.619	23136
881.746	23075
881.872	23185
881.999	22938
882.125	22850
882.252	23159
882.378	23022
882.505	23258
882.631	22965
882.757	22759
882.883	22930
883.01	22698
883.136	22542
883.262	22615
883.388	22672
883.514	22713
883.64	22763
883.766	22721
883.892	22462
884.018	22508
884.143	22649
884.269	22687
884.395	22363
884.52	22276
884.646	22557
884.772	22261
884.897	22386
885.023	22409
885.148	22462
885.274	22569
885.399	22409
885.524	22398
885.65	22382
885.775	22306
885.9	22219
886.025	22405
886.15	22531
886.275	22291
886.4	22204
886.525	22382
886.65	22371
886.775	22177
886.9	22462
887.025	22478
887.149	22215
887.274	22109
887.399	22105
887.523	22097
887.648	22021
887.773	21915
887.897	22082
888.021	22086
888.146	22124
888.27	22173
888.395	22253
888.519	22192
888.643	22093
888.767	22120
888.891	22055
889.015	21941
889.139	21960
889.263	21899
889.387	21956
889.511	22055
889.635	21895
889.759	21827
889.883	21892
890.006	21945
890.13	21964
890.254	21892
890.377	21854
890.501	21679
890.624	21652
890.748	21732
890.871	21530
890.995	21462
891.118	21279
891.241	21382
891.364	21450
891.488	21504
891.611	21454
891.734	21370
891.857	21431
891.98	21500
892.103	21488
892.226	21351
892.349	21332
892.471	21298
892.594	21431
892.717	21428
892.839	21272
892.962	21287
893.085	21397
893.207	21291
893.33	21165
893.452	21302
893.575	21348
893.697	21332
893.819	21534
893.941	21435
894.064	21374
894.186	21344
894.308	21241
894.43	21408
894.552	21382
894.674	21481
894.796	21287
894.918	21260
895.04	21348
895.161	21439
895.283	21473
895.405	21329
895.526	21287
895.648	21142
895.769	21389
895.891	21291
896.012	21367
896.134	21283
896.255	21386
896.376	21294
896.498	21237
896.619	21291
896.74	21268
896.861	21241
896.982	21614
897.103	21682
897.224	21523
897.345	21412
897.466	21412
897.587	21469
897.708	21576
897.828	21428
897.949	21435
898.07	21344
898.19	21431
898.311	21549
898.431	21511
898.552	21450
898.672	21652
898.792	21515
898.913	21675
899.033	21420
899.153	21340
899.273	21062
899.393	21203
899.513	21249
899.633	21203
899.753	21154
899.873	21157
899.993	21173
900.113	21070
900.232	21184
900.352	21165
900.472	20975
900.591	20967
900.711	21028
900.83	20944
900.95	21036
901.069	21138
901.189	20914
901.308	20659
901.427	20617
901.546	20499
901.665	20625
901.784	20431
901.904	20301
902.023	20404
902.141	20024
902.26	20180
902.379	20096
902.498	20161
902.617	20008
902.735	20043
902.854	20073
902.973	19947
903.091	19750
903.21	19708
903.328	19700
903.446	19658
903.565	19586
903.683	19605
903.801	19392
903.919	19419
904.038	19422
904.156	19320
904.274	19396
904.392	19217
904.51	19247
904.627	19308
904.745	19289
904.863	19304
904.981	19042
905.098	18837
905.216	18890
905.334	19053
905.451	18890
905.569	18901
905.686	18897
905.803	19019
905.921	18722
906.038	18867
906.155	18669
906.272	18570
906.389	18703
906.506	18464
906.623	18410
906.74	18509
906.857	18346
906.974	18475
907.091	18547
907.208	18532
907.324	18479
907.441	18319
907.557	18190
907.674	18197
907.79	18057
907.907	18133
908.023	18015
908.139	18163
908.256	18019
908.372	18011
908.488	17996
908.604	17870
908.72	17863
908.836	17836
908.952	17828
909.068	17859
909.184	17961
909.3	17851
909.415	17988
909.531	17767
909.647	17570
909.762	17646
909.878	17581
909.993	17592
910.108	17539
910.224	17436
910.339	17452
910.454	17284
910.57	17307
910.685	17261
910.8	17558
910.915	17459
911.03	17429
911.145	17136
911.259	17147
911.374	17140
911.489	17075
911.604	17037
911.718	16915
911.833	16896
911.947	16816
912.062	16725
912.176	16854
912.291	16858
912.405	16889
912.519	17037
912.633	16957
912.748	16869
912.862	16930
912.976	16717
913.09	16558
913.204	16588
913.318	16752
913.431	16748
913.545	16687
913.659	16892
913.772	16584
913.886	16546
914	16561
914.113	16565
914.226	16569
914.34	16519
914.453	16413
914.566	16405
914.68	16367
914.793	16325
914.906	16128
915.019	16078
915.132	16040
915.245	16055
915.358	16131
915.47	16074
915.583	16105
915.696	16097
915.809	16101
915.921	16188
916.034	16013
916.146	15979
916.259	16010
916.371	15956
916.483	16002
916.595	15930
916.708	15850
916.82	15812
916.932	15789
917.044	15823
917.156	15724
917.268	15686
917.38	15690
917.491	15644
917.603	15538
917.715	15705
917.826	15739
917.938	15644
918.049	15473
918.161	15530
918.272	15675
918.384	15690
918.495	15576
918.606	15443
918.717	15424
918.828	15389
918.939	15473
919.05	15313
919.161	15469
919.272	15237
919.383	15287
919.494	15473
919.604	15652
919.715	15431
919.826	15211
919.936	15313
920.047	15428
920.157	15500
920.267	15580
920.378	15374
920.488	15359
920.598	15641
920.708	15736
920.818	15454
920.928	15557
921.038	15637
921.148	15603
921.258	15313
921.368	15192
921.477	15093
921.587	15055
921.697	15013
921.806	15165
921.916	14956
922.025	14788
922.134	14678
922.244	14670
922.353	14743
922.462	14712
922.571	14488
922.68	14480
922.789	14301
922.898	14332
923.007	14294
923.116	14495
923.224	14294
923.333	14393
923.442	14252
923.55	14214
923.659	14259
923.767	14313
923.876	14130
923.984	14157
924.092	14050
924.201	14210
924.309	14084
924.417	14218
924.525	13970
924.633	13997
924.741	14948
924.849	13818
924.956	13982
925.064	13803
925.172	13715
925.279	13734
925.387	13712
925.494	13765
925.602	13837
925.709	13769
925.816	13624
925.924	13750
926.031	13757
926.138	13674
926.245	13734
926.352	13597
926.459	13750
926.566	13700
926.673	13651
926.779	13487
926.886	13449
926.993	13304
927.099	13304
927.206	13187
927.312	13232
927.419	13285
927.525	13270
927.631	13285
927.737	13126
927.843	13118
927.95	12993
928.056	13080
928.162	13099
928.267	13095
928.373	13693
928.479	13065
928.585	12939
928.69	12943
928.796	13061
928.901	12951
929.007	12703
929.112	12947
929.218	12954
929.323	12802
929.428	12749
929.533	12932
929.638	12707
929.743	12753
929.848	12776
929.953	12719
930.058	12623
930.163	12418
930.267	12445
930.372	12559
930.477	12342
930.581	12662
930.685	12464
930.79	12407
930.894	12300
930.998	12224
931.103	12384
931.207	12140
931.311	11984
931.415	11843
931.519	11786
931.623	11771
