Data from test_V78500241_458.txt Node
Date: Fri Mar 25 15:44:58 CST 2022
User: usil
Spectrometer: V785-0024
Trigger mode: 0
Integration Time (sec): 4.000000E-1
Scans to average: 1
Nonlinearity correction enabled: false
Boxcar width: 0
Storing dark spectrum: false
XAxis mode: Wavelengths
Number of Pixels in Spectrum: 1024
>>>>>Begin Spectral Data<<<<<
801.071	27488
801.214	27431
801.356	27222
801.499	27104
801.641	27020
801.783	27020
801.926	27127
802.068	26857
802.211	26845
802.353	26902
802.496	26693
802.638	26590
802.78	26781
802.923	26750
803.065	26708
803.208	26682
803.35	26613
803.492	26655
803.635	26708
803.777	26670
803.919	26834
804.061	27135
804.204	26872
804.346	26781
804.488	26754
804.63	26792
804.773	26598
804.915	26765
805.057	26933
805.199	26746
805.341	26914
805.483	26864
805.626	26899
805.768	26743
805.91	26838
806.052	26971
806.194	26849
806.336	27024
806.478	26876
806.62	26876
806.762	27001
806.904	27256
807.046	27367
807.188	27344
807.33	27420
807.472	27302
807.614	27211
807.756	27264
807.898	27237
808.04	27157
808.182	27138
808.324	27116
808.465	27188
808.607	27321
808.749	27454
808.891	27542
809.033	27671
809.174	27739
809.316	27603
809.458	27656
809.6	27466
809.741	27587
809.883	27686
810.025	27713
810.166	27713
810.308	27663
810.45	27694
810.591	27614
810.733	27523
810.875	27523
811.016	27492
811.158	27427
811.299	27568
811.441	27709
811.582	27652
811.724	27443
811.865	27450
812.007	27504
812.148	27458
812.29	27576
812.431	27694
812.573	27808
812.714	27880
812.855	28074
812.997	28135
813.138	28314
813.279	28063
813.421	28055
813.562	27972
813.703	27800
813.845	27800
813.986	27389
814.127	27199
814.268	27173
814.41	27116
814.551	27089
814.692	27260
814.833	26960
814.974	27051
815.115	27226
815.256	27146
815.397	27104
815.539	27116
815.68	26979
815.821	26933
815.962	26982
816.103	26811
816.244	26902
816.385	26663
816.526	26883
816.666	26545
816.807	26427
816.948	26499
817.089	26564
817.23	26408
817.371	26408
817.512	26351
817.653	26366
817.793	26450
817.934	26366
818.075	26385
818.216	26328
818.356	26366
818.497	26172
818.638	26050
818.778	26073
818.919	26191
819.06	26309
819.2	26275
819.341	26400
819.481	26355
819.622	26427
819.762	26705
819.903	26720
820.043	26480
820.184	26465
820.324	26419
820.465	26457
820.605	26606
820.746	26457
820.886	26374
821.026	26419
821.167	26499
821.307	26609
821.447	26450
821.588	26313
821.728	26043
821.868	25944
822.008	25879
822.149	25788
822.289	25951
822.429	25685
822.569	25518
822.709	25502
822.849	25304
822.99	25358
823.13	25343
823.27	25327
823.41	25065
823.55	25194
823.69	25316
823.83	25217
823.97	25107
824.11	25038
824.25	25015
824.389	24901
824.529	25152
824.669	25091
824.809	25034
824.949	25202
825.089	25126
825.228	25065
825.368	24848
825.508	24863
825.648	24829
825.787	24646
825.927	24890
826.067	24943
826.206	24829
826.346	24840
826.485	24829
826.625	25023
826.765	24970
826.904	24878
827.044	24456
827.183	24445
827.323	24513
827.462	24559
827.601	24521
827.741	24437
827.88	24559
828.02	24365
828.159	24395
828.298	24426
828.437	24589
828.577	24460
828.716	24635
828.855	24467
828.994	24281
829.134	24205
829.273	24330
829.412	24201
829.551	24186
829.69	24106
829.829	24277
829.968	24304
830.107	24247
830.246	24209
830.385	24155
830.524	24076
830.663	23969
830.802	23969
830.941	23874
831.08	23779
831.219	23836
831.357	23923
831.496	24045
831.635	23726
831.774	23859
831.913	23729
832.051	23592
832.19	23581
832.329	23699
832.467	23505
832.606	23478
832.744	23425
832.883	23387
833.022	23471
833.16	23505
833.299	23543
833.437	23554
833.576	23524
833.714	23566
833.852	23551
833.991	23600
834.129	23634
834.267	23630
834.406	23520
834.544	23535
834.682	23524
834.821	23474
834.959	23752
835.097	23471
835.235	23524
835.373	23436
835.511	23478
835.65	23417
835.788	23414
835.926	23284
836.064	23124
836.202	23242
836.34	23364
836.478	23459
836.615	23330
836.753	23440
836.891	23379
837.029	23322
837.167	23326
837.305	23204
837.443	23284
837.58	23197
837.718	23318
837.856	23265
837.993	23246
838.131	23242
838.269	23056
838.406	23254
838.544	22946
838.681	22873
838.819	22797
838.956	22752
839.094	22744
839.231	22763
839.369	22831
839.506	22976
839.643	22866
839.781	22630
839.918	22698
840.055	22675
840.193	22550
840.33	22641
840.467	22588
840.604	22611
840.742	22831
840.879	22451
841.016	22599
841.153	22561
841.29	22710
841.427	22679
841.564	22713
841.701	22706
841.838	22516
841.975	22565
842.112	22424
842.249	22405
842.385	22337
842.522	22592
842.659	22512
842.796	22322
842.933	22363
843.069	22337
843.206	22268
843.343	22394
843.479	22394
843.616	22341
843.752	22204
843.889	22185
844.025	22375
844.162	22082
844.298	22226
844.435	22166
844.571	22116
844.708	22128
844.844	22196
844.98	22234
845.117	22318
845.253	22215
845.389	22048
845.525	22078
845.661	21941
845.798	21899
845.934	21937
846.07	21785
846.206	22048
846.342	21979
846.478	21770
846.614	21732
846.75	21557
846.886	21587
847.022	21679
847.158	21450
847.294	21595
847.429	21583
847.565	21610
847.701	21888
847.837	21321
847.972	21294
848.108	21389
848.244	21450
848.379	21264
848.515	21283
848.65	21272
848.786	21070
848.921	21184
849.057	21401
849.192	21184
849.328	21180
849.463	21241
849.598	21013
849.734	21138
849.869	21081
850.004	20975
850.14	20990
850.275	20929
850.41	20788
850.545	20906
850.68	20963
850.815	21009
850.95	21013
851.085	21195
851.22	21062
851.355	20960
851.49	20948
851.625	20986
851.76	20982
851.895	20811
852.03	20842
852.165	20967
852.299	21017
852.434	20921
852.569	20990
852.703	20990
852.838	21032
852.973	20998
853.107	20979
853.242	20876
853.376	20834
853.511	20697
853.645	20746
853.78	20979
853.914	20823
854.048	20705
854.183	20807
854.317	20773
854.451	20872
854.585	20826
854.72	20636
854.854	20853
854.988	20606
855.122	20705
855.256	20473
855.39	20769
855.524	20804
855.658	20773
855.792	20849
855.926	20720
856.06	20902
856.194	20853
856.327	20735
856.461	20746
856.595	20689
856.729	20701
856.862	20788
856.996	20739
857.13	20845
857.263	20933
857.397	20861
857.53	20887
857.664	20872
857.797	20933
857.931	20834
858.064	20800
858.197	20819
858.331	20807
858.464	20651
858.597	20640
858.731	20636
858.864	20796
858.997	20640
859.13	20739
859.263	20743
859.396	20739
859.529	20735
859.662	20632
859.795	20746
859.928	20781
860.061	20952
860.194	20944
860.327	20834
860.46	20796
860.592	20918
860.725	20986
860.858	20883
860.99	20754
861.123	20716
861.256	20663
861.388	20777
861.521	21420
861.653	20678
861.786	20533
861.918	20629
862.05	20724
862.183	20773
862.315	20651
862.447	20701
862.58	20754
862.712	20450
862.844	20381
862.976	20716
863.108	20609
863.24	20914
863.372	20358
863.504	20442
863.636	20446
863.768	20503
863.9	20442
864.032	20328
864.164	20351
864.296	20438
864.428	20537
864.559	20579
864.691	20590
864.823	20571
864.954	20454
865.086	20514
865.217	20343
865.349	20206
865.48	20408
865.612	20381
865.743	20522
865.875	20362
866.006	20259
866.137	20522
866.269	20320
866.4	20366
866.531	20324
866.662	20267
866.793	20377
866.924	20237
867.055	20339
867.186	20393
867.317	20366
867.448	20233
867.579	20355
867.71	20210
867.841	20233
867.972	20233
868.103	20343
868.233	20404
868.364	20381
868.495	20351
868.625	20556
868.756	20648
868.886	20530
869.017	20511
869.147	20598
869.278	20648
869.408	20629
869.539	20613
869.669	20682
869.799	20697
869.929	20788
870.06	20750
870.19	20933
870.32	20956
870.45	20838
870.58	21028
870.71	21028
870.84	21108
870.97	20975
871.1	21013
871.23	21051
871.36	21135
871.489	21176
871.619	21085
871.749	21195
871.879	21157
872.008	21279
872.138	21100
872.267	21104
872.397	20990
872.526	21051
872.656	21036
872.785	21009
872.915	21188
873.044	21119
873.173	21051
873.303	21214
873.432	21298
873.561	21283
873.69	21192
873.819	21108
873.948	21222
874.077	21192
874.206	21226
874.335	21218
874.464	21294
874.593	21450
874.722	21283
874.851	21469
874.979	21519
875.108	21412
875.237	21568
875.365	21252
875.494	21469
875.623	21538
875.751	21306
875.88	21408
876.008	21538
876.136	21606
876.265	21812
876.393	21987
876.521	21888
876.65	21979
876.778	21774
876.906	21641
877.034	21804
877.162	21667
877.29	21774
877.418	21854
877.546	21808
877.674	21804
877.802	21766
877.93	21778
878.058	21842
878.185	21660
878.313	21743
878.441	21781
878.568	21542
878.696	21774
878.824	21717
878.951	21915
879.079	21911
879.206	22131
879.333	21968
879.461	21884
879.588	21918
879.715	21922
879.842	22120
879.97	21720
880.097	21656
880.224	21530
880.351	21610
880.478	21633
880.605	21511
880.732	21610
880.859	21789
880.986	21614
881.112	21675
881.239	21526
881.366	21272
881.493	21252
881.619	21100
881.746	21222
881.872	21173
881.999	21165
882.125	21161
882.252	21218
882.378	21226
882.505	21359
882.631	21028
882.757	20864
882.883	20899
883.01	20845
883.136	20883
883.262	20845
883.388	20670
883.514	20811
883.64	20941
883.766	20785
883.892	20720
884.018	20708
884.143	20834
884.269	20948
884.395	20598
884.52	20533
884.646	20541
884.772	20621
884.897	20545
885.023	20499
885.148	20667
885.274	20727
885.399	20663
885.524	20518
885.65	20545
885.775	20488
885.9	20438
886.025	20617
886.15	20746
886.275	20511
886.4	20526
886.525	20370
886.65	20434
886.775	20488
886.9	20522
887.025	20804
887.149	20507
887.274	20355
887.399	20351
887.523	20351
887.648	20237
887.773	20240
887.897	20389
888.021	20442
888.146	20134
888.27	20400
888.395	20408
888.519	20434
888.643	20381
888.767	20396
888.891	20225
889.015	20073
889.139	20122
889.263	20126
889.387	20126
889.511	20328
889.635	20309
889.759	20077
889.883	20122
890.006	20145
890.13	20088
890.254	20001
890.377	20027
890.501	19814
890.624	19830
890.748	19807
890.871	19833
890.995	19704
891.118	19693
891.241	19780
891.364	19704
891.488	19769
891.611	19734
891.734	19628
891.857	19643
891.98	19704
892.103	19757
892.226	19575
892.349	19624
892.471	19483
892.594	19643
892.717	19708
892.839	19506
892.962	19677
893.085	19738
893.207	19609
893.33	19480
893.452	19540
893.575	19616
893.697	19582
893.819	19670
893.941	19753
894.064	19757
894.186	19506
894.308	19544
894.43	19719
894.552	19734
894.674	19685
894.796	19457
894.918	19624
895.04	19632
895.161	19624
895.283	19635
895.405	19582
895.526	19639
895.648	19529
895.769	19731
895.891	19651
896.012	19685
896.134	19578
896.255	19620
896.376	19658
896.498	19674
896.619	19655
896.74	19655
896.861	19700
896.982	20005
897.103	20214
897.224	19963
897.345	19841
897.466	19772
897.587	19944
897.708	20157
897.828	19852
897.949	19731
898.07	19559
898.19	19788
898.311	19913
898.431	19852
898.552	19856
898.672	19871
898.792	19978
898.913	19864
899.033	19772
899.153	19765
899.273	19578
899.393	19670
899.513	19613
899.633	19586
899.753	19651
899.873	19590
899.993	19575
900.113	19582
900.232	19639
900.352	19552
900.472	19464
900.591	19320
900.711	19388
900.83	19403
900.95	19502
901.069	19434
901.189	19422
901.308	19046
901.427	18981
901.546	19057
901.665	18947
901.784	19000
901.904	18856
902.023	18703
902.141	18658
902.26	18475
902.379	18608
902.498	18490
902.617	18471
902.735	18365
902.854	18483
902.973	18536
903.091	18117
903.21	18129
903.328	18182
903.446	18083
903.565	18106
903.683	17942
903.801	17904
903.919	18019
904.038	17908
904.156	17802
904.274	17973
904.392	17741
904.51	17745
904.627	17680
904.745	17714
904.863	17783
904.981	17463
905.098	17398
905.216	17440
905.334	17463
905.451	17395
905.569	17353
905.686	17406
905.803	17387
905.921	17223
906.038	17265
906.155	17124
906.272	17124
906.389	17136
906.506	16965
906.623	16957
906.74	16881
906.857	16740
906.974	16752
907.091	17067
907.208	17090
907.324	16965
907.441	16801
907.557	16713
907.674	16763
907.79	16634
907.907	16653
908.023	16607
908.139	16668
908.256	16558
908.372	16542
908.488	16554
908.604	16436
908.72	16348
908.836	16451
908.952	16428
909.068	16440
909.184	16535
909.3	16436
909.415	16493
909.531	16413
909.647	16158
909.762	16105
909.878	16131
909.993	16128
910.108	16120
910.224	16128
910.339	16074
910.454	16002
910.57	15876
910.685	15930
910.8	16249
910.915	16010
911.03	15998
911.145	15759
911.259	15679
911.374	15736
911.489	15690
911.604	15519
911.718	15439
911.833	15389
911.947	15443
912.062	15393
912.176	15428
912.291	15610
912.405	15538
912.519	15690
912.633	15648
912.748	15488
912.862	15416
912.976	15298
913.09	15256
913.204	15230
913.318	15294
913.431	15340
913.545	15264
913.659	15405
913.772	15203
913.886	15104
914	14998
914.113	15256
914.226	15230
914.34	15100
914.453	14963
914.566	15150
914.68	14948
914.793	14971
914.906	14800
915.019	14750
915.132	14632
915.245	14762
915.358	14735
915.47	14712
915.583	14750
915.696	14731
915.809	14853
915.921	14857
916.034	14610
916.146	14727
916.259	14625
916.371	14686
916.483	14659
916.595	14560
916.708	14610
916.82	14518
916.932	14514
917.044	14511
917.156	14438
917.268	14343
917.38	14412
917.491	14427
917.603	14362
917.715	14355
917.826	14511
917.938	14282
918.049	14252
918.161	14362
918.272	14476
918.384	14412
918.495	14427
918.606	14199
918.717	14077
918.828	14123
918.939	14157
919.05	14024
919.161	14119
919.272	14001
919.383	13947
919.494	14172
919.604	14278
919.715	14092
919.826	14058
919.936	14126
920.047	14164
920.157	14195
920.267	14332
920.378	14126
920.488	14069
920.598	14298
920.708	14404
920.818	14164
920.928	14256
921.038	14415
921.148	14324
921.258	14115
921.368	13974
921.477	13921
921.587	13856
921.697	13795
921.806	13845
921.916	13693
922.025	13575
922.134	13586
922.244	13441
922.353	13502
922.462	13434
922.571	13259
922.68	13118
922.789	13149
922.898	13126
923.007	13088
923.116	13149
923.224	13198
923.333	13183
923.442	12981
923.55	13038
923.659	12985
923.767	12996
923.876	12943
923.984	12973
924.092	12867
924.201	12981
924.309	12913
924.417	12993
924.525	12871
924.633	12829
924.741	13586
924.849	12566
924.956	12852
925.064	12635
925.172	12635
925.279	12540
925.387	12601
925.494	12551
925.602	12726
925.709	12639
925.816	12502
925.924	12490
926.031	12502
926.138	12544
926.245	12551
926.352	12429
926.459	12616
926.566	12574
926.673	12410
926.779	12334
926.886	12292
926.993	12194
927.099	12232
927.206	12117
927.312	12136
927.419	12175
927.525	12072
927.631	12285
927.737	12068
927.843	12064
927.95	12019
928.056	11996
928.162	12076
928.267	12079
928.373	12650
928.479	12091
928.585	11923
928.69	11901
928.796	12011
928.901	11840
929.007	11748
929.112	11859
929.218	11923
929.323	11767
929.428	11775
929.533	11866
929.638	11653
929.743	11703
929.848	11775
929.953	11684
930.058	11642
930.163	11493
930.267	11379
930.372	11577
930.477	11322
930.581	11585
930.685	11455
930.79	11360
930.894	11429
930.998	11273
931.103	11429
931.207	11086
931.311	11025
931.415	10984
931.519	10691
931.623	10710
