Data from test_V78500241_1386.txt Node
Date: Fri Mar 25 15:51:24 CST 2022
User: usil
Spectrometer: V785-0024
Trigger mode: 0
Integration Time (sec): 4.000000E-1
Scans to average: 1
Nonlinearity correction enabled: false
Boxcar width: 0
Storing dark spectrum: false
XAxis mode: Wavelengths
Number of Pixels in Spectrum: 1024
>>>>>Begin Spectral Data<<<<<
801.071	28013
801.214	27793
801.356	27576
801.499	27561
801.641	27393
801.783	27492
801.926	27443
802.068	27500
802.211	27427
802.353	27317
802.496	27127
802.638	27176
802.78	26872
802.923	27123
803.065	27043
803.208	27047
803.35	27161
803.492	27199
803.635	27306
803.777	27036
803.919	27161
804.061	27599
804.204	27534
804.346	27150
804.488	27123
804.63	27401
804.773	27264
804.915	27249
805.057	27416
805.199	27268
805.341	27260
805.483	27526
805.626	27439
805.768	27351
805.91	27481
806.052	27401
806.194	27340
806.336	27580
806.478	27492
806.62	27538
806.762	27694
806.904	27641
807.046	27949
807.188	27930
807.33	27895
807.472	28002
807.614	27728
807.756	27941
807.898	27679
808.04	27599
808.182	27686
808.324	27785
808.465	27770
808.607	27983
808.749	28044
808.891	28166
809.033	28295
809.174	28131
809.316	27899
809.458	28086
809.6	27941
809.741	28181
809.883	28303
810.025	28341
810.166	28348
810.308	28325
810.45	28356
810.591	28322
810.733	28207
810.875	28211
811.016	28048
811.158	27934
811.299	28211
811.441	28207
811.582	28329
811.724	28032
811.865	28078
812.007	28086
812.148	28017
812.29	28029
812.431	28249
812.573	28466
812.714	28474
812.855	28527
812.997	28653
813.138	28828
813.279	28805
813.421	28706
813.562	28447
813.703	28459
813.845	28356
813.986	27998
814.127	27876
814.268	27793
814.41	27956
814.551	27656
814.692	27884
814.833	27682
814.974	27739
815.115	27865
815.256	27736
815.397	27660
815.539	27629
815.68	27606
815.821	27367
815.962	27675
816.103	27660
816.244	27351
816.385	27370
816.526	27241
816.666	27169
816.807	26925
816.948	27192
817.089	27245
817.23	27047
817.371	27100
817.512	26967
817.653	27020
817.793	26940
817.934	27089
818.075	27062
818.216	27089
818.356	26960
818.497	26971
818.638	26819
818.778	26716
818.919	26918
819.06	26960
819.2	27005
819.341	26998
819.481	27093
819.622	27287
819.762	27469
819.903	27367
820.043	27252
820.184	27218
820.324	27195
820.465	27321
820.605	27260
820.746	27195
820.886	27127
821.026	27214
821.167	27211
821.307	27169
821.447	27066
821.588	27005
821.728	26838
821.868	26788
822.008	26663
822.149	26579
822.289	26602
822.429	26408
822.569	26298
822.709	26225
822.849	26100
822.99	25993
823.13	25966
823.27	25963
823.41	25856
823.55	25750
823.69	25940
823.83	25951
823.97	25833
824.11	25590
824.25	25552
824.389	25647
824.529	25864
824.669	25635
824.809	25776
824.949	25811
825.089	25761
825.228	25837
825.368	25529
825.508	25658
825.648	25662
825.787	25639
825.927	25510
826.067	25567
826.206	25495
826.346	25605
826.485	25518
826.625	25643
826.765	25681
826.904	25578
827.044	25400
827.183	25396
827.323	25324
827.462	25377
827.601	25297
827.741	25247
827.88	25365
828.02	25221
828.159	25285
828.298	25209
828.437	25377
828.577	25209
828.716	25263
828.855	25206
828.994	24924
829.134	25023
829.273	25000
829.412	24943
829.551	24920
829.69	24905
829.829	25019
829.968	25012
830.107	25152
830.246	24966
830.385	24863
830.524	24833
830.663	24806
830.802	24772
830.941	24559
831.08	24399
831.219	24681
831.357	24764
831.496	24757
831.635	24677
831.774	24513
831.913	24498
832.051	24323
832.19	24483
832.329	24380
832.467	24273
832.606	24083
832.744	24224
832.883	24159
833.022	24178
833.16	24315
833.299	24178
833.437	24311
833.576	24209
833.714	24346
833.852	24407
833.991	24414
834.129	24277
834.267	24403
834.406	24311
834.544	24330
834.682	24296
834.821	24239
834.959	24555
835.097	24232
835.235	24277
835.373	24273
835.511	24205
835.65	24232
835.788	24136
835.926	24011
836.064	24022
836.202	24034
836.34	24053
836.478	24323
836.615	24079
836.753	24117
836.891	24213
837.029	24197
837.167	24026
837.305	24110
837.443	23923
837.58	24068
837.718	23973
837.856	24022
837.993	23893
838.131	23980
838.269	23779
838.406	23901
838.544	23813
838.681	23680
838.819	23604
838.956	23615
839.094	23387
839.231	23623
839.369	23509
839.506	23927
839.643	23771
839.781	23452
839.918	23429
840.055	23440
840.193	23322
840.33	23490
840.467	23398
840.604	23356
840.742	23726
840.879	23292
841.016	23372
841.153	23246
841.29	23372
841.427	23326
841.564	23395
841.701	23330
841.838	23292
841.975	23250
842.112	23284
842.249	23094
842.385	23166
842.522	23315
842.659	23147
842.796	23109
842.933	23162
843.069	23033
843.206	23094
843.343	23109
843.479	23143
843.616	23147
843.752	22915
843.889	22915
844.025	23022
844.162	22854
844.298	22793
844.435	22984
844.571	22831
844.708	22774
844.844	23079
844.98	23037
845.117	22930
845.253	22797
845.389	22767
845.525	22816
845.661	22733
845.798	22786
845.934	22691
846.07	22603
846.206	22660
846.342	22771
846.478	22702
846.614	22341
846.75	22299
846.886	22424
847.022	22447
847.158	22375
847.294	22394
847.429	22356
847.565	22295
847.701	22626
847.837	22158
847.972	22131
848.108	22093
848.244	22162
848.379	21972
848.515	21934
848.65	21949
848.786	22017
848.921	21888
849.057	22109
849.192	22120
849.328	22036
849.463	21998
849.598	21793
849.734	21770
849.869	21812
850.004	21797
850.14	21701
850.275	21778
850.41	21561
850.545	21663
850.68	21633
850.815	21778
850.95	21622
851.085	21850
851.22	21857
851.355	21667
851.49	21747
851.625	21709
851.76	21747
851.895	21660
852.03	21599
852.165	21660
852.299	21873
852.434	21884
852.569	21618
852.703	21873
852.838	21873
852.973	21781
853.107	21915
853.242	21534
853.376	21534
853.511	21492
853.645	21439
853.78	21580
853.914	21526
854.048	21580
854.183	21511
854.317	21595
854.451	21698
854.585	21561
854.72	21564
854.854	21549
854.988	21450
855.122	21443
855.256	21336
855.39	21561
855.524	21534
855.658	21686
855.792	21538
855.926	21637
856.06	21583
856.194	21633
856.327	21412
856.461	21397
856.595	21420
856.729	21523
856.862	21599
856.996	21557
857.13	21648
857.263	21606
857.397	21690
857.53	21580
857.664	21633
857.797	21614
857.931	21785
858.064	21534
858.197	21663
858.331	21587
858.464	21534
858.597	21519
858.731	21523
858.864	21606
858.997	21580
859.13	21504
859.263	21496
859.396	21614
859.529	21492
859.662	21526
859.795	21462
859.928	21412
860.061	21747
860.194	21667
860.327	21667
860.46	21557
860.592	21728
860.725	21606
860.858	21690
860.99	21538
861.123	21302
861.256	21401
861.388	21553
861.521	22200
861.653	21405
861.786	21268
861.918	21268
862.05	21473
862.183	21454
862.315	21462
862.447	21530
862.58	21507
862.712	21241
862.844	21233
862.976	21260
863.108	21416
863.24	21800
863.372	21275
863.504	21218
863.636	21131
863.768	21317
863.9	21264
864.032	21108
864.164	21176
864.296	21310
864.428	21310
864.559	21298
864.691	21291
864.823	21275
864.954	21256
865.086	21245
865.217	21245
865.349	21104
865.48	21085
865.612	21154
865.743	21264
865.875	21211
866.006	21089
866.137	21077
866.269	21283
866.4	21146
866.531	21009
866.662	21043
866.793	21119
866.924	21089
867.055	21055
867.186	21096
867.317	21032
867.448	20982
867.579	21089
867.71	21058
867.841	20979
867.972	21100
868.103	21081
868.233	21017
868.364	21047
868.495	21081
868.625	21321
868.756	21412
868.886	21325
869.017	21241
869.147	21355
869.278	21393
869.408	21363
869.539	21310
869.669	21359
869.799	21344
869.929	21545
870.06	21405
870.19	21648
870.32	21618
870.45	21694
870.58	21701
870.71	21751
870.84	21838
870.97	21762
871.1	21694
871.23	21876
871.36	21903
871.489	21629
871.619	21876
871.749	21873
871.879	22029
872.008	22093
872.138	21945
872.267	21926
872.397	21842
872.526	21804
872.656	21724
872.785	21694
872.915	21983
873.044	22002
873.173	21998
873.303	22070
873.432	22097
873.561	21975
873.69	21808
873.819	21800
873.948	22044
874.077	21987
874.206	21956
874.335	21949
874.464	22002
874.593	22226
874.722	22131
874.851	22215
874.979	22234
875.108	22249
875.237	22158
875.365	22006
875.494	22181
875.623	22200
875.751	22261
875.88	22272
876.008	22318
876.136	22413
876.265	22599
876.393	22668
876.521	22618
876.65	22550
876.778	22702
876.906	22409
877.034	22561
877.162	22542
877.29	22447
877.418	22508
877.546	22535
877.674	22424
877.802	22497
877.93	22500
878.058	22535
878.185	22394
878.313	22493
878.441	22500
878.568	22363
878.696	22432
878.824	22500
878.951	22653
879.079	22687
879.206	22816
879.333	22630
879.461	22569
879.588	22702
879.715	22691
879.842	22885
879.97	22668
880.097	22284
880.224	22169
880.351	22386
880.478	22367
880.605	22314
880.732	22253
880.859	22577
880.986	22314
881.112	22379
881.239	22188
881.366	22059
881.493	22112
881.619	21991
881.746	21869
881.872	21918
881.999	21903
882.125	21819
882.252	21884
882.378	21850
882.505	21934
882.631	21781
882.757	21580
882.883	21713
883.01	21675
883.136	21568
883.262	21545
883.388	21488
883.514	21542
883.64	21622
883.766	21466
883.892	21401
884.018	21389
884.143	21507
884.269	21583
884.395	21230
884.52	21199
884.646	21214
884.772	21043
884.897	21123
885.023	21188
885.148	21332
885.274	21416
885.399	21359
885.524	21302
885.65	21313
885.775	21313
885.9	21169
886.025	21283
886.15	21363
886.275	21157
886.4	21096
886.525	21188
886.65	21032
886.775	21222
886.9	21268
887.025	21374
887.149	21112
887.274	21150
887.399	21036
887.523	20906
887.648	20872
887.773	20967
887.897	21108
888.021	20891
888.146	20960
888.27	21157
888.395	20986
888.519	21074
888.643	20956
888.767	21077
888.891	20838
889.015	20819
889.139	20891
889.263	20701
889.387	20883
889.511	21077
889.635	20918
889.759	20769
889.883	20705
890.006	20872
890.13	20792
890.254	20735
890.377	20701
890.501	20560
890.624	20438
890.748	20579
890.871	20602
890.995	20301
891.118	20301
891.241	20587
891.364	20336
891.488	20454
891.611	20415
891.734	20355
891.857	20499
891.98	20275
892.103	20286
892.226	20465
892.349	20377
892.471	20103
892.594	20301
892.717	20271
892.839	20309
892.962	20355
893.085	20309
893.207	20301
893.33	20145
893.452	20119
893.575	20183
893.697	20229
893.819	20415
893.941	20454
894.064	20434
894.186	20161
894.308	20278
894.43	20278
894.552	20396
894.674	20393
894.796	20069
894.918	20374
895.04	20164
895.161	20305
895.283	20278
895.405	20332
895.526	20347
895.648	20191
895.769	20271
895.891	20210
896.012	20374
896.134	20358
896.255	20271
896.376	20256
896.498	20278
896.619	20294
896.74	20389
896.861	20343
896.982	20514
897.103	20663
897.224	20609
897.345	20552
897.466	20465
897.587	20503
897.708	20579
897.828	20552
897.949	20564
898.07	20343
898.19	20343
898.311	20427
898.431	20336
898.552	20579
898.672	20556
898.792	20590
898.913	20488
899.033	20339
899.153	20286
899.273	20259
899.393	20229
899.513	20294
899.633	20199
899.753	20267
899.873	20214
899.993	20267
900.113	20180
900.232	20157
900.352	20168
900.472	20084
900.591	19982
900.711	20046
900.83	19959
900.95	20088
901.069	20073
901.189	19811
901.308	19708
901.427	19689
901.546	19605
901.665	19624
901.784	19563
901.904	19396
902.023	19457
902.141	19148
902.26	19061
902.379	19126
902.498	19187
902.617	19213
902.735	19107
902.854	19091
902.973	19091
903.091	18863
903.21	18745
903.328	18901
903.446	18631
903.565	18555
903.683	18623
903.801	18486
903.919	18407
904.038	18475
904.156	18369
904.274	18486
904.392	18273
904.51	18308
904.627	18384
904.745	18448
904.863	18388
904.981	18235
905.098	18026
905.216	18026
905.334	18034
905.451	18015
905.569	18053
905.686	18083
905.803	18102
905.921	17786
906.038	17923
906.155	17904
906.272	17756
906.389	17783
906.506	17649
906.623	17611
906.74	17581
906.857	17429
906.974	17547
907.091	17573
907.208	17672
907.324	17532
907.441	17490
907.557	17395
907.674	17368
907.79	17250
907.907	17284
908.023	17337
908.139	17334
908.256	17239
908.372	17185
908.488	17056
908.604	17056
908.72	16968
908.836	16976
908.952	16957
909.068	17064
909.184	17216
909.3	16957
909.415	17121
909.531	16965
909.647	16744
909.762	16824
909.878	16694
909.993	16748
910.108	16607
910.224	16645
910.339	16672
910.454	16580
910.57	16466
910.685	16493
910.8	16763
910.915	16679
911.03	16558
911.145	16352
911.259	16253
911.374	16360
911.489	16207
911.604	16192
911.718	16051
911.833	16082
911.947	15918
912.062	15907
912.176	15994
912.291	15979
912.405	16128
912.519	16090
912.633	16135
912.748	16154
912.862	15991
912.976	15838
913.09	15709
913.204	15785
913.318	15812
913.431	16010
913.545	15972
913.659	16013
913.772	15907
913.886	15671
914	15667
914.113	15656
914.226	15797
914.34	15663
914.453	15606
914.566	15591
914.68	15610
914.793	15538
914.906	15428
915.019	15340
915.132	15275
915.245	15321
915.358	15378
915.47	15298
915.583	15230
915.696	15268
915.809	15367
915.921	15405
916.034	15249
916.146	15097
916.259	15230
916.371	15218
916.483	15131
916.595	15104
916.708	15127
916.82	15066
916.932	15017
917.044	15032
917.156	15043
917.268	14929
917.38	14910
917.491	14880
917.603	14986
917.715	15013
917.826	14971
917.938	14823
918.049	14743
918.161	14887
918.272	14979
918.384	14975
918.495	14823
918.606	14697
918.717	14731
918.828	14640
918.939	14648
919.05	14541
919.161	14594
919.272	14488
919.383	14530
919.494	14655
919.604	14880
919.715	14625
919.826	14541
919.936	14610
920.047	14735
920.157	14674
920.267	14838
920.378	14651
920.488	14587
920.598	14769
920.708	14887
920.818	14804
920.928	14689
921.038	14864
921.148	14918
921.258	14629
921.368	14495
921.477	14377
921.587	14355
921.697	14210
921.806	14473
921.916	14191
922.025	14031
922.134	14016
922.244	13959
922.353	14180
922.462	13890
922.571	13849
922.68	13757
922.789	13575
922.898	13700
923.007	13651
923.116	13746
923.224	13578
923.333	13658
923.442	13624
923.55	13438
923.659	13464
923.767	13510
923.876	13403
923.984	13495
924.092	13316
924.201	13331
924.309	13377
924.417	13441
924.525	13316
924.633	13400
924.741	14062
924.849	13149
924.956	13293
925.064	13221
925.172	13012
925.279	13152
925.387	13072
925.494	13072
925.602	13194
925.709	13160
925.816	13027
925.924	12966
926.031	13031
926.138	13008
926.245	13129
926.352	12882
926.459	13053
926.566	12993
926.673	12954
926.779	12817
926.886	12856
926.993	12719
927.099	12673
927.206	12585
927.312	12578
927.419	12631
927.525	12578
927.631	12559
927.737	12513
927.843	12452
927.95	12357
928.056	12399
928.162	12422
928.267	12498
928.373	13050
928.479	12620
928.585	12338
928.69	12361
928.796	12372
928.901	12353
929.007	12232
929.112	12327
929.218	12228
929.323	12232
929.428	12133
929.533	12220
929.638	12175
929.743	12121
929.848	12159
929.953	12148
930.058	12064
930.163	11904
930.267	11828
930.372	11973
930.477	11798
930.581	12045
930.685	11920
930.79	11752
930.894	11771
930.998	11748
931.103	11870
931.207	11436
931.311	11410
931.415	11318
931.519	11079
931.623	11162
