Data from test_V78500241_1271.txt Node
Date: Fri Mar 25 15:50:36 CST 2022
User: usil
Spectrometer: V785-0024
Trigger mode: 0
Integration Time (sec): 4.000000E-1
Scans to average: 1
Nonlinearity correction enabled: false
Boxcar width: 0
Storing dark spectrum: false
XAxis mode: Wavelengths
Number of Pixels in Spectrum: 1024
>>>>>Begin Spectral Data<<<<<
801.071	28991
801.214	28911
801.356	28702
801.499	28584
801.641	28607
801.783	28573
801.926	28645
802.068	28481
802.211	28508
802.353	28348
802.496	28147
802.638	28181
802.78	28154
802.923	28226
803.065	28112
803.208	28192
803.35	28128
803.492	28360
803.635	28478
803.777	28219
803.919	28478
804.061	28664
804.204	28550
804.346	28485
804.488	28253
804.63	28443
804.773	28394
804.915	28512
805.057	28615
805.199	28523
805.341	28542
805.483	28687
805.626	28656
805.768	28485
805.91	28683
806.052	28668
806.194	28630
806.336	28797
806.478	28698
806.62	28660
806.762	28767
806.904	28839
807.046	29170
807.188	29010
807.33	29181
807.472	29227
807.614	28885
807.756	28991
807.898	28858
808.04	28991
808.182	28812
808.324	29109
808.465	29064
808.607	29208
808.749	29326
808.891	29375
809.033	29528
809.174	29395
809.316	29421
809.458	29284
809.6	29307
809.741	29581
809.883	29509
810.025	29691
810.166	29687
810.308	29611
810.45	29558
810.591	29592
810.733	29288
810.875	29269
811.016	29296
811.158	29200
811.299	29589
811.441	29562
811.582	29425
811.724	29360
811.865	29474
812.007	29459
812.148	29315
812.29	29433
812.431	29661
812.573	29809
812.714	29718
812.855	29927
812.997	30015
813.138	30174
813.279	30030
813.421	29916
813.562	29722
813.703	29741
813.845	29543
813.986	29147
814.127	29193
814.268	29071
814.41	29155
814.551	28995
814.692	29117
814.833	28980
814.974	29052
815.115	29041
815.256	28843
815.397	29029
815.539	29166
815.68	28900
815.821	28740
815.962	28953
816.103	28797
816.244	28710
816.385	28637
816.526	28577
816.666	28569
816.807	28401
816.948	28436
817.089	28573
817.23	28527
817.371	28421
817.512	28462
817.653	28310
817.793	28360
817.934	28363
818.075	28512
818.216	28478
818.356	28341
818.497	28363
818.638	28109
818.778	28112
818.919	28105
819.06	28310
819.2	28249
819.341	28329
819.481	28436
819.622	28641
819.762	28691
819.903	28622
820.043	28767
820.184	28516
820.324	28508
820.465	28557
820.605	28588
820.746	28554
820.886	28394
821.026	28428
821.167	28462
821.307	28550
821.447	28455
821.588	28291
821.728	28162
821.868	28154
822.008	27941
822.149	27869
822.289	27812
822.429	27587
822.569	27622
822.709	27622
822.849	27496
822.99	27496
823.13	27424
823.27	27462
823.41	27146
823.55	27146
823.69	27188
823.83	27154
823.97	27188
824.11	27009
824.25	27055
824.389	27047
824.529	27173
824.669	27020
824.809	27199
824.949	27211
825.089	27222
825.228	27180
825.368	27028
825.508	26842
825.648	26971
825.787	26944
825.927	27093
826.067	26891
826.206	26933
826.346	27020
826.485	26967
826.625	27093
826.765	26998
826.904	27165
827.044	26689
827.183	26777
827.323	26640
827.462	26796
827.601	26568
827.741	26564
827.88	26727
828.02	26541
828.159	26598
828.298	26899
828.437	26743
828.577	26629
828.716	26678
828.855	26499
828.994	26385
829.134	26324
829.273	26450
829.412	26343
829.551	26286
829.69	26317
829.829	26419
829.968	26362
830.107	26438
830.246	26290
830.385	26294
830.524	26176
830.663	26153
830.802	26164
830.941	26081
831.08	26035
831.219	25974
831.357	25944
831.496	26256
831.635	26092
831.774	25894
831.913	25693
832.051	25746
832.19	25826
832.329	25719
832.467	25632
832.606	25689
832.744	25540
832.883	25609
833.022	25586
833.16	25651
833.299	25677
833.437	25784
833.576	25548
833.714	25776
833.852	25814
833.991	25791
834.129	25830
834.267	25772
834.406	25750
834.544	25791
834.682	25814
834.821	25765
834.959	25772
835.097	25582
835.235	25776
835.373	25635
835.511	25689
835.65	25556
835.788	25662
835.926	25441
836.064	25312
836.202	25403
836.34	25445
836.478	25544
836.615	25605
836.753	25479
836.891	25563
837.029	25426
837.167	25479
837.305	25308
837.443	25289
837.58	25244
837.718	25297
837.856	25483
837.993	25274
838.131	25407
838.269	25236
838.406	25164
838.544	25088
838.681	24989
838.819	25019
838.956	24821
839.094	24814
839.231	24954
839.369	24924
839.506	25209
839.643	25027
839.781	24757
839.918	24795
840.055	24810
840.193	24852
840.33	24635
840.467	24703
840.604	24768
840.742	24947
840.879	24597
841.016	24563
841.153	24574
841.29	24715
841.427	24707
841.564	24688
841.701	24658
841.838	24574
841.975	24555
842.112	24684
842.249	24494
842.385	24460
842.522	24650
842.659	24608
842.796	24483
842.933	24445
843.069	24410
843.206	24372
843.343	24441
843.479	24483
843.616	24437
843.752	24319
843.889	24254
844.025	24346
844.162	24190
844.298	24285
844.435	24133
844.571	24266
844.708	24270
844.844	24350
844.98	24296
845.117	24228
845.253	24213
845.389	24064
845.525	24049
845.661	24083
845.798	23946
845.934	23958
846.07	24026
846.206	23851
846.342	23980
846.478	23954
846.614	23760
846.75	23604
846.886	23710
847.022	23798
847.158	23680
847.294	23653
847.429	23729
847.565	23558
847.701	23931
847.837	23509
847.972	23429
848.108	23459
848.244	23360
848.379	23318
848.515	23311
848.65	23353
848.786	23231
848.921	23246
849.057	23292
849.192	23303
849.328	23254
849.463	23227
849.598	23239
849.734	23113
849.869	23064
850.004	22961
850.14	23064
850.275	22987
850.41	22900
850.545	22957
850.68	22949
850.815	23006
850.95	22995
851.085	23113
851.22	23121
851.355	23056
851.49	23029
851.625	23037
851.76	22911
851.895	22976
852.03	22953
852.165	23037
852.299	23105
852.434	23200
852.569	23033
852.703	22987
852.838	23113
852.973	23318
853.107	23102
853.242	22889
853.376	22850
853.511	22721
853.645	22790
853.78	22896
853.914	22717
854.048	22790
854.183	22740
854.317	22710
854.451	23086
854.585	22839
854.72	22790
854.854	22862
854.988	22778
855.122	22778
855.256	22733
855.39	22831
855.524	22778
855.658	22831
855.792	22801
855.926	22881
856.06	22744
856.194	22869
856.327	22755
856.461	22831
856.595	22645
856.729	22881
856.862	22877
856.996	22824
857.13	22854
857.263	22862
857.397	22919
857.53	22679
857.664	22862
857.797	22911
857.931	22953
858.064	22759
858.197	22850
858.331	22771
858.464	22740
858.597	22782
858.731	22892
858.864	22725
858.997	22828
859.13	22843
859.263	22717
859.396	22900
859.529	22831
859.662	22733
859.795	22664
859.928	22858
860.061	22961
860.194	23064
860.327	22839
860.46	22892
860.592	23075
860.725	23064
860.858	22987
860.99	22820
861.123	22759
861.256	22793
861.388	22816
861.521	23440
861.653	22740
861.786	22580
861.918	22630
862.05	22744
862.183	22752
862.315	22793
862.447	22809
862.58	22733
862.712	22497
862.844	22504
862.976	22668
863.108	22611
863.24	22892
863.372	22481
863.504	22481
863.636	22428
863.768	22504
863.9	22535
864.032	22542
864.164	22451
864.296	22615
864.428	22683
864.559	22634
864.691	22573
864.823	22565
864.954	22474
865.086	22500
865.217	22356
865.349	22341
865.48	22375
865.612	22428
865.743	22443
865.875	22440
866.006	22485
866.137	22531
866.269	22367
866.4	22409
866.531	22451
866.662	22299
866.793	22192
866.924	22356
867.055	22253
867.186	22390
867.317	22295
867.448	22166
867.579	22295
867.71	22322
867.841	22162
867.972	22234
868.103	22276
868.233	22344
868.364	22280
868.495	22535
868.625	22459
868.756	22717
868.886	22527
869.017	22626
869.147	22580
869.278	22713
869.408	22550
869.539	22580
869.669	22565
869.799	22546
869.929	22584
870.06	22630
870.19	22892
870.32	22911
870.45	22866
870.58	22942
870.71	23094
870.84	22946
870.97	22930
871.1	22904
871.23	23113
871.36	23193
871.489	23071
871.619	23174
871.749	23216
871.879	23121
872.008	23212
872.138	23231
872.267	23208
872.397	23033
872.526	23075
872.656	22938
872.785	22862
872.915	23052
873.044	23330
873.173	23174
873.303	23155
873.432	23140
873.561	23288
873.69	23273
873.819	23223
873.948	23216
874.077	23193
874.206	23056
874.335	23102
874.464	23296
874.593	23467
874.722	23379
874.851	23356
874.979	23425
875.108	23379
875.237	23261
875.365	23421
875.494	23345
875.623	23425
875.751	23299
875.88	23414
876.008	23497
876.136	23585
876.265	23691
876.393	23893
876.521	23878
876.65	23805
876.778	23813
876.906	23722
877.034	23623
877.162	23817
877.29	23783
877.418	23741
877.546	23589
877.674	23726
877.802	23745
877.93	23691
878.058	23634
878.185	23539
878.313	23680
878.441	23798
878.568	23547
878.696	23585
878.824	23699
878.951	23699
879.079	23992
879.206	23885
879.333	23855
879.461	23627
879.588	23798
879.715	23840
879.842	24072
879.97	23775
880.097	23566
880.224	23505
880.351	23596
880.478	23577
880.605	23459
880.732	23452
880.859	23882
880.986	23543
881.112	23497
881.239	23417
881.366	23242
881.493	23178
881.619	23056
881.746	23143
881.872	23136
881.999	23067
882.125	22942
882.252	23143
882.378	22904
882.505	23197
882.631	22923
882.757	22816
882.883	22885
883.01	22824
883.136	22767
883.262	22584
883.388	22706
883.514	22733
883.64	22675
883.766	22660
883.892	22424
884.018	22607
884.143	22763
884.269	22763
884.395	22573
884.52	22424
884.646	22516
884.772	22242
884.897	22291
885.023	22382
885.148	22577
885.274	22402
885.399	22421
885.524	22363
885.65	22428
885.775	22348
885.9	22310
886.025	22508
886.15	22382
886.275	22246
886.4	22329
886.525	22299
886.65	22413
886.775	22352
886.9	22436
887.025	22611
887.149	22447
887.274	22158
887.399	22181
887.523	22185
887.648	22097
887.773	21979
887.897	22207
888.021	22223
888.146	22116
888.27	22143
888.395	22226
888.519	22143
888.643	22128
888.767	22188
888.891	22055
889.015	21956
889.139	21972
889.263	21979
889.387	22036
889.511	22070
889.635	22082
889.759	22025
889.883	21968
890.006	21865
890.13	22013
890.254	21854
890.377	21884
890.501	21637
890.624	21561
890.748	21717
890.871	21614
890.995	21336
891.118	21488
891.241	21473
891.364	21572
891.488	21622
891.611	21557
891.734	21591
891.857	21473
891.98	21401
892.103	21572
892.226	21386
892.349	21431
892.471	21249
892.594	21450
892.717	21568
892.839	21412
892.962	21416
893.085	21530
893.207	21298
893.33	21199
893.452	21351
893.575	21370
893.697	21367
893.819	21443
893.941	21488
894.064	21580
894.186	21252
894.308	21294
894.43	21485
894.552	21576
894.674	21336
894.796	21188
894.918	21230
895.04	21245
895.161	21435
895.283	21340
895.405	21325
895.526	21302
895.648	21355
895.769	21367
895.891	21447
896.012	21485
896.134	21355
896.255	21325
896.376	21302
896.498	21313
896.619	21291
896.74	21340
896.861	21382
896.982	21720
897.103	21831
897.224	21523
897.345	21534
897.466	21530
897.587	21530
897.708	21800
897.828	21641
897.949	21485
898.07	21447
898.19	21477
898.311	21534
898.431	21450
898.552	21428
898.672	21629
898.792	21583
898.913	21690
899.033	21458
899.153	21302
899.273	21233
899.393	21310
899.513	21294
899.633	21291
899.753	21298
899.873	21188
899.993	21188
900.113	21207
900.232	21096
900.352	21154
900.472	21077
900.591	20982
900.711	21024
900.83	20979
900.95	21135
901.069	21066
901.189	20830
901.308	20689
901.427	20621
901.546	20640
901.665	20598
901.784	20575
901.904	20461
902.023	20370
902.141	20271
902.26	20122
902.379	20157
902.498	20005
902.617	20164
902.735	20062
902.854	20115
902.973	19997
903.091	19693
903.21	19670
903.328	19772
903.446	19624
903.565	19552
903.683	19563
903.801	19339
903.919	19316
904.038	19445
904.156	19301
904.274	19251
904.392	19282
904.51	19217
904.627	19346
904.745	19384
904.863	19354
904.981	19046
905.098	18894
905.216	18989
905.334	19038
905.451	18920
905.569	18939
905.686	18935
905.803	18875
905.921	18715
906.038	18821
906.155	18821
906.272	18684
906.389	18601
906.506	18426
906.623	18525
906.74	18475
906.857	18319
906.974	18410
907.091	18414
907.208	18593
907.324	18479
907.441	18426
907.557	18228
907.674	18152
907.79	18072
907.907	18213
908.023	18171
908.139	18148
908.256	18148
908.372	18091
908.488	17984
908.604	17969
908.72	17874
908.836	17866
908.952	17866
909.068	17916
909.184	18140
909.3	17817
909.415	17977
909.531	17870
909.647	17779
909.762	17600
909.878	17440
909.993	17535
910.108	17646
910.224	17452
910.339	17665
910.454	17360
910.57	17303
910.685	17337
910.8	17627
910.915	17589
911.03	17391
911.145	17280
911.259	17132
911.374	17197
911.489	17079
911.604	17056
911.718	16938
911.833	16953
911.947	16786
912.062	16717
912.176	17003
912.291	16976
912.405	16953
912.519	17006
912.633	17109
912.748	16900
912.862	16885
912.976	16630
913.09	16656
913.204	16592
913.318	16611
913.431	16759
913.545	16793
913.659	16675
913.772	16588
913.886	16459
914	16512
914.113	16592
914.226	16542
914.34	16440
914.453	16409
914.566	16394
914.68	16314
914.793	16367
914.906	16147
915.019	15953
915.132	16010
915.245	15964
915.358	16082
915.47	16051
915.583	16048
915.696	16131
915.809	16139
915.921	16158
916.034	15964
916.146	15968
916.259	16002
916.371	16074
916.483	15968
916.595	16021
916.708	15895
916.82	15888
916.932	15926
917.044	15816
917.156	15808
917.268	15713
917.38	15816
917.491	15656
917.603	15717
917.715	15800
917.826	15781
917.938	15736
918.049	15458
918.161	15648
918.272	15682
918.384	15743
918.495	15614
918.606	15424
918.717	15336
918.828	15405
918.939	15462
919.05	15367
919.161	15294
919.272	15188
919.383	15287
919.494	15515
919.604	15538
919.715	15389
919.826	15279
919.936	15351
920.047	15363
920.157	15526
920.267	15435
920.378	15466
920.488	15435
920.598	15572
920.708	15732
920.818	15530
920.928	15568
921.038	15671
921.148	15603
921.258	15294
921.368	15214
921.477	15100
921.587	15127
921.697	14914
921.806	15070
921.916	14994
922.025	14811
922.134	14762
922.244	14678
922.353	14826
922.462	14651
922.571	14575
922.68	14419
922.789	14374
922.898	14332
923.007	14248
923.116	14309
923.224	14309
923.333	14404
923.442	14107
923.55	14183
923.659	14240
923.767	14214
923.876	14100
923.984	14134
924.092	14050
924.201	14119
924.309	14062
924.417	13921
924.525	13993
924.633	13974
924.741	14796
924.849	13814
924.956	13894
925.064	13727
925.172	13696
925.279	13708
925.387	13784
925.494	13685
925.602	13913
925.709	13746
925.816	13620
925.924	13632
926.031	13750
926.138	13639
926.245	13670
926.352	13605
926.459	13746
926.566	13719
926.673	13529
926.779	13487
926.886	13464
926.993	13358
927.099	13316
927.206	13247
927.312	13228
927.419	13217
927.525	13225
927.631	13316
927.737	13221
927.843	13107
927.95	13004
928.056	13061
928.162	13114
928.267	13080
928.373	13723
928.479	13183
928.585	12878
928.69	12947
928.796	13133
928.901	12894
929.007	12722
929.112	12920
929.218	12875
929.323	12719
929.428	12844
929.533	12833
929.638	12738
929.743	12749
929.848	12779
929.953	12753
930.058	12601
930.163	12479
930.267	12540
930.372	12547
930.477	12357
930.581	12631
930.685	12612
930.79	12304
930.894	12296
930.998	12270
931.103	12410
931.207	11980
931.311	11965
931.415	11752
931.519	11661
931.623	11680
