Data from test_V78500241_3585.txt Node
Date: Fri Mar 25 16:06:38 CST 2022
User: usil
Spectrometer: V785-0024
Trigger mode: 0
Integration Time (sec): 4.000000E-1
Scans to average: 1
Nonlinearity correction enabled: false
Boxcar width: 0
Storing dark spectrum: false
XAxis mode: Wavelengths
Number of Pixels in Spectrum: 1024
>>>>>Begin Spectral Data<<<<<
801.071	28694
801.214	28641
801.356	28447
801.499	28466
801.641	28390
801.783	28341
801.926	28413
802.068	28325
802.211	28246
802.353	28215
802.496	28215
802.638	28116
802.78	28029
802.923	27895
803.065	27964
803.208	28025
803.35	28006
803.492	28078
803.635	28249
803.777	28055
803.919	28401
804.061	28459
804.204	28280
804.346	28379
804.488	28226
804.63	28337
804.773	28192
804.915	28413
805.057	28405
805.199	28295
805.341	28341
805.483	28371
805.626	28413
805.768	28310
805.91	28512
806.052	28390
806.194	28303
806.336	28584
806.478	28519
806.62	28478
806.762	28634
806.904	28729
807.046	28999
807.188	28866
807.33	28927
807.472	29022
807.614	28847
807.756	28942
807.898	28725
808.04	28607
808.182	28569
808.324	28786
808.465	28710
808.607	29037
808.749	29117
808.891	29254
809.033	29372
809.174	29037
809.316	29235
809.458	29113
809.6	28999
809.741	29318
809.883	29364
810.025	29474
810.166	29448
810.308	29547
810.45	29326
810.591	29448
810.733	29136
810.875	29086
811.016	29056
811.158	29083
811.299	29239
811.441	29288
811.582	29216
811.724	29315
811.865	29231
812.007	29208
812.148	28904
812.29	29277
812.431	29406
812.573	29505
812.714	29649
812.855	29611
812.997	29897
813.138	29939
813.279	29809
813.421	29718
813.562	29642
813.703	29490
813.845	29444
813.986	29117
814.127	28797
814.268	28877
814.41	28831
814.551	28965
814.692	28972
814.833	28854
814.974	28896
815.115	28911
815.256	28702
815.397	28881
815.539	28744
815.68	28523
815.821	28679
815.962	28675
816.103	28706
816.244	28656
816.385	28398
816.526	28546
816.666	28223
816.807	28162
816.948	28291
817.089	28295
817.23	28154
817.371	28154
817.512	28067
817.653	28147
817.793	28067
817.934	28086
818.075	28173
818.216	28158
818.356	28112
818.497	28169
818.638	28025
818.778	27865
818.919	27911
819.06	27994
819.2	28112
819.341	28116
819.481	28040
819.622	28344
819.762	28557
819.903	28538
820.043	28306
820.184	28299
820.324	28382
820.465	28398
820.605	28382
820.746	28200
820.886	28067
821.026	28379
821.167	28352
821.307	28447
821.447	28215
821.588	28093
821.728	27903
821.868	27736
822.008	27682
822.149	27679
822.289	27641
822.429	27466
822.569	27351
822.709	27264
822.849	27176
822.99	27329
823.13	27119
823.27	27116
823.41	27028
823.55	26921
823.69	27085
823.83	26982
823.97	26895
824.11	26804
824.25	26811
824.389	26705
824.529	26975
824.669	26754
824.809	26979
824.949	26929
825.089	26963
825.228	26849
825.368	26598
825.508	26598
825.648	26731
825.787	26636
825.927	26743
826.067	26731
826.206	26746
826.346	26697
826.485	26743
826.625	26739
826.765	26720
826.904	26530
827.044	26495
827.183	26560
827.323	26381
827.462	26419
827.601	26324
827.741	26328
827.88	26370
828.02	26370
828.159	26492
828.298	26427
828.437	26492
828.577	26465
828.716	26530
828.855	26252
828.994	26225
829.134	26164
829.273	26298
829.412	26077
829.551	26069
829.69	26062
829.829	26218
829.968	26134
830.107	26206
830.246	26202
830.385	26027
830.524	26005
830.663	25875
830.802	25776
830.941	25788
831.08	25586
831.219	25925
831.357	25826
831.496	25951
831.635	25757
831.774	25658
831.913	25396
832.051	25616
832.19	25533
832.329	25571
832.467	25510
832.606	25308
832.744	25415
832.883	25354
833.022	25381
833.16	25483
833.299	25487
833.437	25396
833.576	25365
833.714	25430
833.852	25609
833.991	25487
834.129	25559
834.267	25563
834.406	25483
834.544	25479
834.682	25594
834.821	25563
834.959	25761
835.097	25457
835.235	25483
835.373	25495
835.511	25476
835.65	25384
835.788	25327
835.926	25076
836.064	25046
836.202	25236
836.34	25335
836.478	25335
836.615	25335
836.753	25384
836.891	25453
837.029	25316
837.167	25289
837.305	25251
837.443	25187
837.58	25152
837.718	25202
837.856	25168
837.993	25198
838.131	25088
838.269	25076
838.406	25129
838.544	25019
838.681	24738
838.819	24738
838.956	24635
839.094	24661
839.231	24593
839.369	24677
839.506	24992
839.643	24894
839.781	24521
839.918	24376
840.055	24585
840.193	24475
840.33	24544
840.467	24483
840.604	24593
840.742	24779
840.879	24410
841.016	24445
841.153	24334
841.29	24559
841.427	24490
841.564	24479
841.701	24441
841.838	24437
841.975	24399
842.112	24391
842.249	24410
842.385	24292
842.522	24521
842.659	24342
842.796	24262
842.933	24213
843.069	24254
843.206	24327
843.343	24277
843.479	24220
843.616	24174
843.752	23916
843.889	24038
844.025	24209
844.162	24091
844.298	24216
844.435	24140
844.571	24087
844.708	24110
844.844	24311
844.98	24186
845.117	24148
845.253	24003
845.389	23836
845.525	23836
845.661	23904
845.798	23718
845.934	23904
846.07	23764
846.206	23764
846.342	24053
846.478	23767
846.614	23551
846.75	23425
846.886	23376
847.022	23638
847.158	23554
847.294	23562
847.429	23509
847.565	23455
847.701	23805
847.837	23284
847.972	23132
848.108	23261
848.244	23356
848.379	23071
848.515	23071
848.65	23025
848.786	23025
848.921	23018
849.057	23185
849.192	23094
849.328	23083
849.463	23143
849.598	23029
849.734	22930
849.869	22938
850.004	22987
850.14	22919
850.275	22839
850.41	22911
850.545	22828
850.68	22904
850.815	22866
850.95	22919
851.085	22877
851.22	22892
851.355	22759
851.49	22885
851.625	22721
851.76	22801
851.895	22809
852.03	22820
852.165	22850
852.299	22847
852.434	22904
852.569	22934
852.703	22820
852.838	22915
852.973	22889
853.107	22923
853.242	22866
853.376	22790
853.511	22577
853.645	22679
853.78	22801
853.914	22531
854.048	22641
854.183	22615
854.317	22626
854.451	22763
854.585	22717
854.72	22626
854.854	22793
854.988	22645
855.122	22554
855.256	22527
855.39	22736
855.524	22736
855.658	22706
855.792	22672
855.926	22725
856.06	22698
856.194	22763
856.327	22694
856.461	22603
856.595	22618
856.729	22721
856.862	22729
856.996	22729
857.13	22664
857.263	22702
857.397	22767
857.53	22584
857.664	22596
857.797	22649
857.931	22725
858.064	22778
858.197	22725
858.331	22630
858.464	22645
858.597	22599
858.731	22687
858.864	22687
858.997	22645
859.13	22615
859.263	22698
859.396	22828
859.529	22599
859.662	22580
859.795	22527
859.928	22592
860.061	22824
860.194	22835
860.327	22729
860.46	22801
860.592	22733
860.725	22885
860.858	22820
860.99	22706
861.123	22656
861.256	22634
861.388	22615
861.521	23220
861.653	22405
861.786	22462
861.918	22535
862.05	22481
862.183	22649
862.315	22687
862.447	22733
862.58	22535
862.712	22489
862.844	22405
862.976	22523
863.108	22428
863.24	22778
863.372	22344
863.504	22375
863.636	22432
863.768	22310
863.9	22238
864.032	22333
864.164	22284
864.296	22489
864.428	22379
864.559	22409
864.691	22508
864.823	22325
864.954	22348
865.086	22291
865.217	22215
865.349	22150
865.48	22253
865.612	22257
865.743	22352
865.875	22253
866.006	22131
866.137	22299
866.269	22291
866.4	22150
866.531	22173
866.662	22116
866.793	22109
866.924	22162
867.055	22090
867.186	22257
867.317	22135
867.448	22173
867.579	22204
867.71	22063
867.841	22105
867.972	22177
868.103	22120
868.233	22120
868.364	22131
868.495	22322
868.625	22459
868.756	22554
868.886	22386
869.017	22379
869.147	22443
869.278	22478
869.408	22504
869.539	22276
869.669	22508
869.799	22588
869.929	22508
870.06	22508
870.19	22733
870.32	22736
870.45	22797
870.58	22949
870.71	22987
870.84	22835
870.97	22748
871.1	22873
871.23	22991
871.36	23166
871.489	22847
871.619	22850
871.749	22900
871.879	23048
872.008	23098
872.138	23090
872.267	22984
872.397	22972
872.526	22755
872.656	22763
872.785	22869
872.915	23048
873.044	23140
873.173	23018
873.303	23136
873.432	23178
873.561	23170
873.69	23052
873.819	23033
873.948	22984
874.077	23029
874.206	23044
874.335	23041
874.464	23155
874.593	23364
874.722	23147
874.851	23208
874.979	23269
875.108	23208
875.237	23242
875.365	23193
875.494	23277
875.623	23227
875.751	23265
875.88	23239
876.008	23315
876.136	23315
876.265	23627
876.393	23649
876.521	23657
876.65	23760
876.778	23646
876.906	23467
877.034	23493
877.162	23642
877.29	23551
877.418	23482
877.546	23531
877.674	23493
877.802	23627
877.93	23573
878.058	23543
878.185	23535
878.313	23642
878.441	23608
878.568	23307
878.696	23471
878.824	23505
878.951	23714
879.079	23786
879.206	23870
879.333	23798
879.461	23642
879.588	23718
879.715	23802
879.842	23817
879.97	23596
880.097	23471
880.224	23356
880.351	23376
880.478	23356
880.605	23330
880.732	23391
880.859	23577
880.986	23387
881.112	23493
881.239	23356
881.366	23208
881.493	23083
881.619	22984
881.746	22984
881.872	23006
881.999	22930
882.125	22919
882.252	23029
882.378	22816
882.505	22987
882.631	22675
882.757	22672
882.883	22607
883.01	22660
883.136	22546
883.262	22474
883.388	22394
883.514	22596
883.64	22615
883.766	22554
883.892	22379
884.018	22360
884.143	22455
884.269	22584
884.395	22390
884.52	22219
884.646	22261
884.772	22207
884.897	22200
885.023	22284
885.148	22409
885.274	22440
885.399	22466
885.524	22268
885.65	22169
885.775	22299
885.9	22219
886.025	22390
886.15	22318
886.275	22185
886.4	22150
886.525	22204
886.65	22261
886.775	22166
886.9	22440
887.025	22428
887.149	22257
887.274	22013
887.399	21968
887.523	22040
887.648	21857
887.773	21964
887.897	22082
888.021	22067
888.146	21907
888.27	22013
888.395	22154
888.519	22021
888.643	22048
888.767	22147
888.891	21892
889.015	21892
889.139	21892
889.263	21804
889.387	21972
889.511	21895
889.635	21884
889.759	21800
889.883	21705
890.006	21793
890.13	21926
890.254	21622
890.377	21720
890.501	21580
890.624	21583
890.748	21690
890.871	21424
890.995	21367
891.118	21275
891.241	21401
891.364	21317
891.488	21466
891.611	21397
891.734	21279
891.857	21302
891.98	21348
892.103	21412
892.226	21329
892.349	21218
892.471	20963
892.594	21245
892.717	21313
892.839	21332
892.962	21256
893.085	21249
893.207	21249
893.33	21096
893.452	21298
893.575	21310
893.697	21252
893.819	21272
893.941	21344
894.064	21298
894.186	21192
894.308	21203
894.43	21321
894.552	21488
894.674	21260
894.796	21108
894.918	21154
895.04	21188
895.161	21401
895.283	21302
895.405	21169
895.526	21260
895.648	21222
895.769	21154
895.891	21218
896.012	21321
896.134	21184
896.255	21203
896.376	21176
896.498	21211
896.619	21279
896.74	21226
896.861	21313
896.982	21420
897.103	21637
897.224	21526
897.345	21378
897.466	21405
897.587	21458
897.708	21625
897.828	21420
897.949	21332
898.07	21138
898.19	21370
898.311	21500
898.431	21348
898.552	21393
898.672	21458
898.792	21405
898.913	21496
899.033	21363
899.153	21047
899.273	21077
899.393	21116
899.513	21222
899.633	21211
899.753	21146
899.873	21116
899.993	21176
900.113	21195
900.232	21119
900.352	21017
900.472	20952
900.591	20872
900.711	20902
900.83	20796
900.95	20921
901.069	21028
901.189	20773
901.308	20549
901.427	20526
901.546	20339
901.665	20564
901.784	20366
901.904	20419
902.023	20218
902.141	20084
902.26	20027
902.379	20024
902.498	19951
902.617	19951
902.735	20043
902.854	19944
902.973	19814
903.091	19613
903.21	19772
903.328	19537
903.446	19582
903.565	19449
903.683	19540
903.801	19278
903.919	19415
904.038	19278
904.156	19118
904.274	19251
904.392	19129
904.51	19126
904.627	19080
904.745	19244
904.863	19259
904.981	18924
905.098	18806
905.216	18875
905.334	18856
905.451	18814
905.569	18814
905.686	18951
905.803	18844
905.921	18597
906.038	18745
906.155	18707
906.272	18441
906.389	18498
906.506	18433
906.623	18308
906.74	18407
906.857	18167
906.974	18270
907.091	18486
907.208	18464
907.324	18441
907.441	18247
907.557	18087
907.674	18072
907.79	18045
907.907	18136
908.023	18064
908.139	18247
908.256	18030
908.372	17851
908.488	17863
908.604	17794
908.72	17745
908.836	17813
908.952	17710
909.068	17859
909.184	17923
909.3	17779
909.415	17882
909.531	17771
909.647	17570
909.762	17455
909.878	17467
909.993	17429
910.108	17417
910.224	17402
910.339	17543
910.454	17391
910.57	17299
910.685	17254
910.8	17474
910.915	17463
911.03	17280
911.145	17060
911.259	17045
911.374	17094
911.489	17022
911.604	17022
911.718	16873
911.833	16847
911.947	16733
912.062	16577
912.176	16904
912.291	16862
912.405	16850
912.519	17006
912.633	16938
912.748	16755
912.862	16626
912.976	16615
913.09	16584
913.204	16519
913.318	16478
913.431	16668
913.545	16683
913.659	16706
913.772	16500
913.886	16580
914	16405
914.113	16478
914.226	16500
914.34	16470
914.453	16276
914.566	16394
914.68	16310
914.793	16265
914.906	16017
915.019	16006
915.132	15964
915.245	15934
915.358	16082
915.47	16048
915.583	15975
915.696	15983
915.809	16139
915.921	16120
916.034	15899
916.146	15991
916.259	15846
916.371	15918
916.483	15892
916.595	15781
916.708	15713
916.82	15854
916.932	15747
917.044	15728
917.156	15728
917.268	15557
917.38	15629
917.491	15599
917.603	15618
917.715	15633
917.826	15686
917.938	15549
918.049	15485
918.161	15614
918.272	15675
918.384	15728
918.495	15519
918.606	15351
918.717	15355
918.828	15363
918.939	15424
919.05	15264
919.161	15298
919.272	15127
919.383	15173
919.494	15329
919.604	15553
919.715	15397
919.826	15154
919.936	15165
920.047	15214
920.157	15302
920.267	15473
920.378	15313
920.488	15176
920.598	15424
920.708	15599
920.818	15420
920.928	15344
921.038	15561
921.148	15584
921.258	15173
921.368	15077
921.477	15058
921.587	14994
921.697	14708
921.806	14990
921.916	14864
922.025	14708
922.134	14629
922.244	14594
922.353	14720
922.462	14495
922.571	14415
922.68	14431
922.789	14267
922.898	14256
923.007	14180
923.116	14298
923.224	14317
923.333	14244
923.442	14069
923.55	14027
923.659	14081
923.767	14153
923.876	14046
923.984	14100
924.092	14008
924.201	14043
924.309	14043
924.417	14031
924.525	13940
924.633	13917
924.741	14796
924.849	13662
924.956	13837
925.064	13700
925.172	13578
925.279	13613
925.387	13655
925.494	13594
925.602	13761
925.709	13693
925.816	13548
925.924	13586
926.031	13643
926.138	13578
926.245	13582
926.352	13533
926.459	13655
926.566	13700
926.673	13491
926.779	13285
926.886	13434
926.993	13358
927.099	13289
927.206	13095
927.312	13175
927.419	13228
927.525	13156
927.631	13190
927.737	13149
927.843	13027
927.95	12897
928.056	12951
928.162	13023
928.267	13042
928.373	13662
928.479	13149
928.585	12810
928.69	12867
928.796	12924
928.901	12783
929.007	12760
929.112	12814
929.218	12814
929.323	12673
929.428	12722
929.533	12837
929.638	12627
929.743	12696
929.848	12658
929.953	12665
930.058	12433
930.163	12437
930.267	12410
930.372	12483
930.477	12327
930.581	12559
930.685	12395
930.79	12220
930.894	12239
930.998	12292
931.103	12365
931.207	12007
931.311	11882
931.415	11813
931.519	11688
931.623	11482
