Data from test_V78500241_1795.txt Node
Date: Fri Mar 25 15:54:14 CST 2022
User: usil
Spectrometer: V785-0024
Trigger mode: 0
Integration Time (sec): 4.000000E-1
Scans to average: 1
Nonlinearity correction enabled: false
Boxcar width: 0
Storing dark spectrum: false
XAxis mode: Wavelengths
Number of Pixels in Spectrum: 1024
>>>>>Begin Spectral Data<<<<<
801.071	28265
801.214	28401
801.356	28101
801.499	27987
801.641	28051
801.783	27926
801.926	27968
802.068	27960
802.211	27842
802.353	27835
802.496	27663
802.638	27781
802.78	27614
802.923	27591
803.065	27500
803.208	27606
803.35	27576
803.492	27606
803.635	27804
803.777	27724
803.919	27827
804.061	28063
804.204	27979
804.346	27739
804.488	27778
804.63	27831
804.773	27774
804.915	27705
805.057	28021
805.199	27934
805.341	28010
805.483	27972
805.626	27899
805.768	27816
805.91	27869
806.052	28097
806.194	27861
806.336	28090
806.478	28078
806.62	28051
806.762	28070
806.904	28242
807.046	28462
807.188	28341
807.33	28352
807.472	28451
807.614	28432
807.756	28417
807.898	28333
808.04	28188
808.182	28105
808.324	28367
808.465	28470
808.607	28615
808.749	28653
808.891	28748
809.033	28877
809.174	28706
809.316	28725
809.458	28710
809.6	28615
809.741	28835
809.883	28866
810.025	29086
810.166	28976
810.308	28934
810.45	28877
810.591	28847
810.733	28748
810.875	28694
811.016	28554
811.158	28580
811.299	28721
811.441	28729
811.582	28786
811.724	28736
811.865	28569
812.007	28733
812.148	28763
812.29	28748
812.431	28869
812.573	29048
812.714	29014
812.855	29159
812.997	29204
813.138	29315
813.279	29326
813.421	29296
813.562	29200
813.703	29090
813.845	28915
813.986	28637
814.127	28649
814.268	28447
814.41	28375
814.551	28356
814.692	28375
814.833	28413
814.974	28299
815.115	28382
815.256	28329
815.397	28295
815.539	28230
815.68	27998
815.821	28090
815.962	28185
816.103	28181
816.244	27937
816.385	27914
816.526	27953
816.666	27717
816.807	27720
816.948	27785
817.089	27743
817.23	27766
817.371	27587
817.512	27564
817.653	27789
817.793	27599
817.934	27583
818.075	27690
818.216	27671
818.356	27583
818.497	27610
818.638	27427
818.778	27542
818.919	27450
819.06	27549
819.2	27583
819.341	27561
819.481	27618
819.622	27732
819.762	27960
819.903	28078
820.043	27876
820.184	27778
820.324	27785
820.465	27720
820.605	27831
820.746	27865
820.886	27660
821.026	27793
821.167	27713
821.307	27816
821.447	27732
821.588	27671
821.728	27367
821.868	27401
822.008	27104
822.149	27142
822.289	27081
822.429	26891
822.569	26834
822.709	26727
822.849	26724
822.99	26716
823.13	26659
823.27	26484
823.41	26400
823.55	26381
823.69	26552
823.83	26537
823.97	26244
824.11	26275
824.25	26404
824.389	26313
824.529	26385
824.669	26282
824.809	26431
824.949	26301
825.089	26412
825.228	26431
825.368	26069
825.508	26278
825.648	26256
825.787	26191
825.927	26362
826.067	26221
826.206	26195
826.346	26332
826.485	26122
826.625	26202
826.765	26244
826.904	26157
827.044	25879
827.183	25871
827.323	25883
827.462	25944
827.601	25906
827.741	25860
827.88	25852
828.02	25947
828.159	25879
828.298	25845
828.437	26069
828.577	25803
828.716	26043
828.855	25830
828.994	25613
829.134	25491
829.273	25750
829.412	25616
829.551	25476
829.69	25563
829.829	25559
829.968	25639
830.107	25727
830.246	25510
830.385	25495
830.524	25445
830.663	25403
830.802	25282
830.941	25148
831.08	25080
831.219	25308
831.357	25160
831.496	25495
831.635	25190
831.774	25206
831.913	25095
832.051	24954
832.19	24951
832.329	25000
832.467	24916
832.606	24852
832.744	24772
832.883	24882
833.022	24825
833.16	24875
833.299	24962
833.437	24924
833.576	24882
833.714	24886
833.852	24970
833.991	25008
834.129	24954
834.267	24920
834.406	24905
834.544	24924
834.682	24981
834.821	24909
834.959	25057
835.097	24852
835.235	24920
835.373	24924
835.511	24856
835.65	24821
835.788	24764
835.926	24722
836.064	24498
836.202	24525
836.34	24753
836.478	24783
836.615	24635
836.753	24757
836.891	24856
837.029	24749
837.167	24745
837.305	24677
837.443	24547
837.58	24429
837.718	24597
837.856	24544
837.993	24452
838.131	24642
838.269	24426
838.406	24395
838.544	24445
838.681	24201
838.819	24167
838.956	24060
839.094	24117
839.231	24095
839.369	24220
839.506	24441
839.643	24197
839.781	24087
839.918	23973
840.055	24091
840.193	24038
840.33	24018
840.467	24038
840.604	23809
840.742	24235
840.879	23783
841.016	23904
841.153	23794
841.29	24034
841.427	23965
841.564	23961
841.701	23950
841.838	23912
841.975	23756
842.112	23878
842.249	23756
842.385	23729
842.522	23912
842.659	23775
842.796	23687
842.933	23748
843.069	23824
843.206	23737
843.343	23691
843.479	23676
843.616	23676
843.752	23486
843.889	23478
844.025	23615
844.162	23455
844.298	23630
844.435	23436
844.571	23337
844.708	23471
844.844	23657
844.98	23589
845.117	23531
845.253	23387
845.389	23292
845.525	23429
845.661	23246
845.798	23254
845.934	23334
846.07	23128
846.206	23261
846.342	23265
846.478	23208
846.614	22938
846.75	22824
846.886	22881
847.022	23003
847.158	22908
847.294	22911
847.429	22908
847.565	22778
847.701	23064
847.837	22637
847.972	22622
848.108	22691
848.244	22691
848.379	22588
848.515	22497
848.65	22459
848.786	22447
848.921	22447
849.057	22641
849.192	22725
849.328	22561
849.463	22679
849.598	22451
849.734	22474
849.869	22379
850.004	22272
850.14	22360
850.275	22128
850.41	22196
850.545	22150
850.68	22249
850.815	22238
850.95	22276
851.085	22382
851.22	22417
851.355	22306
851.49	22394
851.625	22207
851.76	22303
851.895	22032
852.03	22234
852.165	22280
852.299	22287
852.434	22344
852.569	22242
852.703	22314
852.838	22188
852.973	22413
853.107	22257
853.242	22215
853.376	22135
853.511	21994
853.645	22128
853.78	22226
853.914	22120
854.048	22036
854.183	22200
854.317	22074
854.451	22249
854.585	22162
854.72	22036
854.854	22249
854.988	22120
855.122	22070
855.256	21972
855.39	22086
855.524	22166
855.658	22006
855.792	22063
855.926	22105
856.06	22143
856.194	22188
856.327	22124
856.461	22105
856.595	22010
856.729	22044
856.862	22253
856.996	22063
857.13	22101
857.263	22120
857.397	22150
857.53	22021
857.664	22253
857.797	22238
857.931	22257
858.064	22181
858.197	22188
858.331	22139
858.464	22040
858.597	22013
858.731	22105
858.864	22109
858.997	22044
859.13	22120
859.263	22029
859.396	22116
859.529	22021
859.662	21930
859.795	21941
859.928	22120
860.061	22207
860.194	22325
860.327	22268
860.46	22074
860.592	22162
860.725	22291
860.858	22238
860.99	22086
861.123	21953
861.256	22044
861.388	22048
861.521	22725
861.653	21979
861.786	21876
861.918	21979
862.05	21972
862.183	21953
862.315	22074
862.447	21987
862.58	21994
862.712	21827
862.844	21747
862.976	21739
863.108	21949
863.24	22306
863.372	21861
863.504	21846
863.636	21789
863.768	21812
863.9	21895
864.032	21709
864.164	21785
864.296	21797
864.428	21869
864.559	21975
864.691	21930
864.823	21800
864.954	21759
865.086	21827
865.217	21660
865.349	21435
865.48	21622
865.612	21580
865.743	21770
865.875	21728
866.006	21583
866.137	21667
866.269	21637
866.4	21728
866.531	21591
866.662	21606
866.793	21641
866.924	21629
867.055	21595
867.186	21610
867.317	21629
867.448	21481
867.579	21523
867.71	21500
867.841	21507
867.972	21603
868.103	21671
868.233	21641
868.364	21739
868.495	21698
868.625	21937
868.756	21857
868.886	21667
869.017	21838
869.147	21941
869.278	21987
869.408	21816
869.539	21915
869.669	21846
869.799	21937
869.929	21941
870.06	21918
870.19	22105
870.32	22204
870.45	22109
870.58	22185
870.71	22325
870.84	22276
870.97	22200
871.1	22265
871.23	22424
871.36	22478
871.489	22337
871.619	22440
871.749	22489
871.879	22470
872.008	22402
872.138	22481
872.267	22432
872.397	22257
872.526	22272
872.656	22169
872.785	22306
872.915	22436
873.044	22478
873.173	22508
873.303	22481
873.432	22523
873.561	22466
873.69	22375
873.819	22390
873.948	22481
874.077	22504
874.206	22367
874.335	22500
874.464	22474
874.593	22748
874.722	22554
874.851	22763
874.979	22710
875.108	22729
875.237	22752
875.365	22618
875.494	22596
875.623	22752
875.751	22481
875.88	22683
876.008	22835
876.136	22965
876.265	23094
876.393	23185
876.521	23121
876.65	23041
876.778	22987
876.906	23067
877.034	23003
877.162	23079
877.29	23060
877.418	22999
877.546	23056
877.674	23083
877.802	22949
877.93	22930
878.058	22873
878.185	22934
878.313	22949
878.441	22949
878.568	22862
878.696	22999
878.824	23075
878.951	23029
879.079	23311
879.206	23417
879.333	23162
879.461	23166
879.588	23048
879.715	23166
879.842	23254
879.97	22984
880.097	22866
880.224	22797
880.351	22904
880.478	22721
880.605	22805
880.732	22778
880.859	23090
880.986	22824
881.112	22854
881.239	22615
881.366	22645
881.493	22394
881.619	22344
881.746	22379
881.872	22455
881.999	22398
882.125	22398
882.252	22538
882.378	22356
882.505	22470
882.631	22177
882.757	22059
882.883	22097
883.01	22025
883.136	22078
883.262	22021
883.388	21903
883.514	22120
883.64	22143
883.766	21972
883.892	21869
884.018	21835
884.143	22063
884.269	22143
884.395	21884
884.52	21652
884.646	21675
884.772	21709
884.897	21618
885.023	21641
885.148	21793
885.274	21869
885.399	21861
885.524	21675
885.65	21739
885.775	21785
885.9	21736
886.025	21865
886.15	21865
886.275	21690
886.4	21576
886.525	21713
886.65	21671
886.775	21614
886.9	21739
887.025	21808
887.149	21675
887.274	21481
887.399	21519
887.523	21507
887.648	21393
887.773	21466
887.897	21583
888.021	21545
888.146	21507
888.27	21603
888.395	21641
888.519	21428
888.643	21488
888.767	21568
888.891	21485
889.015	21268
889.139	21344
889.263	21230
889.387	21466
889.511	21439
889.635	21412
889.759	21226
889.883	21264
890.006	21329
890.13	21462
890.254	21230
890.377	21180
890.501	21157
890.624	21009
890.748	20967
890.871	20933
890.995	20937
891.118	20750
891.241	20925
891.364	20868
891.488	20990
891.611	20864
891.734	20990
891.857	20853
891.98	20834
892.103	20849
892.226	20868
892.349	20739
892.471	20632
892.594	20682
892.717	20792
892.839	20674
892.962	20640
893.085	20708
893.207	20769
893.33	20575
893.452	20598
893.575	20804
893.697	20613
893.819	20887
893.941	21005
894.064	20823
894.186	20678
894.308	20651
894.43	20708
894.552	20941
894.674	20785
894.796	20697
894.918	20648
895.04	20568
895.161	20830
895.283	20807
895.405	20720
895.526	20636
895.648	20674
895.769	20705
895.891	20731
896.012	20857
896.134	20701
896.255	20788
896.376	20670
896.498	20621
896.619	20651
896.74	20674
896.861	20697
896.982	21077
897.103	21184
897.224	20956
897.345	20929
897.466	20933
897.587	20921
897.708	21024
897.828	21020
897.949	20849
898.07	20746
898.19	20853
898.311	21154
898.431	20811
898.552	20990
898.672	21039
898.792	21032
898.913	20986
899.033	20773
899.153	20724
899.273	20705
899.393	20769
899.513	20735
899.633	20640
899.753	20697
899.873	20670
899.993	20648
900.113	20549
900.232	20663
900.352	20587
900.472	20446
900.591	20389
900.711	20446
900.83	20408
900.95	20476
901.069	20549
901.189	20358
901.308	20065
901.427	20039
901.546	19955
901.665	20035
901.784	20054
901.904	19951
902.023	19712
902.141	19609
902.26	19491
902.379	19556
902.498	19514
902.617	19449
902.735	19525
902.854	19464
902.973	19415
903.091	19183
903.21	19206
903.328	19217
903.446	19137
903.565	19069
903.683	18878
903.801	19050
903.919	18882
904.038	18897
904.156	18646
904.274	18814
904.392	18646
904.51	18749
904.627	18749
904.745	18802
904.863	18707
904.981	18494
905.098	18327
905.216	18399
905.334	18509
905.451	18372
905.569	18384
905.686	18365
905.803	18391
905.921	18209
906.038	18220
906.155	18197
906.272	18106
906.389	18087
906.506	17958
906.623	17980
906.74	17923
906.857	17882
906.974	17767
907.091	17904
907.208	18148
907.324	18026
907.441	17836
907.557	17600
907.674	17570
907.79	17729
907.907	17554
908.023	17592
908.139	17691
908.256	17592
908.372	17528
908.488	17535
908.604	17296
908.72	17334
908.836	17307
908.952	17284
909.068	17311
909.184	17425
909.3	17376
909.415	17322
909.531	17296
909.647	17079
909.762	17090
909.878	16930
909.993	17014
910.108	17105
910.224	17037
910.339	17048
910.454	16885
910.57	16793
910.685	16831
910.8	16961
910.915	17003
911.03	16858
911.145	16736
911.259	16611
911.374	16622
911.489	16580
911.604	16481
911.718	16375
911.833	16455
911.947	16268
912.062	16268
912.176	16314
912.291	16314
912.405	16371
912.519	16573
912.633	16493
912.748	16440
912.862	16428
912.976	16177
913.09	16112
913.204	16246
913.318	16253
913.431	16367
913.545	16230
913.659	16322
913.772	16109
913.886	15934
914	15930
914.113	16036
914.226	16124
914.34	16063
914.453	15907
914.566	16078
914.68	15865
914.793	15819
914.906	15743
915.019	15564
915.132	15511
915.245	15553
915.358	15500
915.47	15545
915.583	15549
915.696	15580
915.809	15709
915.921	15671
916.034	15473
916.146	15431
916.259	15488
916.371	15504
916.483	15591
916.595	15530
916.708	15454
916.82	15294
916.932	15386
917.044	15233
917.156	15332
917.268	15161
917.38	15272
917.491	15241
917.603	15112
917.715	15306
917.826	15329
917.938	15237
918.049	15036
918.161	15199
918.272	15344
918.384	15294
918.495	15081
918.606	15028
918.717	14986
918.828	14990
918.939	15081
919.05	14861
919.161	14952
919.272	14811
919.383	14857
919.494	15062
919.604	15127
919.715	14994
919.826	14769
919.936	14956
920.047	14952
920.157	14864
920.267	15043
920.378	14845
920.488	14937
920.598	15119
920.708	15218
920.818	15039
920.928	15051
921.038	15222
921.148	15112
921.258	14807
921.368	14716
921.477	14735
921.587	14533
921.697	14480
921.806	14632
921.916	14473
922.025	14351
922.134	14324
922.244	14202
922.353	14336
922.462	14111
922.571	14111
922.68	14001
922.789	13902
922.898	13993
923.007	13845
923.116	13993
923.224	13947
923.333	13902
923.442	13708
923.55	13776
923.659	13772
923.767	13864
923.876	13616
923.984	13784
924.092	13594
924.201	13647
924.309	13708
924.417	13746
924.525	13533
924.633	13639
924.741	14366
924.849	13426
924.956	13415
925.064	13301
925.172	13316
925.279	13362
925.387	13270
925.494	13354
925.602	13415
925.709	13335
925.816	13324
925.924	13179
926.031	13312
926.138	13209
926.245	13297
926.352	13244
926.459	13209
926.566	13369
926.673	13209
926.779	13099
926.886	13019
926.993	12954
927.099	12935
927.206	12878
927.312	12878
927.419	12985
927.525	12833
927.631	12928
927.737	12795
927.843	12768
927.95	12593
928.056	12677
928.162	12658
928.267	12696
928.373	13392
928.479	12738
928.585	12464
928.69	12604
928.796	12688
928.901	12566
929.007	12445
929.112	12540
929.218	12521
929.323	12433
929.428	12410
929.533	12467
929.638	12323
929.743	12384
929.848	12330
929.953	12258
930.058	12292
930.163	12072
930.267	12038
930.372	12220
930.477	12019
930.581	12220
930.685	12133
930.79	11950
930.894	11889
930.998	11882
931.103	12057
931.207	11722
931.311	11619
931.415	11471
931.519	11280
931.623	11326
