Data from test_V78500241_728.txt Node
Date: Fri Mar 25 15:46:50 CST 2022
User: usil
Spectrometer: V785-0024
Trigger mode: 0
Integration Time (sec): 4.000000E-1
Scans to average: 1
Nonlinearity correction enabled: false
Boxcar width: 0
Storing dark spectrum: false
XAxis mode: Wavelengths
Number of Pixels in Spectrum: 1024
>>>>>Begin Spectral Data<<<<<
801.071	28181
801.214	28109
801.356	27713
801.499	27622
801.641	27648
801.783	27717
801.926	27823
802.068	27614
802.211	27603
802.353	27568
802.496	27302
802.638	27329
802.78	27222
802.923	27283
803.065	27169
803.208	27241
803.35	27279
803.492	27447
803.635	27420
803.777	27374
803.919	27473
804.061	27724
804.204	27515
804.346	27485
804.488	27439
804.63	27420
804.773	27405
804.915	27504
805.057	27583
805.199	27515
805.341	27549
805.483	27599
805.626	27572
805.768	27538
805.91	27656
806.052	27519
806.194	27515
806.336	27880
806.478	27644
806.62	27671
806.762	27869
806.904	27884
807.046	28207
807.188	28082
807.33	28257
807.472	27991
807.614	28010
807.756	28040
807.898	27956
808.04	27987
808.182	27793
808.324	27709
808.465	27987
808.607	28200
808.749	28238
808.891	28314
809.033	28451
809.174	28352
809.316	28291
809.458	28405
809.6	28181
809.741	28382
809.883	28489
810.025	28504
810.166	28630
810.308	28588
810.45	28607
810.591	28504
810.733	28306
810.875	28173
811.016	28226
811.158	28276
811.299	28504
811.441	28531
811.582	28432
811.724	28177
811.865	28226
812.007	28325
812.148	28238
812.29	28360
812.431	28523
812.573	28565
812.714	28793
812.855	28797
812.997	28850
813.138	29025
813.279	28900
813.421	28793
813.562	28824
813.703	28702
813.845	28428
813.986	28352
814.127	28086
814.268	27888
814.41	28017
814.551	27979
814.692	28097
814.833	28010
814.974	27968
815.115	28166
815.256	27934
815.397	27835
815.539	28006
815.68	27724
815.821	27701
815.962	27854
816.103	27736
816.244	27686
816.385	27759
816.526	27553
816.666	27412
816.807	27367
816.948	27348
817.089	27355
817.23	27363
817.371	27272
817.512	27401
817.653	27230
817.793	27203
817.934	27302
818.075	27298
818.216	27321
818.356	27222
818.497	27211
818.638	26944
818.778	26994
818.919	27039
819.06	27119
819.2	27184
819.341	27294
819.481	27363
819.622	27412
819.762	27656
819.903	27553
820.043	27473
820.184	27408
820.324	27302
820.465	27481
820.605	27374
820.746	27439
820.886	27340
821.026	27405
821.167	27302
821.307	27504
821.447	27310
821.588	27176
821.728	27074
821.868	26929
822.008	26724
822.149	26853
822.289	26739
822.429	26545
822.569	26423
822.709	26412
822.849	26214
822.99	26324
823.13	26180
823.27	26282
823.41	26084
823.55	25928
823.69	26027
823.83	26008
823.97	26027
824.11	25871
824.25	25925
824.389	25947
824.529	26046
824.669	25959
824.809	26008
824.949	26005
825.089	26111
825.228	26096
825.368	25807
825.508	25727
825.648	25849
825.787	25856
825.927	25837
826.067	25788
826.206	25750
826.346	25898
826.485	25818
826.625	25871
826.765	25947
826.904	25772
827.044	25605
827.183	25601
827.323	25514
827.462	25506
827.601	25510
827.741	25449
827.88	25476
828.02	25472
828.159	25506
828.298	25422
828.437	25499
828.577	25506
828.716	25609
828.855	25415
828.994	25373
829.134	25183
829.273	25301
829.412	25107
829.551	25160
829.69	25206
829.829	25228
829.968	25331
830.107	25232
830.246	25324
830.385	25114
830.524	25061
830.663	25031
830.802	24897
830.941	24844
831.08	24802
831.219	24882
831.357	24783
831.496	24985
831.635	24700
831.774	24730
831.913	24719
832.051	24494
832.19	24665
832.329	24719
832.467	24445
832.606	24464
832.744	24502
832.883	24555
833.022	24479
833.16	24467
833.299	24646
833.437	24547
833.576	24509
833.714	24646
833.852	24544
833.991	24639
834.129	24593
834.267	24631
834.406	24627
834.544	24540
834.682	24441
834.821	24505
834.959	24612
835.097	24437
835.235	24589
835.373	24513
835.511	24513
835.65	24350
835.788	24304
835.926	24254
836.064	24079
836.202	24266
836.34	24456
836.478	24441
836.615	24292
836.753	24395
836.891	24467
837.029	24517
837.167	24357
837.305	24251
837.443	24254
837.58	24258
837.718	24273
837.856	24171
837.993	24102
838.131	24155
838.269	24163
838.406	24064
838.544	24015
838.681	23798
838.819	23775
838.956	23691
839.094	23722
839.231	23665
839.369	23885
839.506	24022
839.643	23942
839.781	23646
839.918	23634
840.055	23714
840.193	23611
840.33	23558
840.467	23642
840.604	23703
840.742	23767
840.879	23570
841.016	23395
841.153	23410
841.29	23764
841.427	23531
841.564	23600
841.701	23577
841.838	23516
841.975	23505
842.112	23474
842.249	23246
842.385	23280
842.522	23592
842.659	23448
842.796	23288
842.933	23379
843.069	23326
843.206	23223
843.343	23436
843.479	23368
843.616	23322
843.752	23200
843.889	23136
844.025	23299
844.162	23067
844.298	23204
844.435	23166
844.571	23140
844.708	23121
844.844	23204
844.98	23204
845.117	23159
845.253	23094
845.389	23006
845.525	22995
845.661	22957
845.798	22793
845.934	22984
846.07	22877
846.206	22866
846.342	22896
846.478	22782
846.614	22733
846.75	22573
846.886	22592
847.022	22706
847.158	22607
847.294	22611
847.429	22649
847.565	22573
847.701	22820
847.837	22223
847.972	22402
848.108	22390
848.244	22348
848.379	22261
848.515	22181
848.65	21998
848.786	22207
848.921	22135
849.057	22135
849.192	22333
849.328	22147
849.463	22310
849.598	22112
849.734	22067
849.869	22048
850.004	22036
850.14	21930
850.275	21873
850.41	21899
850.545	21968
850.68	21922
850.815	21941
850.95	21903
851.085	22074
851.22	22082
851.355	21865
851.49	21789
851.625	21903
851.76	21934
851.895	21903
852.03	21717
852.165	21945
852.299	22021
852.434	22021
852.569	21960
852.703	21930
852.838	21945
852.973	22002
853.107	21975
853.242	21857
853.376	21808
853.511	21568
853.645	21827
853.78	21907
853.914	21781
854.048	21732
854.183	21732
854.317	21793
854.451	21937
854.585	21823
854.72	21789
854.854	21762
854.988	21739
855.122	21774
855.256	21545
855.39	21705
855.524	21778
855.658	21850
855.792	21854
855.926	21785
856.06	21800
856.194	21854
856.327	21804
856.461	21694
856.595	21701
856.729	21728
856.862	21869
856.996	21831
857.13	21823
857.263	21953
857.397	21861
857.53	21880
857.664	21819
857.797	21690
857.931	21934
858.064	21766
858.197	21922
858.331	21842
858.464	21838
858.597	21705
858.731	21759
858.864	21629
858.997	21739
859.13	21751
859.263	21819
859.396	21679
859.529	21698
859.662	21747
859.795	21660
859.928	21629
860.061	22051
860.194	22013
860.327	21800
860.46	21717
860.592	21964
860.725	21972
860.858	21888
860.99	21819
861.123	21770
861.256	21728
861.388	21728
861.521	22451
861.653	21694
861.786	21553
861.918	21564
862.05	21690
862.183	21717
862.315	21663
862.447	21759
862.58	21686
862.712	21572
862.844	21416
862.976	21523
863.108	21519
863.24	21960
863.372	21416
863.504	21488
863.636	21519
863.768	21599
863.9	21519
864.032	21481
864.164	21416
864.296	21511
864.428	21641
864.559	21580
864.691	21614
864.823	21530
864.954	21526
865.086	21359
865.217	21481
865.349	21291
865.48	21321
865.612	21294
865.743	21492
865.875	21348
866.006	21306
866.137	21393
866.269	21355
866.4	21466
866.531	21393
866.662	21302
866.793	21374
866.924	21283
867.055	21405
867.186	21275
867.317	21310
867.448	21275
867.579	21233
867.71	21184
867.841	21180
867.972	21256
868.103	21192
868.233	21340
868.364	21359
868.495	21428
868.625	21629
868.756	21663
868.886	21492
869.017	21515
869.147	21644
869.278	21717
869.408	21603
869.539	21580
869.669	21637
869.799	21564
869.929	21637
870.06	21591
870.19	21812
870.32	21778
870.45	21926
870.58	21956
870.71	22078
870.84	22025
870.97	21926
871.1	21941
871.23	22101
871.36	22181
871.489	22074
871.619	21968
871.749	22211
871.879	22101
872.008	22230
872.138	22135
872.267	22124
872.397	22086
872.526	21987
872.656	22048
872.785	22025
872.915	22124
873.044	22287
873.173	22177
873.303	22230
873.432	22131
873.561	22322
873.69	22204
873.819	22188
873.948	22223
874.077	22059
874.206	22192
874.335	22185
874.464	22196
874.593	22348
874.722	22371
874.851	22516
874.979	22284
875.108	22421
875.237	22417
875.365	22284
875.494	22257
875.623	22466
875.751	22375
875.88	22447
876.008	22405
876.136	22554
876.265	22869
876.393	22873
876.521	22816
876.65	22790
876.778	22679
876.906	22790
877.034	22706
877.162	22790
877.29	22634
877.418	22733
877.546	22713
877.674	22755
877.802	22774
877.93	22759
878.058	22691
878.185	22656
878.313	22603
878.441	22782
878.568	22523
878.696	22630
878.824	22653
878.951	22805
879.079	22877
879.206	22987
879.333	22930
879.461	22774
879.588	22759
879.715	22885
879.842	22908
879.97	22755
880.097	22516
880.224	22493
880.351	22679
880.478	22557
880.605	22531
880.732	22470
880.859	22729
880.986	22550
881.112	22592
881.239	22375
881.366	22268
881.493	22124
881.619	22131
881.746	22090
881.872	22154
881.999	22124
882.125	22059
882.252	22112
882.378	22048
882.505	22261
882.631	22032
882.757	21808
882.883	21888
883.01	21880
883.136	21766
883.262	21694
883.388	21629
883.514	21869
883.64	21854
883.766	21747
883.892	21553
884.018	21641
884.143	21736
884.269	21846
884.395	21496
884.52	21348
884.646	21450
884.772	21294
884.897	21401
885.023	21416
885.148	21469
885.274	21553
885.399	21424
885.524	21488
885.65	21389
885.775	21431
885.9	21420
886.025	21412
886.15	21542
886.275	21447
886.4	21386
886.525	21325
886.65	21355
886.775	21367
886.9	21599
887.025	21682
887.149	21329
887.274	21249
887.399	21218
887.523	21150
887.648	21203
887.773	21150
887.897	21283
888.021	21203
888.146	21047
888.27	21233
888.395	21363
888.519	21241
888.643	21222
888.767	21344
888.891	21096
889.015	20876
889.139	20975
889.263	20986
889.387	21005
889.511	21169
889.635	21169
889.759	20887
889.883	20902
890.006	20921
890.13	21074
890.254	21062
890.377	20960
890.501	20750
890.624	20682
890.748	20788
890.871	20667
890.995	20617
891.118	20545
891.241	20606
891.364	20461
891.488	20708
891.611	20541
891.734	20602
891.857	20716
891.98	20606
892.103	20609
892.226	20552
892.349	20598
892.471	20461
892.594	20507
892.717	20594
892.839	20396
892.962	20541
893.085	20511
893.207	20396
893.33	20336
893.452	20294
893.575	20484
893.697	20336
893.819	20545
893.941	20655
894.064	20488
894.186	20370
894.308	20351
894.43	20518
894.552	20511
894.674	20602
894.796	20332
894.918	20427
895.04	20412
895.161	20355
895.283	20541
895.405	20438
895.526	20396
895.648	20495
895.769	20427
895.891	20461
896.012	20549
896.134	20450
896.255	20499
896.376	20336
896.498	20431
896.619	20450
896.74	20473
896.861	20317
896.982	20758
897.103	20944
897.224	20720
897.345	20636
897.466	20705
897.587	20674
897.708	20815
897.828	20678
897.949	20571
898.07	20511
898.19	20522
898.311	20785
898.431	20583
898.552	20598
898.672	20689
898.792	20739
898.913	20773
899.033	20503
899.153	20549
899.273	20309
899.393	20476
899.513	20434
899.633	20454
899.753	20415
899.873	20294
899.993	20385
900.113	20393
900.232	20480
900.352	20298
900.472	20248
900.591	20092
900.711	20191
900.83	20016
900.95	20267
901.069	20286
901.189	20100
901.308	19746
901.427	19643
901.546	19757
901.665	19731
901.784	19883
901.904	19677
902.023	19597
902.141	19335
902.26	19293
902.379	19430
902.498	19213
902.617	19240
902.735	19168
902.854	19244
902.973	19095
903.091	18958
903.21	19034
903.328	18958
903.446	18916
903.565	18768
903.683	18802
903.801	18585
903.919	18802
904.038	18646
904.156	18460
904.274	18604
904.392	18437
904.51	18506
904.627	18544
904.745	18502
904.863	18540
904.981	18304
905.098	18285
905.216	18049
905.334	18243
905.451	18194
905.569	18178
905.686	18163
905.803	18174
905.921	17973
906.038	18034
906.155	17863
906.272	17847
906.389	17821
906.506	17699
906.623	17684
906.74	17707
906.857	17653
906.974	17642
907.091	17783
907.208	17737
907.324	17741
907.441	17642
907.557	17436
907.674	17383
907.79	17425
907.907	17410
908.023	17490
908.139	17577
908.256	17341
908.372	17341
908.488	17242
908.604	17117
908.72	17185
908.836	17151
908.952	17041
909.068	17208
909.184	17288
909.3	17136
909.415	17155
909.531	17067
909.647	16831
909.762	16885
909.878	16831
909.993	16896
910.108	16820
910.224	16763
910.339	16801
910.454	16748
910.57	16645
910.685	16577
910.8	16805
910.915	16755
911.03	16653
911.145	16550
911.259	16413
911.374	16432
911.489	16284
911.604	16287
911.718	16139
911.833	16169
911.947	16101
912.062	16082
912.176	16185
912.291	16230
912.405	16177
912.519	16329
912.633	16421
912.748	16295
912.862	16181
912.976	15968
913.09	15831
913.204	15991
913.318	15968
913.431	16044
913.545	16036
913.659	16017
913.772	15975
913.886	15869
914	15663
914.113	15800
914.226	15945
914.34	15884
914.453	15663
914.566	15823
914.68	15736
914.793	15644
914.906	15473
915.019	15393
915.132	15294
915.245	15287
915.358	15504
915.47	15408
915.583	15378
915.696	15477
915.809	15504
915.921	15515
916.034	15298
916.146	15272
916.259	15207
916.371	15329
916.483	15222
916.595	15237
916.708	15112
916.82	15264
916.932	15161
917.044	15127
917.156	15104
917.268	14956
917.38	15058
917.491	15051
917.603	14982
917.715	15077
917.826	15150
917.938	14941
918.049	14906
918.161	15001
918.272	15146
918.384	14960
918.495	14967
918.606	14769
918.717	14804
918.828	14750
918.939	14815
919.05	14663
919.161	14705
919.272	14602
919.383	14533
919.494	14754
919.604	14967
919.715	14838
919.826	14602
919.936	14705
920.047	14902
920.157	14804
920.267	14986
920.378	14739
920.488	14594
920.598	14967
920.708	15009
920.818	14857
920.928	14925
921.038	15055
921.148	14944
921.258	14594
921.368	14640
921.477	14514
921.587	14488
921.697	14408
921.806	14450
921.916	14370
922.025	14210
922.134	14161
922.244	14073
922.353	14214
922.462	14001
922.571	13909
922.68	13731
922.789	13875
922.898	13822
923.007	13677
923.116	13788
923.224	13811
923.333	13727
923.442	13601
923.55	13571
923.659	13609
923.767	13632
923.876	13506
923.984	13685
924.092	13381
924.201	13616
924.309	13533
924.417	13441
924.525	13369
924.633	13434
924.741	14400
924.849	13266
924.956	13362
925.064	13194
925.172	13095
925.279	13179
925.387	13171
925.494	13023
925.602	13221
925.709	13168
925.816	13076
925.924	13057
926.031	13301
926.138	13126
926.245	13122
926.352	13019
926.459	13046
926.566	13187
926.673	12981
926.779	12829
926.886	12852
926.993	12791
927.099	12768
927.206	12665
927.312	12635
927.419	12802
927.525	12768
927.631	12688
927.737	12669
927.843	12506
927.95	12502
928.056	12608
928.162	12639
928.267	12627
928.373	13160
928.479	12627
928.585	12445
928.69	12479
928.796	12566
928.901	12407
929.007	12330
929.112	12338
929.218	12407
929.323	12205
929.428	12266
929.533	12391
929.638	12216
929.743	12232
929.848	12266
929.953	12205
930.058	12106
930.163	11855
930.267	11984
930.372	12106
930.477	11878
930.581	12175
930.685	11946
930.79	11821
930.894	11897
930.998	11832
931.103	11961
931.207	11585
931.311	11551
931.415	11391
931.519	11201
931.623	11231
