Data from test_V78500241_1497.txt Node
Date: Fri Mar 25 15:52:10 CST 2022
User: usil
Spectrometer: V785-0024
Trigger mode: 0
Integration Time (sec): 4.000000E-1
Scans to average: 1
Nonlinearity correction enabled: false
Boxcar width: 0
Storing dark spectrum: false
XAxis mode: Wavelengths
Number of Pixels in Spectrum: 1024
>>>>>Begin Spectral Data<<<<<
801.071	27914
801.214	27713
801.356	27610
801.499	27507
801.641	27420
801.783	27355
801.926	27477
802.068	27363
802.211	27477
802.353	27397
802.496	27157
802.638	27032
802.78	27024
802.923	27032
803.065	26963
803.208	27039
803.35	27066
803.492	27222
803.635	27275
803.777	27226
803.919	27264
804.061	27599
804.204	27405
804.346	27389
804.488	27283
804.63	27291
804.773	27214
804.915	27389
805.057	27481
805.199	27355
805.341	27454
805.483	27454
805.626	27454
805.768	27412
805.91	27549
806.052	27408
806.194	27431
806.336	27606
806.478	27511
806.62	27367
806.762	27591
806.904	27622
807.046	27846
807.188	27766
807.33	27895
807.472	28002
807.614	27911
807.756	27937
807.898	27759
808.04	27595
808.182	27557
808.324	27682
808.465	27861
808.607	27994
808.749	28120
808.891	28219
809.033	28246
809.174	28169
809.316	28040
809.458	28017
809.6	28101
809.741	28253
809.883	28211
810.025	28306
810.166	28363
810.308	28459
810.45	28352
810.591	28310
810.733	28055
810.875	28249
811.016	27918
811.158	27953
811.299	28226
811.441	28226
811.582	28314
811.724	28029
811.865	27987
812.007	27983
812.148	28097
812.29	28070
812.431	28253
812.573	28527
812.714	28443
812.855	28626
812.997	28618
813.138	28755
813.279	28485
813.421	28443
813.562	28508
813.703	28291
813.845	28265
813.986	27953
814.127	27880
814.268	27701
814.41	27739
814.551	27766
814.692	27884
814.833	27743
814.974	27667
815.115	27778
815.256	27618
815.397	27701
815.539	27572
815.68	27530
815.821	27431
815.962	27481
816.103	27504
816.244	27408
816.385	27420
816.526	27424
816.666	27195
816.807	26990
816.948	27093
817.089	27161
817.23	27051
817.371	27062
817.512	26944
817.653	27085
817.793	26861
817.934	27005
818.075	26902
818.216	27047
818.356	26891
818.497	26845
818.638	26743
818.778	26769
818.919	26697
819.06	26800
819.2	26872
819.341	26876
819.481	26929
819.622	27157
819.762	27363
819.903	27283
820.043	27214
820.184	27329
820.324	27203
820.465	27188
820.605	27123
820.746	27108
820.886	26940
821.026	27169
821.167	27112
821.307	27192
821.447	27047
821.588	26952
821.728	26906
821.868	26667
822.008	26537
822.149	26552
822.289	26484
822.429	26210
822.569	26183
822.709	26210
822.849	26206
822.99	26058
823.13	25936
823.27	26035
823.41	25856
823.55	25719
823.69	25966
823.83	25860
823.97	25826
824.11	25658
824.25	25662
824.389	25708
824.529	25666
824.669	25784
824.809	25704
824.949	25814
825.089	25788
825.228	25643
825.368	25510
825.508	25422
825.648	25518
825.787	25472
825.927	25597
826.067	25468
826.206	25445
826.346	25544
826.485	25499
826.625	25521
826.765	25609
826.904	25388
827.044	25396
827.183	25339
827.323	25251
827.462	25388
827.601	25343
827.741	25099
827.88	25225
828.02	25164
828.159	25202
828.298	25213
828.437	25266
828.577	25099
828.716	25422
828.855	25122
828.994	24913
829.134	24840
829.273	25084
829.412	24954
829.551	24856
829.69	24909
829.829	24905
829.968	25050
830.107	25061
830.246	24871
830.385	24901
830.524	24791
830.663	24707
830.802	24604
830.941	24479
831.08	24528
831.219	24635
831.357	24566
831.496	24722
831.635	24589
831.774	24490
831.913	24426
832.051	24369
832.19	24228
832.329	24346
832.467	24266
832.606	24178
832.744	24163
832.883	24053
833.022	24045
833.16	24232
833.299	24232
833.437	24277
833.576	24357
833.714	24388
833.852	24220
833.991	24281
834.129	24448
834.267	24327
834.406	24220
834.544	24289
834.682	24266
834.821	24201
834.959	24384
835.097	24311
835.235	24338
835.373	24357
835.511	24251
835.65	24011
835.788	24201
835.926	23984
836.064	23885
836.202	23920
836.34	24254
836.478	24194
836.615	24060
836.753	24152
836.891	24190
837.029	24155
837.167	24007
837.305	23878
837.443	24034
837.58	23916
837.718	24022
837.856	23912
837.993	23847
838.131	23897
838.269	23828
838.406	23764
838.544	23676
838.681	23585
838.819	23608
838.956	23402
839.094	23337
839.231	23501
839.369	23604
839.506	23748
839.643	23604
839.781	23410
839.918	23440
840.055	23501
840.193	23417
840.33	23360
840.467	23353
840.604	23337
840.742	23577
840.879	23208
841.016	23261
841.153	23307
841.29	23516
841.427	23250
841.564	23353
841.701	23356
841.838	23269
841.975	23235
842.112	23269
842.249	23254
842.385	23041
842.522	23250
842.659	23155
842.796	23086
842.933	23189
843.069	23060
843.206	23056
843.343	23117
843.479	23136
843.616	23003
843.752	22873
843.889	22946
844.025	22980
844.162	22835
844.298	22889
844.435	22843
844.571	22771
844.708	22923
844.844	22942
844.98	23090
845.117	22892
845.253	22831
845.389	22755
845.525	22675
845.661	22672
845.798	22474
845.934	22527
846.07	22557
846.206	22634
846.342	22698
846.478	22523
846.614	22390
846.75	22124
846.886	22379
847.022	22299
847.158	22432
847.294	22265
847.429	22226
847.565	22207
847.701	22451
847.837	22036
847.972	22101
848.108	22097
848.244	22234
848.379	21987
848.515	21865
848.65	21960
848.786	21960
848.921	21907
849.057	21968
849.192	22025
849.328	21987
849.463	21793
849.598	21785
849.734	21770
849.869	21888
850.004	21671
850.14	21701
850.275	21774
850.41	21526
850.545	21686
850.68	21656
850.815	21755
850.95	21713
851.085	21823
851.22	21682
851.355	21774
851.49	21690
851.625	21580
851.76	21595
851.895	21576
852.03	21424
852.165	21667
852.299	21732
852.434	21641
852.569	21686
852.703	21599
852.838	21732
852.973	21755
853.107	21789
853.242	21591
853.376	21492
853.511	21325
853.645	21488
853.78	21637
853.914	21614
854.048	21469
854.183	21469
854.317	21542
854.451	21781
854.585	21363
854.72	21485
854.854	21519
854.988	21428
855.122	21523
855.256	21351
855.39	21595
855.524	21705
855.658	21564
855.792	21481
855.926	21523
856.06	21545
856.194	21595
856.327	21435
856.461	21454
856.595	21469
856.729	21412
856.862	21671
856.996	21519
857.13	21500
857.263	21542
857.397	21542
857.53	21481
857.664	21625
857.797	21622
857.931	21481
858.064	21523
858.197	21511
858.331	21660
858.464	21439
858.597	21370
858.731	21530
858.864	21599
858.997	21393
859.13	21530
859.263	21580
859.396	21580
859.529	21378
859.662	21416
859.795	21534
859.928	21481
860.061	21663
860.194	21701
860.327	21424
860.46	21485
860.592	21633
860.725	21789
860.858	21667
860.99	21469
861.123	21443
861.256	21370
861.388	21389
861.521	22093
861.653	21207
861.786	21302
861.918	21321
862.05	21268
862.183	21500
862.315	21488
862.447	21504
862.58	21359
862.712	21154
862.844	21184
862.976	21336
863.108	21188
863.24	21709
863.372	21173
863.504	21260
863.636	21165
863.768	21192
863.9	21157
864.032	21085
864.164	21157
864.296	21283
864.428	21298
864.559	21138
864.691	21275
864.823	21226
864.954	21180
865.086	21096
865.217	21207
865.349	21062
865.48	21222
865.612	21211
865.743	21363
865.875	21245
866.006	20960
866.137	21146
866.269	21146
866.4	21142
866.531	21070
866.662	21032
866.793	20956
866.924	21085
867.055	21150
867.186	21039
867.317	21085
867.448	21017
867.579	21055
867.71	20872
867.841	20982
867.972	21051
868.103	21051
868.233	21013
868.364	21195
868.495	21211
868.625	21237
868.756	21302
868.886	21203
869.017	21173
869.147	21363
869.278	21329
869.408	21252
869.539	21256
869.669	21325
869.799	21382
869.929	21389
870.06	21378
870.19	21564
870.32	21576
870.45	21553
870.58	21663
870.71	21713
870.84	21838
870.97	21534
871.1	21713
871.23	21854
871.36	21793
871.489	21918
871.619	21865
871.749	21850
871.879	21953
872.008	21915
872.138	21823
872.267	21873
872.397	21603
872.526	21766
872.656	21705
872.785	21622
872.915	21911
873.044	21956
873.173	21861
873.303	21930
873.432	22017
873.561	21915
873.69	22044
873.819	21846
873.948	21915
874.077	21915
874.206	21880
874.335	21918
874.464	22124
874.593	22192
874.722	22029
874.851	22044
874.979	22162
875.108	22131
875.237	22169
875.365	22029
875.494	22063
875.623	22090
875.751	22169
875.88	22097
876.008	22150
876.136	22360
876.265	22508
876.393	22664
876.521	22577
876.65	22641
876.778	22462
876.906	22603
877.034	22421
877.162	22451
877.29	22333
877.418	22557
877.546	22398
877.674	22474
877.802	22455
877.93	22390
878.058	22546
878.185	22337
878.313	22371
878.441	22512
878.568	22280
878.696	22413
878.824	22542
878.951	22519
879.079	22683
879.206	22744
879.333	22664
879.461	22417
879.588	22459
879.715	22557
879.842	22892
879.97	22497
880.097	22367
880.224	22295
880.351	22329
880.478	22322
880.605	22284
880.732	22192
880.859	22546
880.986	22226
881.112	22394
881.239	22177
881.366	21979
881.493	21934
881.619	21854
881.746	21835
881.872	21831
881.999	21861
882.125	21835
882.252	21835
882.378	21937
882.505	21979
882.631	21751
882.757	21622
882.883	21690
883.01	21504
883.136	21439
883.262	21348
883.388	21386
883.514	21599
883.64	21542
883.766	21504
883.892	21268
884.018	21382
884.143	21507
884.269	21637
884.395	21252
884.52	21100
884.646	21291
884.772	21154
884.897	21089
885.023	21237
885.148	21329
885.274	21408
885.399	21260
885.524	21222
885.65	21199
885.775	21230
885.9	21013
886.025	21386
886.15	21256
886.275	21233
886.4	21096
886.525	21203
886.65	21009
886.775	21119
886.9	21382
887.025	21424
887.149	21123
887.274	21051
887.399	20994
887.523	20902
887.648	21036
887.773	20868
887.897	20994
888.021	21013
888.146	20902
888.27	20967
888.395	21154
888.519	21020
888.643	20956
888.767	20982
888.891	20952
889.015	20815
889.139	20914
889.263	20777
889.387	20876
889.511	20963
889.635	20811
889.759	20724
889.883	20792
890.006	20800
890.13	20967
890.254	20705
890.377	20777
890.501	20590
890.624	20530
890.748	20571
890.871	20568
890.995	20396
891.118	20225
891.241	20442
891.364	20400
891.488	20488
891.611	20358
891.734	20298
891.857	20332
891.98	20305
892.103	20488
892.226	20286
892.349	20210
892.471	20176
892.594	20263
892.717	20259
892.839	20183
892.962	20271
893.085	20343
893.207	20157
893.33	20134
893.452	20039
893.575	20275
893.697	20282
893.819	20450
893.941	20431
894.064	20438
894.186	20115
894.308	20031
894.43	20385
894.552	20240
894.674	20461
894.796	20031
894.918	20168
895.04	20263
895.161	20267
895.283	20286
895.405	20240
895.526	20256
895.648	20267
895.769	20275
895.891	20286
896.012	20347
896.134	20328
896.255	20282
896.376	20286
896.498	20199
896.619	20263
896.74	20240
896.861	20157
896.982	20606
897.103	20693
897.224	20537
897.345	20560
897.466	20434
897.587	20427
897.708	20602
897.828	20427
897.949	20446
898.07	20313
898.19	20332
898.311	20465
898.431	20442
898.552	20396
898.672	20530
898.792	20469
898.913	20446
899.033	20461
899.153	20290
899.273	20199
899.393	20229
899.513	20191
899.633	20240
899.753	20298
899.873	20065
899.993	20267
900.113	20088
900.232	20164
900.352	20237
900.472	20100
900.591	19928
900.711	19982
900.83	19868
900.95	20069
901.069	20107
901.189	19845
901.308	19624
901.427	19582
901.546	19563
901.665	19540
901.784	19681
901.904	19438
902.023	19247
902.141	19190
902.26	19133
902.379	19152
902.498	19072
902.617	19012
902.735	19099
902.854	18954
902.973	18928
903.091	18707
903.21	18753
903.328	18768
903.446	18589
903.565	18601
903.683	18502
903.801	18490
903.919	18513
904.038	18441
904.156	18330
904.274	18395
904.392	18308
904.51	18300
904.627	18296
904.745	18403
904.863	18422
904.981	18098
905.098	17882
905.216	17859
905.334	18015
905.451	17950
905.569	18087
905.686	18152
905.803	17878
905.921	17657
906.038	17752
906.155	17748
906.272	17691
906.389	17623
906.506	17566
906.623	17471
906.74	17421
906.857	17356
906.974	17486
907.091	17577
907.208	17592
907.324	17474
907.441	17444
907.557	17277
907.674	17223
907.79	17128
907.907	17235
908.023	17326
908.139	17406
908.256	17132
908.372	17056
908.488	17166
908.604	16995
908.72	16991
908.836	16866
908.952	16805
909.068	17003
909.184	16976
909.3	16877
909.415	16923
909.531	16892
909.647	16702
909.762	16687
909.878	16596
909.993	16649
910.108	16565
910.224	16607
910.339	16622
910.454	16558
910.57	16519
910.685	16363
910.8	16588
910.915	16550
911.03	16386
911.145	16318
911.259	16226
911.374	16219
911.489	16234
911.604	16120
911.718	16006
911.833	16044
911.947	15941
912.062	15907
912.176	15956
912.291	15975
912.405	15926
912.519	16196
912.633	16215
912.748	16032
912.862	16006
912.976	15842
913.09	15736
913.204	15633
913.318	15755
913.431	15918
913.545	15861
913.659	15880
913.772	15728
913.886	15713
914	15606
914.113	15667
914.226	15705
914.34	15648
914.453	15553
914.566	15622
914.68	15519
914.793	15530
914.906	15279
915.019	15272
915.132	15173
915.245	15184
915.358	15226
915.47	15192
915.583	15310
915.696	15207
915.809	15355
915.921	15393
916.034	15138
916.146	15085
916.259	15123
916.371	15245
916.483	15195
916.595	15009
916.708	15013
916.82	15058
916.932	15036
917.044	14990
917.156	14887
917.268	14842
917.38	14830
917.491	14880
917.603	14952
917.715	14960
917.826	14883
917.938	14686
918.049	14750
918.161	14686
918.272	14864
918.384	14933
918.495	14845
918.606	14621
918.717	14613
918.828	14712
918.939	14590
919.05	14583
919.161	14537
919.272	14438
919.383	14450
919.494	14598
919.604	14739
919.715	14621
919.826	14480
919.936	14590
920.047	14651
920.157	14469
920.267	14727
920.378	14537
920.488	14602
920.598	14640
920.708	14918
920.818	14739
920.928	14712
921.038	14868
921.148	14823
921.258	14610
921.368	14499
921.477	14370
921.587	14290
921.697	14123
921.806	14381
921.916	14073
922.025	14043
922.134	13944
922.244	13856
922.353	13944
922.462	13909
922.571	13807
922.68	13681
922.789	13548
922.898	13578
923.007	13491
923.116	13544
923.224	13601
923.333	13544
923.442	13521
923.55	13419
923.659	13369
923.767	13495
923.876	13365
923.984	13403
924.092	13373
924.201	13362
924.309	13228
924.417	13400
924.525	13228
924.633	13198
924.741	14172
924.849	13061
924.956	13240
925.064	13129
925.172	13015
925.279	12958
925.387	13168
925.494	12932
925.602	13164
925.709	13110
925.816	12875
925.924	13023
926.031	13004
926.138	12954
926.245	13031
926.352	12837
926.459	12935
926.566	12989
926.673	12951
926.779	12817
926.886	12776
926.993	12570
927.099	12570
927.206	12578
927.312	12509
927.419	12692
927.525	12631
927.631	12597
927.737	12445
927.843	12388
927.95	12315
928.056	12391
928.162	12388
928.267	12479
928.373	13004
928.479	12448
928.585	12262
928.69	12464
928.796	12433
928.901	12243
929.007	12053
929.112	12270
929.218	12251
929.323	12201
929.428	12114
929.533	12315
929.638	12019
929.743	12087
929.848	12045
929.953	12049
930.058	12019
930.163	11847
930.267	11946
930.372	11992
930.477	11779
930.581	12060
930.685	11885
930.79	11729
930.894	11775
930.998	11703
931.103	11817
931.207	11372
931.311	11429
931.415	11246
931.519	11067
931.623	11045
