Data from test_V78500241_1970.txt Node
Date: Fri Mar 25 15:55:26 CST 2022
User: usil
Spectrometer: V785-0024
Trigger mode: 0
Integration Time (sec): 4.000000E-1
Scans to average: 1
Nonlinearity correction enabled: false
Boxcar width: 0
Storing dark spectrum: false
XAxis mode: Wavelengths
Number of Pixels in Spectrum: 1024
>>>>>Begin Spectral Data<<<<<
801.071	28246
801.214	28200
801.356	28025
801.499	27975
801.641	27926
801.783	27819
801.926	27945
802.068	27892
802.211	27831
802.353	27675
802.496	27641
802.638	27690
802.78	27591
802.923	27447
803.065	27564
803.208	27599
803.35	27507
803.492	27732
803.635	27808
803.777	27618
803.919	27827
804.061	28135
804.204	27880
804.346	27728
804.488	27576
804.63	27770
804.773	27671
804.915	27888
805.057	27876
805.199	27789
805.341	27899
805.483	27983
805.626	27937
805.768	27914
805.91	27823
806.052	27911
806.194	28013
806.336	27998
806.478	27979
806.62	27876
806.762	28051
806.904	28154
807.046	28470
807.188	28504
807.33	28535
807.472	28417
807.614	28344
807.756	28356
807.898	28230
808.04	28284
808.182	28268
808.324	28291
808.465	28268
808.607	28455
808.749	28573
808.891	28637
809.033	28752
809.174	28717
809.316	28599
809.458	28672
809.6	28557
809.741	28679
809.883	28736
810.025	28953
810.166	28953
810.308	28767
810.45	28843
810.591	28702
810.733	28516
810.875	28516
811.016	28466
811.158	28519
811.299	28755
811.441	28805
811.582	28691
811.724	28645
811.865	28363
812.007	28554
812.148	28645
812.29	28592
812.431	28706
812.573	28942
812.714	28869
812.855	29037
812.997	29216
813.138	29459
813.279	29261
813.421	29113
813.562	29102
813.703	28972
813.845	28953
813.986	28512
814.127	28485
814.268	28390
814.41	28382
814.551	28322
814.692	28367
814.833	28322
814.974	28284
815.115	28188
815.256	28204
815.397	28048
815.539	28158
815.68	28105
815.821	28036
815.962	28143
816.103	28074
816.244	27949
816.385	27880
816.526	27823
816.666	27690
816.807	27454
816.948	27629
817.089	27622
817.23	27587
817.371	27663
817.512	27561
817.653	27606
817.793	27564
817.934	27462
818.075	27591
818.216	27591
818.356	27610
818.497	27477
818.638	27317
818.778	27393
818.919	27393
819.06	27370
819.2	27469
819.341	27580
819.481	27751
819.622	27705
819.762	28013
819.903	27930
820.043	27671
820.184	27671
820.324	27709
820.465	27873
820.605	27743
820.746	27667
820.886	27549
821.026	27785
821.167	27808
821.307	27717
821.447	27629
821.588	27542
821.728	27393
821.868	27131
822.008	27089
822.149	26994
822.289	27203
822.429	26960
822.569	26788
822.709	26815
822.849	26564
822.99	26492
823.13	26682
823.27	26465
823.41	26374
823.55	26381
823.69	26347
823.83	26305
823.97	26362
824.11	26157
824.25	26233
824.389	26263
824.529	26328
824.669	26267
824.809	26313
824.949	26271
825.089	26267
825.228	26415
825.368	26046
825.508	26134
825.648	26043
825.787	26145
825.927	26206
826.067	26035
826.206	26210
826.346	26138
826.485	26111
826.625	26039
826.765	26126
826.904	26237
827.044	25970
827.183	25860
827.323	25932
827.462	25906
827.601	25864
827.741	25753
827.88	25894
828.02	25651
828.159	25704
828.298	25765
828.437	25868
828.577	25719
828.716	25955
828.855	25738
828.994	25559
829.134	25479
829.273	25445
829.412	25403
829.551	25266
829.69	25472
829.829	25548
829.968	25586
830.107	25544
830.246	25506
830.385	25324
830.524	25331
830.663	25297
830.802	25114
830.941	25118
831.08	25088
831.219	25209
831.357	25042
831.496	25384
831.635	25057
831.774	25053
831.913	24928
832.051	25008
832.19	24821
832.329	24848
832.467	24867
832.606	24814
832.744	24658
832.883	24707
833.022	24700
833.16	24810
833.299	24817
833.437	24814
833.576	24825
833.714	24715
833.852	24863
833.991	24901
834.129	24897
834.267	24852
834.406	24764
834.544	24791
834.682	24901
834.821	24829
834.959	25076
835.097	24779
835.235	24859
835.373	24753
835.511	24760
835.65	24654
835.788	24665
835.926	24395
836.064	24513
836.202	24578
836.34	24601
836.478	24734
836.615	24764
836.753	24544
836.891	24650
837.029	24696
837.167	24483
837.305	24464
837.443	24467
837.58	24429
837.718	24525
837.856	24559
837.993	24304
838.131	24544
838.269	24353
838.406	24471
838.544	24361
838.681	24251
838.819	24098
838.956	23942
839.094	23961
839.231	23980
839.369	24228
839.506	24441
839.643	24205
839.781	23939
839.918	23992
840.055	23889
840.193	23992
840.33	23969
840.467	23931
840.604	23939
840.742	24117
840.879	23874
841.016	23813
841.153	23680
841.29	23984
841.427	23954
841.564	23904
841.701	23714
841.838	23912
841.975	23729
842.112	23760
842.249	23726
842.385	23592
842.522	23813
842.659	23748
842.796	23707
842.933	23668
843.069	23589
843.206	23600
843.343	23642
843.479	23665
843.616	23642
843.752	23474
843.889	23436
844.025	23608
844.162	23330
844.298	23486
844.435	23356
844.571	23315
844.708	23467
844.844	23509
844.98	23573
845.117	23440
845.253	23299
845.389	23200
845.525	23235
845.661	23105
845.798	23132
845.934	23170
846.07	23181
846.206	23216
846.342	23261
846.478	23098
846.614	23037
846.75	22748
846.886	22812
847.022	23022
847.158	22866
847.294	22847
847.429	22828
847.565	22805
847.701	23124
847.837	22531
847.972	22504
848.108	22744
848.244	22759
848.379	22436
848.515	22394
848.65	22462
848.786	22360
848.921	22402
849.057	22516
849.192	22538
849.328	22432
849.463	22371
849.598	22375
849.734	22409
849.869	22325
850.004	22135
850.14	22272
850.275	22177
850.41	22128
850.545	22059
850.68	22162
850.815	22272
850.95	22207
851.085	22344
851.22	22253
851.355	22226
851.49	22131
851.625	22188
851.76	22204
851.895	22112
852.03	22086
852.165	22234
852.299	22188
852.434	22166
852.569	22120
852.703	22147
852.838	22303
852.973	22386
853.107	22299
853.242	22025
853.376	22036
853.511	21979
853.645	21991
853.78	22257
853.914	22051
854.048	21861
854.183	22029
854.317	22021
854.451	22268
854.585	22013
854.72	21949
854.854	22158
854.988	21876
855.122	21979
855.256	21884
855.39	22010
855.524	22105
855.658	22162
855.792	21998
855.926	22029
856.06	22002
856.194	22128
856.327	22013
856.461	21918
856.595	21945
856.729	22025
856.862	22055
856.996	22048
857.13	22147
857.263	22063
857.397	22101
857.53	21979
857.664	22082
857.797	22044
857.931	22086
858.064	21945
858.197	22158
858.331	21968
858.464	22040
858.597	21926
858.731	22101
858.864	21922
858.997	21987
859.13	21934
859.263	22048
859.396	22082
859.529	21903
859.662	21949
859.795	21934
859.928	22017
860.061	22188
860.194	22280
860.327	22048
860.46	22116
860.592	22086
860.725	22188
860.858	22067
860.99	21979
861.123	21857
861.256	21934
861.388	22105
861.521	22843
861.653	21880
861.786	21759
861.918	21884
862.05	21922
862.183	21960
862.315	21934
862.447	22040
862.58	21827
862.712	21789
862.844	21724
862.976	21770
863.108	21922
863.24	22211
863.372	21690
863.504	21717
863.636	21637
863.768	21789
863.9	21759
864.032	21774
864.164	21682
864.296	21766
864.428	21842
864.559	21797
864.691	21732
864.823	21831
864.954	21755
865.086	21663
865.217	21614
865.349	21561
865.48	21622
865.612	21610
865.743	21663
865.875	21690
866.006	21496
866.137	21515
866.269	21561
866.4	21625
866.531	21466
866.662	21458
866.793	21603
866.924	21443
867.055	21629
867.186	21583
867.317	21401
867.448	21428
867.579	21443
867.71	21424
867.841	21561
867.972	21580
868.103	21370
868.233	21439
868.364	21572
868.495	21603
868.625	21793
868.756	21918
868.886	21705
869.017	21816
869.147	21797
869.278	21926
869.408	21800
869.539	21732
869.669	21930
869.799	21781
869.929	21903
870.06	21880
870.19	22116
870.32	22086
870.45	22196
870.58	22109
870.71	22246
870.84	22242
870.97	22211
871.1	22181
871.23	22295
871.36	22276
871.489	22177
871.619	22489
871.749	22303
871.879	22405
872.008	22466
872.138	22322
872.267	22329
872.397	22299
872.526	22246
872.656	22185
872.785	22238
872.915	22386
873.044	22360
873.173	22421
873.303	22440
873.432	22466
873.561	22618
873.69	22344
873.819	22322
873.948	22432
874.077	22310
874.206	22394
874.335	22413
874.464	22436
874.593	22615
874.722	22698
874.851	22668
874.979	22710
875.108	22706
875.237	22580
875.365	22451
875.494	22615
875.623	22733
875.751	22577
875.88	22634
876.008	22763
876.136	22904
876.265	23029
876.393	23128
876.521	23060
876.65	23029
876.778	23010
876.906	22957
877.034	22995
877.162	22866
877.29	22930
877.418	23006
877.546	22995
877.674	22915
877.802	22889
877.93	22957
878.058	22930
878.185	22786
878.313	22900
878.441	22953
878.568	22774
878.696	22968
878.824	23033
878.951	23010
879.079	23124
879.206	23227
879.333	23102
879.461	22999
879.588	23075
879.715	23132
879.842	23109
879.97	22999
880.097	22812
880.224	22824
880.351	22862
880.478	22850
880.605	22611
880.732	22797
880.859	22949
880.986	22752
881.112	22733
881.239	22653
881.366	22565
881.493	22440
881.619	22417
881.746	22428
881.872	22287
881.999	22284
882.125	22246
882.252	22344
882.378	22295
882.505	22432
882.631	22246
882.757	22135
882.883	22139
883.01	22097
883.136	22002
883.262	22006
883.388	22002
883.514	21968
883.64	22082
883.766	22025
883.892	21774
884.018	21960
884.143	21895
884.269	22078
884.395	21846
884.52	21713
884.646	21743
884.772	21633
884.897	21633
885.023	21622
885.148	21701
885.274	21728
885.399	21701
885.524	21831
885.65	21633
885.775	21622
885.9	21606
886.025	21759
886.15	21823
886.275	21587
886.4	21622
886.525	21671
886.65	21492
886.775	21534
886.9	21751
887.025	21823
887.149	21572
887.274	21504
887.399	21443
887.523	21420
887.648	21393
887.773	21310
887.897	21587
888.021	21401
888.146	21439
888.27	21492
888.395	21583
888.519	21515
888.643	21332
888.767	21424
888.891	21367
889.015	21142
889.139	21279
889.263	21230
889.387	21184
889.511	21401
889.635	21477
889.759	21184
889.883	21260
890.006	21245
890.13	21355
890.254	21062
890.377	21036
890.501	21020
890.624	20963
890.748	20967
890.871	20849
890.995	20845
891.118	20769
891.241	20800
891.364	20754
891.488	20933
891.611	20838
891.734	20891
891.857	20880
891.98	20739
892.103	20689
892.226	20834
892.349	20739
892.471	20571
892.594	20686
892.717	20731
892.839	20724
892.962	20568
893.085	20830
893.207	20590
893.33	20575
893.452	20560
893.575	20739
893.697	20541
893.819	20701
893.941	20883
894.064	20743
894.186	20655
894.308	20636
894.43	20708
894.552	20773
894.674	20781
894.796	20602
894.918	20629
895.04	20598
895.161	20750
895.283	20746
895.405	20629
895.526	20750
895.648	20549
895.769	20617
895.891	20651
896.012	20583
896.134	20792
896.255	20689
896.376	20629
896.498	20617
896.619	20625
896.74	20667
896.861	20644
896.982	20921
897.103	21176
897.224	21024
897.345	20788
897.466	20861
897.587	20952
897.708	21017
897.828	20838
897.949	20773
898.07	20743
898.19	20914
898.311	20918
898.431	20785
898.552	20815
898.672	20895
898.792	20853
898.913	20933
899.033	20762
899.153	20632
899.273	20682
899.393	20629
899.513	20640
899.633	20625
899.753	20598
899.873	20568
899.993	20587
900.113	20587
900.232	20503
900.352	20480
900.472	20434
900.591	20404
900.711	20366
900.83	20507
900.95	20560
901.069	20396
901.189	20138
901.308	20081
901.427	19837
901.546	19959
901.665	19978
901.784	19993
901.904	19757
902.023	19628
902.141	19586
902.26	19571
902.379	19563
902.498	19499
902.617	19324
902.735	19441
902.854	19457
902.973	19464
903.091	19148
903.21	19206
903.328	19088
903.446	19088
903.565	18947
903.683	18894
903.801	18886
903.919	18878
904.038	18951
904.156	18730
904.274	18715
904.392	18730
904.51	18772
904.627	18692
904.745	18757
904.863	18700
904.981	18521
905.098	18372
905.216	18266
905.334	18315
905.451	18372
905.569	18247
905.686	18281
905.803	18254
905.921	18133
906.038	18270
906.155	18091
906.272	18019
906.389	18095
906.506	17931
906.623	17946
906.74	17965
906.857	17745
906.974	17824
907.091	17916
907.208	17946
907.324	17980
907.441	17851
907.557	17596
907.674	17630
907.79	17501
907.907	17532
908.023	17596
908.139	17687
908.256	17619
908.372	17535
908.488	17463
908.604	17402
908.72	17315
908.836	17360
908.952	17299
909.068	17353
909.184	17467
909.3	17322
909.415	17258
909.531	17212
909.647	17041
909.762	17071
909.878	16949
909.993	17052
910.108	16961
910.224	16984
910.339	16999
910.454	16889
910.57	16824
910.685	16717
910.8	17003
910.915	17018
911.03	16911
911.145	16596
911.259	16599
911.374	16668
911.489	16550
911.604	16558
911.718	16367
911.833	16436
911.947	16272
912.062	16280
912.176	16348
912.291	16421
912.405	16375
912.519	16508
912.633	16546
912.748	16432
912.862	16344
912.976	16238
913.09	16029
913.204	16128
913.318	16109
913.431	16162
913.545	16204
913.659	16272
913.772	16105
913.886	15930
914	15994
914.113	16109
914.226	16078
914.34	15922
914.453	15873
914.566	15930
914.68	15903
914.793	15724
914.906	15656
915.019	15488
915.132	15526
915.245	15606
915.358	15523
915.47	15534
915.583	15542
915.696	15561
915.809	15648
915.921	15637
916.034	15526
916.146	15386
916.259	15443
916.371	15511
916.483	15454
916.595	15348
916.708	15275
916.82	15344
916.932	15370
917.044	15298
917.156	15378
917.268	15256
917.38	15195
917.491	15188
917.603	15222
917.715	15245
917.826	15264
917.938	15165
918.049	15047
918.161	15131
918.272	15355
918.384	15230
918.495	15093
918.606	15032
918.717	14861
918.828	14956
918.939	14960
919.05	14769
919.161	14902
919.272	14716
919.383	14712
919.494	14948
919.604	15077
919.715	14910
919.826	14857
919.936	14788
920.047	14899
920.157	14952
920.267	15058
920.378	14941
920.488	14811
920.598	15055
920.708	15161
920.818	14963
920.928	15081
921.038	15150
921.148	15127
921.258	14777
921.368	14731
921.477	14708
921.587	14552
921.697	14533
921.806	14651
921.916	14465
922.025	14301
922.134	14271
922.244	14202
922.353	14221
922.462	14081
922.571	14073
922.68	13944
922.789	13932
922.898	13879
923.007	13807
923.116	13947
923.224	13807
923.333	13833
923.442	13750
923.55	13746
923.659	13704
923.767	13772
923.876	13647
923.984	13738
924.092	13601
924.201	13677
924.309	13518
924.417	13769
924.525	13563
924.633	13510
924.741	14495
924.849	13377
924.956	13506
925.064	13255
925.172	13270
925.279	13316
925.387	13228
925.494	13282
925.602	13354
925.709	13312
925.816	13247
925.924	13179
926.031	13312
926.138	13187
926.245	13282
926.352	13114
926.459	13274
926.566	13168
926.673	13129
926.779	13099
926.886	13012
926.993	12905
927.099	12916
927.206	12783
927.312	12776
927.419	12886
927.525	12844
927.631	12928
927.737	12692
927.843	12711
927.95	12513
928.056	12650
928.162	12703
928.267	12757
928.373	13304
928.479	12684
928.585	12513
928.69	12623
928.796	12654
928.901	12555
929.007	12388
929.112	12559
929.218	12418
929.323	12372
929.428	12300
929.533	12502
929.638	12300
929.743	12300
929.848	12418
929.953	12300
930.058	12209
930.163	12121
930.267	12148
930.372	12205
930.477	12049
930.581	12213
930.685	12140
930.79	11946
930.894	12019
930.998	11885
931.103	11996
931.207	11684
931.311	11665
931.415	11474
931.519	11326
931.623	11345
