Data from test_V78500241_3451.txt Node
Date: Fri Mar 25 16:05:42 CST 2022
User: usil
Spectrometer: V785-0024
Trigger mode: 0
Integration Time (sec): 4.000000E-1
Scans to average: 1
Nonlinearity correction enabled: false
Boxcar width: 0
Storing dark spectrum: false
XAxis mode: Wavelengths
Number of Pixels in Spectrum: 1024
>>>>>Begin Spectral Data<<<<<
801.071	29029
801.214	28976
801.356	28588
801.499	28607
801.641	28466
801.783	28561
801.926	28607
802.068	28436
802.211	28367
802.353	28459
802.496	28272
802.638	28109
802.78	28181
802.923	28010
803.065	28143
803.208	28207
803.35	28109
803.492	28413
803.635	28531
803.777	28322
803.919	28413
804.061	28702
804.204	28348
804.346	28451
804.488	28413
804.63	28443
804.773	28333
804.915	28478
805.057	28725
805.199	28527
805.341	28413
805.483	28626
805.626	28611
805.768	28611
805.91	28702
806.052	28725
806.194	28523
806.336	28630
806.478	28519
806.62	28603
806.762	28656
806.904	28839
807.046	29147
807.188	29048
807.33	29105
807.472	29128
807.614	29018
807.756	29010
807.898	29044
808.04	28927
808.182	28740
808.324	28995
808.465	29033
808.607	29132
808.749	29246
808.891	29410
809.033	29600
809.174	29398
809.316	29356
809.458	29322
809.6	29326
809.741	29353
809.883	29531
810.025	29455
810.166	29577
810.308	29501
810.45	29528
810.591	29577
810.733	29402
810.875	29280
811.016	29269
811.158	29189
811.299	29395
811.441	29299
811.582	29562
811.724	29280
811.865	29288
812.007	29204
812.148	29368
812.29	29330
812.431	29482
812.573	29672
812.714	29828
812.855	30007
812.997	29927
813.138	30034
813.279	29946
813.421	29821
813.562	29809
813.703	29581
813.845	29539
813.986	29189
814.127	29105
814.268	29102
814.41	28991
814.551	28869
814.692	29132
814.833	28991
814.974	29033
815.115	29052
815.256	28972
815.397	28888
815.539	28873
815.68	28831
815.821	28908
815.962	28999
816.103	28725
816.244	28763
816.385	28698
816.526	28565
816.666	28535
816.807	28379
816.948	28390
817.089	28550
817.23	28379
817.371	28306
817.512	28386
817.653	28306
817.793	28246
817.934	28314
818.075	28299
818.216	28447
818.356	28329
818.497	28257
818.638	28078
818.778	28116
818.919	28158
819.06	28200
819.2	28276
819.341	28451
819.481	28337
819.622	28542
819.762	28626
819.903	28675
820.043	28618
820.184	28679
820.324	28649
820.465	28656
820.605	28516
820.746	28561
820.886	28261
821.026	28424
821.167	28447
821.307	28432
821.447	28375
821.588	28367
821.728	28116
821.868	27918
822.008	27926
822.149	27960
822.289	27899
822.429	27534
822.569	27644
822.709	27477
822.849	27416
822.99	27325
823.13	27363
823.27	27256
823.41	27199
823.55	27062
823.69	27389
823.83	27135
823.97	27100
824.11	26895
824.25	26804
824.389	27142
824.529	27070
824.669	27020
824.809	27081
824.949	27252
825.089	27173
825.228	27039
825.368	26876
825.508	26876
825.648	26868
825.787	26933
825.927	27020
826.067	26891
826.206	26906
826.346	27108
826.485	26998
826.625	26872
826.765	27028
826.904	26921
827.044	26777
827.183	26640
827.323	26590
827.462	26708
827.601	26674
827.741	26590
827.88	26792
828.02	26537
828.159	26560
828.298	26663
828.437	26735
828.577	26629
828.716	26743
828.855	26609
828.994	26309
829.134	26355
829.273	26427
829.412	26286
829.551	26240
829.69	26343
829.829	26347
829.968	26366
830.107	26476
830.246	26450
830.385	26332
830.524	26191
830.663	26142
830.802	26005
830.941	25951
831.08	25974
831.219	25966
831.357	25997
831.496	26065
831.635	25769
831.774	25864
831.913	25776
832.051	25750
832.19	25704
832.329	25696
832.467	25658
832.606	25681
832.744	25502
832.883	25597
833.022	25632
833.16	25708
833.299	25491
833.437	25795
833.576	25780
833.714	25662
833.852	25670
833.991	25708
834.129	25841
834.267	25795
834.406	25700
834.544	25807
834.682	25662
834.821	25670
834.959	25811
835.097	25704
835.235	25784
835.373	25727
835.511	25605
835.65	25502
835.788	25723
835.926	25476
836.064	25274
836.202	25278
836.34	25556
836.478	25586
836.615	25438
836.753	25487
836.891	25578
837.029	25487
837.167	25457
837.305	25472
837.443	25293
837.58	25343
837.718	25495
837.856	25346
837.993	25289
838.131	25358
838.269	25225
838.406	25145
838.544	24973
838.681	25012
838.819	24856
838.956	24814
839.094	24817
839.231	24852
839.369	24962
839.506	25122
839.643	24962
839.781	24772
839.918	24768
840.055	24703
840.193	24783
840.33	24673
840.467	24707
840.604	24711
840.742	24920
840.879	24505
841.016	24601
841.153	24570
841.29	24810
841.427	24635
841.564	24696
841.701	24642
841.838	24574
841.975	24528
842.112	24692
842.249	24479
842.385	24486
842.522	24677
842.659	24517
842.796	24498
842.933	24559
843.069	24357
843.206	24475
843.343	24536
843.479	24528
843.616	24521
843.752	24155
843.889	24091
844.025	24289
844.162	24190
844.298	24357
844.435	24285
844.571	24159
844.708	24194
844.844	24273
844.98	24334
845.117	24369
845.253	24163
845.389	24091
845.525	24140
845.661	24068
845.798	23988
845.934	23980
846.07	23969
846.206	23977
846.342	24117
846.478	23988
846.614	23699
846.75	23585
846.886	23707
847.022	23745
847.158	23756
847.294	23672
847.429	23733
847.565	23722
847.701	23843
847.837	23395
847.972	23379
848.108	23551
848.244	23406
848.379	23345
848.515	23254
848.65	23208
848.786	23341
848.921	23318
849.057	23341
849.192	23406
849.328	23280
849.463	23181
849.598	23216
849.734	23296
849.869	23174
850.004	22987
850.14	22987
850.275	23037
850.41	22972
850.545	23037
850.68	23098
850.815	23052
850.95	22976
851.085	23254
851.22	23147
851.355	23079
851.49	22957
851.625	22995
851.76	22949
851.895	22980
852.03	23037
852.165	22946
852.299	23090
852.434	23003
852.569	23094
852.703	23003
852.838	23098
852.973	23136
853.107	23204
853.242	23010
853.376	22881
853.511	22675
853.645	22694
853.78	22953
853.914	22896
854.048	22904
854.183	22938
854.317	22999
854.451	23094
854.585	22965
854.72	22896
854.854	22980
854.988	22835
855.122	22930
855.256	22831
855.39	22835
855.524	22805
855.658	22972
855.792	22771
855.926	22946
856.06	22961
856.194	23025
856.327	22854
856.461	22683
856.595	22839
856.729	22892
856.862	22919
856.996	22881
857.13	22976
857.263	23044
857.397	22987
857.53	22843
857.664	22896
857.797	22885
857.931	22957
858.064	22911
858.197	22847
858.331	22877
858.464	22786
858.597	22717
858.731	22866
858.864	22744
858.997	22904
859.13	22801
859.263	22786
859.396	22972
859.529	22733
859.662	22801
859.795	22816
859.928	22729
860.061	23018
860.194	22923
860.327	22812
860.46	22877
860.592	22934
860.725	23018
860.858	23067
860.99	22763
861.123	22843
861.256	22839
861.388	22869
861.521	23368
861.653	22687
861.786	22641
861.918	22778
862.05	22675
862.183	22748
862.315	22725
862.447	22850
862.58	22771
862.712	22675
862.844	22478
862.976	22565
863.108	22679
863.24	22938
863.372	22470
863.504	22470
863.636	22622
863.768	22637
863.9	22535
864.032	22527
864.164	22421
864.296	22512
864.428	22588
864.559	22653
864.691	22569
864.823	22554
864.954	22527
865.086	22512
865.217	22417
865.349	22287
865.48	22371
865.612	22546
865.743	22478
865.875	22459
866.006	22443
866.137	22508
866.269	22508
866.4	22322
866.531	22394
866.662	22192
866.793	22306
866.924	22318
867.055	22508
867.186	22375
867.317	22318
867.448	22261
867.579	22356
867.71	22177
867.841	22215
867.972	22337
868.103	22299
868.233	22352
868.364	22398
868.495	22424
868.625	22618
868.756	22618
868.886	22519
869.017	22485
869.147	22637
869.278	22713
869.408	22596
869.539	22592
869.669	22698
869.799	22622
869.929	22607
870.06	22679
870.19	22991
870.32	22847
870.45	23048
870.58	22812
870.71	23124
870.84	23136
870.97	23037
871.1	22942
871.23	23109
871.36	23151
871.489	23079
871.619	23174
871.749	23136
871.879	23208
872.008	23235
872.138	23147
872.267	23185
872.397	23025
872.526	23079
872.656	23083
872.785	23014
872.915	23185
873.044	23265
873.173	23155
873.303	23334
873.432	23265
873.561	23265
873.69	23200
873.819	23132
873.948	23246
874.077	23174
874.206	23029
874.335	23239
874.464	23235
874.593	23448
874.722	23372
874.851	23326
874.979	23486
875.108	23482
875.237	23440
875.365	23227
875.494	23406
875.623	23501
875.751	23334
875.88	23471
876.008	23387
876.136	23535
876.265	23874
876.393	23935
876.521	23813
876.65	23874
876.778	23809
876.906	23843
877.034	23794
877.162	23703
877.29	23752
877.418	23703
877.546	23817
877.674	23821
877.802	23737
877.93	23745
878.058	23672
878.185	23604
878.313	23687
878.441	23714
878.568	23634
878.696	23687
878.824	23707
878.951	23805
879.079	23897
879.206	24015
879.333	23897
879.461	23794
879.588	23851
879.715	24041
879.842	24064
879.97	23817
880.097	23539
880.224	23608
880.351	23558
880.478	23562
880.605	23531
880.732	23543
880.859	23836
880.986	23672
881.112	23566
881.239	23471
881.366	23315
881.493	23147
881.619	23223
881.746	23056
881.872	23140
881.999	23060
882.125	23124
882.252	23170
882.378	23147
882.505	23208
882.631	22930
882.757	22904
882.883	22824
883.01	22889
883.136	22683
883.262	22569
883.388	22672
883.514	22774
883.64	22847
883.766	22713
883.892	22462
884.018	22641
884.143	22675
884.269	22828
884.395	22436
884.52	22424
884.646	22371
884.772	22405
884.897	22265
885.023	22398
885.148	22455
885.274	22459
885.399	22474
885.524	22398
885.65	22500
885.775	22295
885.9	22413
886.025	22599
886.15	22550
886.275	22398
886.4	22223
886.525	22516
886.65	22306
886.775	22398
886.9	22451
887.025	22702
887.149	22386
887.274	22257
887.399	22131
887.523	22143
887.648	22070
887.773	22128
887.897	22265
888.021	22109
888.146	22124
888.27	22276
888.395	22192
888.519	22131
888.643	22185
888.767	22177
888.891	22120
889.015	21949
889.139	21987
889.263	21987
889.387	22147
889.511	22166
889.635	22006
889.759	21895
889.883	21937
890.006	22006
890.13	22112
890.254	21812
890.377	21899
890.501	21785
890.624	21652
890.748	21876
890.871	21549
890.995	21389
891.118	21511
891.241	21530
891.364	21500
891.488	21660
891.611	21439
891.734	21587
891.857	21492
891.98	21492
892.103	21542
892.226	21424
892.349	21485
892.471	21241
892.594	21526
892.717	21424
892.839	21382
892.962	21393
893.085	21534
893.207	21382
893.33	21355
893.452	21367
893.575	21526
893.697	21382
893.819	21469
893.941	21397
894.064	21507
894.186	21264
894.308	21302
894.43	21431
894.552	21500
894.674	21443
894.796	21340
894.918	21344
895.04	21340
895.161	21382
895.283	21405
895.405	21268
895.526	21348
895.648	21310
895.769	21332
895.891	21283
896.012	21367
896.134	21363
896.255	21340
896.376	21260
896.498	21405
896.619	21351
896.74	21378
896.861	21348
896.982	21682
897.103	21838
897.224	21644
897.345	21542
897.466	21477
897.587	21572
897.708	21671
897.828	21561
897.949	21488
898.07	21408
898.19	21374
898.311	21549
898.431	21606
898.552	21469
898.672	21568
898.792	21599
898.913	21682
899.033	21374
899.153	21332
899.273	21192
899.393	21154
899.513	21294
899.633	21321
899.753	21188
899.873	21192
899.993	21317
900.113	21119
900.232	21188
900.352	21226
900.472	21096
900.591	20998
900.711	21154
900.83	21024
900.95	21256
901.069	21173
901.189	20796
901.308	20670
901.427	20670
901.546	20598
901.665	20579
901.784	20560
901.904	20514
902.023	20263
902.141	20225
902.26	20180
902.379	20343
902.498	20149
902.617	20035
902.735	20142
902.854	20073
902.973	19978
903.091	19784
903.21	19719
903.328	19677
903.446	19772
903.565	19559
903.683	19624
903.801	19422
903.919	19521
904.038	19575
904.156	19350
904.274	19396
904.392	19278
904.51	19228
904.627	19266
904.745	19285
904.863	19308
904.981	19194
905.098	18943
905.216	19057
905.334	18932
905.451	18973
905.569	18989
905.686	19019
905.803	18970
905.921	18783
906.038	18833
906.155	18859
906.272	18585
906.389	18707
906.506	18464
906.623	18616
906.74	18479
906.857	18418
906.974	18380
907.091	18532
907.208	18612
907.324	18483
907.441	18384
907.557	18243
907.674	18186
907.79	18167
907.907	18197
908.023	18182
908.139	18186
908.256	18178
908.372	18022
908.488	18117
908.604	18007
908.72	17874
908.836	18007
908.952	17885
909.068	17893
909.184	17988
909.3	17927
909.415	18007
909.531	17893
909.647	17687
909.762	17665
909.878	17554
909.993	17562
910.108	17581
910.224	17535
910.339	17539
910.454	17356
910.57	17452
910.685	17368
910.8	17570
910.915	17581
911.03	17501
911.145	17273
911.259	17189
911.374	17181
911.489	17102
911.604	17010
911.718	16911
911.833	16995
911.947	16824
912.062	16812
912.176	16976
912.291	16987
912.405	16854
912.519	17102
912.633	17003
912.748	17052
912.862	16965
912.976	16812
913.09	16641
913.204	16668
913.318	16664
913.431	16790
913.545	16831
913.659	16854
913.772	16713
913.886	16527
914	16577
914.113	16516
914.226	16535
914.34	16618
914.453	16386
914.566	16462
914.68	16428
914.793	16367
914.906	16147
915.019	16135
915.132	15998
915.245	16006
915.358	16051
915.47	16006
915.583	16101
915.696	16097
915.809	16188
915.921	16238
916.034	16006
916.146	15975
916.259	15987
916.371	15964
916.483	15991
916.595	15865
916.708	15911
916.82	15926
916.932	15876
917.044	15827
917.156	15835
917.268	15766
917.38	15709
917.491	15770
917.603	15675
917.715	15789
917.826	15793
917.938	15591
918.049	15534
918.161	15564
918.272	15709
918.384	15759
918.495	15599
918.606	15496
918.717	15389
918.828	15542
918.939	15572
919.05	15408
919.161	15431
919.272	15211
919.383	15340
919.494	15511
919.604	15705
919.715	15447
919.826	15275
919.936	15367
920.047	15469
920.157	15393
920.267	15488
920.378	15393
920.488	15363
920.598	15564
920.708	15637
920.818	15367
920.928	15462
921.038	15652
921.148	15713
921.258	15237
921.368	15287
921.477	15131
921.587	15066
921.697	15013
921.806	15127
921.916	15028
922.025	14758
922.134	14758
922.244	14651
922.353	14754
922.462	14648
922.571	14568
922.68	14328
922.789	14377
922.898	14374
923.007	14298
923.116	14374
923.224	14431
923.333	14370
923.442	14168
923.55	14161
923.659	14309
923.767	14294
923.876	14157
923.984	14332
924.092	14161
924.201	14111
924.309	14107
924.417	14077
924.525	14035
924.633	14016
924.741	14921
924.849	13856
924.956	13982
925.064	13765
925.172	13723
925.279	13742
925.387	13791
925.494	13719
925.602	13811
925.709	13681
925.816	13651
925.924	13776
926.031	13731
926.138	13715
926.245	13738
926.352	13590
926.459	13791
926.566	13746
926.673	13662
926.779	13430
926.886	13510
926.993	13308
927.099	13419
927.206	13228
927.312	13255
927.419	13327
927.525	13289
927.631	13285
927.737	13133
927.843	13129
927.95	12954
928.056	13000
928.162	13095
928.267	13145
928.373	13776
928.479	13274
928.585	12882
928.69	13038
928.796	13133
928.901	12848
929.007	12768
929.112	12939
929.218	12909
929.323	12722
929.428	12817
929.533	12867
929.638	12665
929.743	12677
929.848	12715
929.953	12817
930.058	12673
930.163	12509
930.267	12490
930.372	12608
930.477	12456
930.581	12616
930.685	12540
930.79	12334
930.894	12380
930.998	12254
931.103	12437
931.207	12079
931.311	12064
931.415	11931
931.519	11684
931.623	11634
