Data from test_V78500241_2796.txt Node
Date: Fri Mar 25 16:01:10 CST 2022
User: usil
Spectrometer: V785-0024
Trigger mode: 0
Integration Time (sec): 4.000000E-1
Scans to average: 1
Nonlinearity correction enabled: false
Boxcar width: 0
Storing dark spectrum: false
XAxis mode: Wavelengths
Number of Pixels in Spectrum: 1024
>>>>>Begin Spectral Data<<<<<
801.071	29075
801.214	28942
801.356	28755
801.499	28759
801.641	28653
801.783	28649
801.926	28831
802.068	28702
802.211	28535
802.353	28512
802.496	28565
802.638	28478
802.78	28322
802.923	28352
803.065	28375
803.208	28322
803.35	28360
803.492	28637
803.635	28588
803.777	28474
803.919	28725
804.061	28942
804.204	28653
804.346	28748
804.488	28618
804.63	28569
804.773	28573
804.915	28698
805.057	28630
805.199	28752
805.341	28653
805.483	28809
805.626	28892
805.768	28694
805.91	28877
806.052	28790
806.194	28816
806.336	28987
806.478	28752
806.62	28805
806.762	28930
806.904	29033
807.046	29349
807.188	29227
807.33	29318
807.472	29311
807.614	29193
807.756	29417
807.898	29140
808.04	29105
808.182	29094
808.324	29212
808.465	29261
808.607	29436
808.749	29497
808.891	29653
809.033	29729
809.174	29547
809.316	29623
809.458	29520
809.6	29368
809.741	29589
809.883	29661
810.025	29916
810.166	29874
810.308	29756
810.45	29741
810.591	29779
810.733	29615
810.875	29516
811.016	29459
811.158	29501
811.299	29539
811.441	29558
811.582	29779
811.724	29676
811.865	29417
812.007	29630
812.148	29512
812.29	29668
812.431	29794
812.573	29817
812.714	29942
812.855	30072
812.997	30285
813.138	30232
813.279	30266
813.421	30060
813.562	30091
813.703	29847
813.845	29767
813.986	29417
814.127	29444
814.268	29181
814.41	29311
814.551	29258
814.692	29360
814.833	29197
814.974	29235
815.115	29330
815.256	29166
815.397	29174
815.539	29189
815.68	29102
815.821	29060
815.962	29204
816.103	29079
816.244	29052
816.385	28843
816.526	28862
816.666	28630
816.807	28542
816.948	28767
817.089	28843
817.23	28668
817.371	28717
817.512	28691
817.653	28634
817.793	28516
817.934	28679
818.075	28607
818.216	28618
818.356	28588
818.497	28466
818.638	28344
818.778	28436
818.919	28280
819.06	28386
819.2	28470
819.341	28569
819.481	28660
819.622	28790
819.762	29060
819.903	28668
820.043	28908
820.184	28733
820.324	28797
820.465	28839
820.605	28839
820.746	28683
820.886	28588
821.026	28774
821.167	28653
821.307	28835
821.447	28698
821.588	28535
821.728	28375
821.868	28291
822.008	28029
822.149	28143
822.289	28166
822.429	27838
822.569	28025
822.709	27789
822.849	27583
822.99	27705
823.13	27542
823.27	27690
823.41	27534
823.55	27336
823.69	27534
823.83	27336
823.97	27485
824.11	27207
824.25	27279
824.389	27348
824.529	27272
824.669	27310
824.809	27336
824.949	27306
825.089	27325
825.228	27237
825.368	27154
825.508	26986
825.648	27108
825.787	27298
825.927	27184
826.067	27093
826.206	27123
826.346	27233
826.485	27306
826.625	27123
826.765	27241
826.904	27211
827.044	26940
827.183	26956
827.323	26982
827.462	26940
827.601	26895
827.741	26769
827.88	26880
828.02	26811
828.159	26724
828.298	26861
828.437	26918
828.577	26910
828.716	26902
828.855	26796
828.994	26571
829.134	26583
829.273	26590
829.412	26469
829.551	26663
829.69	26682
829.829	26560
829.968	26663
830.107	26606
830.246	26571
830.385	26617
830.524	26571
830.663	26374
830.802	26347
830.941	26081
831.08	26145
831.219	26271
831.357	26244
831.496	26446
831.635	26214
831.774	26077
831.913	26065
832.051	26031
832.19	26016
832.329	25906
832.467	25883
832.606	25772
832.744	25890
832.883	25860
833.022	25818
833.16	25826
833.299	25833
833.437	25845
833.576	25944
833.714	25826
833.852	26039
833.991	25921
834.129	26020
834.267	25928
834.406	25795
834.544	25856
834.682	26039
834.821	25807
834.959	26050
835.097	26050
835.235	25928
835.373	25993
835.511	25784
835.65	25670
835.788	25879
835.926	25544
836.064	25559
836.202	25639
836.34	25784
836.478	25723
836.615	25731
836.753	25639
836.891	25822
837.029	25712
837.167	25734
837.305	25571
837.443	25567
837.58	25533
837.718	25616
837.856	25601
837.993	25502
838.131	25514
838.269	25369
838.406	25438
838.544	25331
838.681	25194
838.819	25076
838.956	25065
839.094	25072
839.231	25050
839.369	25088
839.506	25381
839.643	25247
839.781	24951
839.918	25019
840.055	25004
840.193	24973
840.33	24791
840.467	24928
840.604	24916
840.742	25240
840.879	24817
841.016	24795
841.153	24795
841.29	24954
841.427	24920
841.564	24977
841.701	24867
841.838	24798
841.975	24776
842.112	24844
842.249	24776
842.385	24658
842.522	24966
842.659	24722
842.796	24681
842.933	24684
843.069	24772
843.206	24703
843.343	24700
843.479	24601
843.616	24532
843.752	24296
843.889	24555
844.025	24616
844.162	24407
844.298	24502
844.435	24323
844.571	24407
844.708	24540
844.844	24414
844.98	24604
845.117	24509
845.253	24483
845.389	24232
845.525	24467
845.661	24285
845.798	24178
845.934	24289
846.07	24205
846.206	24163
846.342	24285
846.478	24102
846.614	23935
846.75	23779
846.886	23783
847.022	23942
847.158	23889
847.294	23840
847.429	23874
847.565	23878
847.701	24152
847.837	23516
847.972	23570
848.108	23748
848.244	23802
848.379	23509
848.515	23592
848.65	23436
848.786	23573
848.921	23471
849.057	23562
849.192	23570
849.328	23516
849.463	23520
849.598	23296
849.734	23406
849.869	23242
850.004	23140
850.14	23254
850.275	23280
850.41	23128
850.545	23288
850.68	23212
850.815	23246
850.95	23143
851.085	23303
851.22	23239
851.355	23296
851.49	23277
851.625	23277
851.76	23265
851.895	23109
852.03	23174
852.165	23178
852.299	23383
852.434	23395
852.569	23216
852.703	23200
852.838	23250
852.973	23455
853.107	23315
853.242	23022
853.376	23223
853.511	22991
853.645	22995
853.78	23140
853.914	23128
854.048	23037
854.183	23113
854.317	23056
854.451	23292
854.585	23056
854.72	23105
854.854	23166
854.988	23060
855.122	23056
855.256	22881
855.39	22987
855.524	23185
855.658	23109
855.792	22915
855.926	22999
856.06	23098
856.194	23239
856.327	23056
856.461	22976
856.595	23014
856.729	23048
856.862	23121
856.996	23170
857.13	23041
857.263	23277
857.397	23151
857.53	23064
857.664	23185
857.797	23090
857.931	23193
858.064	23029
858.197	23067
858.331	23147
858.464	22965
858.597	22908
858.731	22934
858.864	23010
858.997	22987
859.13	22953
859.263	23056
859.396	23208
859.529	22938
859.662	22980
859.795	22828
859.928	23075
860.061	23170
860.194	23364
860.327	23124
860.46	23166
860.592	23254
860.725	23231
860.858	23151
860.99	23064
861.123	22881
861.256	23010
861.388	23029
861.521	23786
861.653	22934
861.786	22828
861.918	22839
862.05	22946
862.183	22911
862.315	22999
862.447	22919
862.58	22919
862.712	22831
862.844	22824
862.976	22908
863.108	22744
863.24	23227
863.372	22641
863.504	22744
863.636	22713
863.768	22748
863.9	22805
864.032	22805
864.164	22668
864.296	22660
864.428	22968
864.559	22820
864.691	22812
864.823	22854
864.954	22801
865.086	22637
865.217	22729
865.349	22577
865.48	22569
865.612	22607
865.743	22675
865.875	22588
866.006	22706
866.137	22656
866.269	22615
866.4	22630
866.531	22455
866.662	22508
866.793	22462
866.924	22440
867.055	22580
867.186	22417
867.317	22557
867.448	22360
867.579	22478
867.71	22500
867.841	22413
867.972	22546
868.103	22462
868.233	22607
868.364	22630
868.495	22630
868.625	22771
868.756	22923
868.886	22713
869.017	22744
869.147	22759
869.278	22927
869.408	22759
869.539	22805
869.669	22908
869.799	23018
869.929	23006
870.06	22862
870.19	23140
870.32	23010
870.45	22961
870.58	23185
870.71	23356
870.84	23440
870.97	23246
871.1	23185
871.23	23376
871.36	23452
871.489	23277
871.619	23341
871.749	23318
871.879	23383
872.008	23490
872.138	23436
872.267	23493
872.397	23341
872.526	23296
872.656	23318
872.785	23246
872.915	23440
873.044	23600
873.173	23383
873.303	23512
873.432	23391
873.561	23516
873.69	23554
873.819	23455
873.948	23467
874.077	23436
874.206	23467
874.335	23429
874.464	23490
874.593	23611
874.722	23642
874.851	23592
874.979	23535
875.108	23703
875.237	23668
875.365	23455
875.494	23703
875.623	23726
875.751	23657
875.88	23760
876.008	23794
876.136	23859
876.265	24083
876.393	24072
876.521	24015
876.65	24114
876.778	24030
876.906	23965
877.034	24076
877.162	24083
877.29	23939
877.418	23946
877.546	24011
877.674	24003
877.802	24095
877.93	23946
878.058	23684
878.185	23840
878.313	23954
878.441	23969
878.568	23980
878.696	23878
878.824	23992
878.951	24174
879.079	24068
879.206	24357
879.333	24239
879.461	23939
879.588	24018
879.715	24091
879.842	24209
879.97	24034
880.097	23843
880.224	23729
880.351	23748
880.478	23855
880.605	23779
880.732	23904
880.859	24018
880.986	23779
881.112	23805
881.239	23676
881.366	23634
881.493	23547
881.619	23520
881.746	23387
881.872	23337
881.999	23235
882.125	23284
882.252	23372
882.378	23315
882.505	23406
882.631	23296
882.757	23060
882.883	23197
883.01	22949
883.136	22984
883.262	22816
883.388	22843
883.514	23105
883.64	23006
883.766	22847
883.892	22831
884.018	22831
884.143	22972
884.269	22965
884.395	22812
884.52	22626
884.646	22611
884.772	22637
884.897	22535
885.023	22653
885.148	22656
885.274	22763
885.399	22790
885.524	22653
885.65	22561
885.775	22668
885.9	22668
886.025	22850
886.15	22744
886.275	22516
886.4	22481
886.525	22561
886.65	22618
886.775	22618
886.9	22744
887.025	22771
887.149	22599
887.274	22382
887.399	22421
887.523	22417
887.648	22379
887.773	22299
887.897	22546
888.021	22352
888.146	22375
888.27	22409
888.395	22443
888.519	22424
888.643	22443
888.767	22489
888.891	22333
889.015	22101
889.139	22230
889.263	22211
889.387	22436
889.511	22299
889.635	22310
889.759	22128
889.883	22067
890.006	22230
890.13	22470
890.254	22147
890.377	22090
890.501	21975
890.624	21831
890.748	21895
890.871	21800
890.995	21785
891.118	21804
891.241	21732
891.364	21644
891.488	21876
891.611	21701
891.734	21682
891.857	21785
891.98	21641
892.103	21637
892.226	21713
892.349	21625
892.471	21492
892.594	21671
892.717	21766
892.839	21682
892.962	21690
893.085	21652
893.207	21682
893.33	21469
893.452	21488
893.575	21698
893.697	21656
893.819	21793
893.941	21766
894.064	21823
894.186	21576
894.308	21553
894.43	21599
894.552	21747
894.674	21591
894.796	21450
894.918	21553
895.04	21603
895.161	21641
895.283	21644
895.405	21538
895.526	21526
895.648	21671
895.769	21526
895.891	21458
896.012	21599
896.134	21580
896.255	21663
896.376	21500
896.498	21564
896.619	21606
896.74	21633
896.861	21637
896.982	21895
897.103	22002
897.224	21736
897.345	21739
897.466	21587
897.587	21797
897.708	21869
897.828	21770
897.949	21633
898.07	21538
898.19	21637
898.311	21865
898.431	21720
898.552	21663
898.672	21827
898.792	21770
898.913	21705
899.033	21690
899.153	21557
899.273	21408
899.393	21538
899.513	21454
899.633	21458
899.753	21431
899.873	21477
899.993	21507
900.113	21443
900.232	21340
900.352	21302
900.472	21291
900.591	21173
900.711	21237
900.83	21214
900.95	21477
901.069	21283
901.189	21138
901.308	20895
901.427	20899
901.546	20895
901.665	20861
901.784	20773
901.904	20689
902.023	20549
902.141	20362
902.26	20286
902.379	20492
902.498	20423
902.617	20195
902.735	20305
902.854	20259
902.973	20073
903.091	19989
903.21	19963
903.328	19940
903.446	19913
903.565	19811
903.683	19772
903.801	19567
903.919	19677
904.038	19639
904.156	19552
904.274	19616
904.392	19518
904.51	19468
904.627	19426
904.745	19453
904.863	19548
904.981	19266
905.098	19187
905.216	19015
905.334	19202
905.451	19179
905.569	19072
905.686	19206
905.803	19126
905.921	18943
906.038	19065
906.155	19008
906.272	18863
906.389	18772
906.506	18779
906.623	18669
906.74	18650
906.857	18677
906.974	18604
907.091	18612
907.208	18844
907.324	18715
907.441	18494
907.557	18479
907.674	18448
907.79	18399
907.907	18414
908.023	18292
908.139	18456
908.256	18285
908.372	18273
908.488	18174
908.604	18136
908.72	18045
908.836	18201
908.952	18121
909.068	18064
909.184	18266
909.3	18095
909.415	18095
909.531	18281
909.647	17901
909.762	17870
909.878	17783
909.993	17874
910.108	17726
910.224	17752
910.339	17707
910.454	17703
910.57	17551
910.685	17520
910.8	17733
910.915	17722
911.03	17509
911.145	17429
911.259	17368
911.374	17284
911.489	17235
911.604	17200
911.718	17193
911.833	17113
911.947	16984
912.062	16923
912.176	17128
912.291	17056
912.405	17048
912.519	17231
912.633	17349
912.748	17128
912.862	17067
912.976	16946
913.09	16847
913.204	16896
913.318	16866
913.431	16934
913.545	16919
913.659	17064
913.772	16919
913.886	16828
914	16641
914.113	16790
914.226	16869
914.34	16752
914.453	16580
914.566	16725
914.68	16615
914.793	16592
914.906	16375
915.019	16303
915.132	16211
915.245	16238
915.358	16310
915.47	16196
915.583	16265
915.696	16177
915.809	16272
915.921	16242
916.034	16287
916.146	16139
916.259	16143
916.371	16200
916.483	16173
916.595	16154
916.708	16135
916.82	16055
916.932	16063
917.044	15968
917.156	15987
917.268	15895
917.38	15899
917.491	15797
917.603	15827
917.715	15953
917.826	15857
917.938	15857
918.049	15743
918.161	15850
918.272	15876
918.384	15953
918.495	15812
918.606	15614
918.717	15538
918.828	15724
918.939	15633
919.05	15599
919.161	15595
919.272	15241
919.383	15496
919.494	15568
919.604	15770
919.715	15587
919.826	15595
919.936	15507
920.047	15599
920.157	15705
920.267	15679
920.378	15530
920.488	15473
920.598	15652
920.708	15819
920.818	15679
920.928	15603
921.038	15876
921.148	15804
921.258	15389
921.368	15306
921.477	15279
921.587	15325
921.697	15116
921.806	15264
921.916	15199
922.025	15005
922.134	14861
922.244	14792
922.353	15013
922.462	14739
922.571	14651
922.68	14560
922.789	14499
922.898	14507
923.007	14495
923.116	14495
923.224	14427
923.333	14552
923.442	14377
923.55	14313
923.659	14351
923.767	14370
923.876	14240
923.984	14328
924.092	14263
924.201	14305
924.309	14252
924.417	14199
924.525	14252
924.633	14191
924.741	15058
924.849	13963
924.956	14126
925.064	13909
925.172	13841
925.279	13917
925.387	13917
925.494	13913
925.602	14020
925.709	13940
925.816	13860
925.924	13909
926.031	13894
926.138	13818
926.245	13947
926.352	13704
926.459	13826
926.566	13887
926.673	13655
926.779	13597
926.886	13567
926.993	13434
927.099	13476
927.206	13419
927.312	13445
927.419	13491
927.525	13388
927.631	13518
927.737	13270
927.843	13244
927.95	13114
928.056	13263
928.162	13228
928.267	13343
928.373	13769
928.479	13335
928.585	12973
928.69	13110
928.796	13179
928.901	13126
929.007	12859
929.112	12939
929.218	13034
929.323	12996
929.428	12913
929.533	13095
929.638	12905
929.743	12821
929.848	12844
929.953	12875
930.058	12741
930.163	12532
930.267	12517
930.372	12635
930.477	12525
930.581	12795
930.685	12620
930.79	12486
930.894	12437
930.998	12528
931.103	12585
931.207	12186
931.311	12117
931.415	12121
931.519	11847
931.623	11813
