Data from test_V78500241_883.txt Node
Date: Fri Mar 25 15:47:55 CST 2022
User: usil
Spectrometer: V785-0024
Trigger mode: 0
Integration Time (sec): 4.000000E-1
Scans to average: 1
Nonlinearity correction enabled: false
Boxcar width: 0
Storing dark spectrum: false
XAxis mode: Wavelengths
Number of Pixels in Spectrum: 1024
>>>>>Begin Spectral Data<<<<<
801.071	28162
801.214	28055
801.356	27789
801.499	27766
801.641	27701
801.783	27709
801.926	27774
802.068	27895
802.211	27675
802.353	27515
802.496	27420
802.638	27306
802.78	27359
802.923	27348
803.065	27329
803.208	27344
803.35	27416
803.492	27382
803.635	27538
803.777	27447
803.919	27412
804.061	27953
804.204	27572
804.346	27519
804.488	27530
804.63	27618
804.773	27515
804.915	27519
805.057	27667
805.199	27644
805.341	27663
805.483	27899
805.626	27682
805.768	27701
805.91	27644
806.052	27698
806.194	27667
806.336	27899
806.478	27781
806.62	27690
806.762	27873
806.904	27884
807.046	28169
807.188	28173
807.33	28204
807.472	28207
807.614	28169
807.756	28093
807.898	27907
808.04	27960
808.182	27953
808.324	28036
808.465	28063
808.607	28131
808.749	28466
808.891	28459
809.033	28535
809.174	28401
809.316	28413
809.458	28390
809.6	28436
809.741	28516
809.883	28466
810.025	28713
810.166	28577
810.308	28546
810.45	28713
810.591	28531
810.733	28424
810.875	28371
811.016	28253
811.158	28360
811.299	28432
811.441	28546
811.582	28596
811.724	28451
811.865	28268
812.007	28413
812.148	28394
812.29	28428
812.431	28554
812.573	28706
812.714	28740
812.855	28892
812.997	28900
813.138	29212
813.279	28957
813.421	28980
813.562	28961
813.703	28771
813.845	28588
813.986	28432
814.127	28177
814.268	28055
814.41	28070
814.551	28230
814.692	28105
814.833	27922
814.974	28055
815.115	27873
815.256	27846
815.397	27941
815.539	27888
815.68	27911
815.821	27926
815.962	27755
816.103	27972
816.244	27850
816.385	27762
816.526	27641
816.666	27542
816.807	27374
816.948	27488
817.089	27633
817.23	27401
817.371	27389
817.512	27344
817.653	27321
817.793	27260
817.934	27344
818.075	27485
818.216	27412
818.356	27195
818.497	27287
818.638	27279
818.778	27150
818.919	27116
819.06	27211
819.2	27279
819.341	27447
819.481	27340
819.622	27534
819.762	27831
819.903	27644
820.043	27583
820.184	27405
820.324	27473
820.465	27637
820.605	27435
820.746	27511
820.886	27427
821.026	27462
821.167	27523
821.307	27500
821.447	27298
821.588	27310
821.728	27119
821.868	27043
822.008	26948
822.149	26872
822.289	26754
822.429	26541
822.569	26621
822.709	26583
822.849	26324
822.99	26389
823.13	26336
823.27	26347
823.41	26210
823.55	25955
823.69	26218
823.83	26183
823.97	26214
824.11	26111
824.25	26035
824.389	26142
824.529	26054
824.669	26043
824.809	26138
824.949	26191
825.089	26168
825.228	25944
825.368	25947
825.508	25852
825.648	25811
825.787	25989
825.927	25989
826.067	26035
826.206	25921
826.346	25940
826.485	25917
826.625	25879
826.765	25989
826.904	26005
827.044	25658
827.183	25620
827.323	25605
827.462	25677
827.601	25514
827.741	25552
827.88	25715
828.02	25472
828.159	25552
828.298	25544
828.437	25651
828.577	25552
828.716	25578
828.855	25609
828.994	25308
829.134	25301
829.273	25373
829.412	25354
829.551	25225
829.69	25331
829.829	25312
829.968	25373
830.107	25384
830.246	25221
830.385	25304
830.524	25228
830.663	25122
830.802	25084
830.941	24897
831.08	24867
831.219	25008
831.357	24935
831.496	25023
831.635	25023
831.774	24798
831.913	24802
832.051	24700
832.19	24612
832.329	24673
832.467	24642
832.606	24597
832.744	24536
832.883	24555
833.022	24658
833.16	24608
833.299	24654
833.437	24570
833.576	24707
833.714	24684
833.852	24734
833.991	24646
834.129	24719
834.267	24741
834.406	24563
834.544	24646
834.682	24783
834.821	24544
834.959	24837
835.097	24639
835.235	24711
835.373	24635
835.511	24650
835.65	24467
835.788	24536
835.926	24407
836.064	24285
836.202	24311
836.34	24555
836.478	24623
836.615	24407
836.753	24384
836.891	24448
837.029	24532
837.167	24365
837.305	24342
837.443	24403
837.58	24357
837.718	24319
837.856	24338
837.993	24205
838.131	24136
838.269	24186
838.406	24251
838.544	24216
838.681	23923
838.819	24030
838.956	23923
839.094	23756
839.231	23824
839.369	23965
839.506	24273
839.643	24072
839.781	23745
839.918	23889
840.055	23824
840.193	23779
840.33	23661
840.467	23760
840.604	23684
840.742	24053
840.879	23486
841.016	23611
841.153	23497
841.29	23893
841.427	23786
841.564	23718
841.701	23653
841.838	23646
841.975	23547
842.112	23570
842.249	23482
842.385	23455
842.522	23592
842.659	23638
842.796	23433
842.933	23417
843.069	23345
843.206	23364
843.343	23467
843.479	23471
843.616	23520
843.752	23094
843.889	23265
844.025	23497
844.162	23220
844.298	23284
844.435	23147
844.571	23025
844.708	23159
844.844	23277
844.98	23398
845.117	23307
845.253	23147
845.389	23147
845.525	23124
845.661	23060
845.798	22869
845.934	22965
846.07	22831
846.206	22968
846.342	23098
846.478	22793
846.614	22793
846.75	22660
846.886	22588
847.022	22744
847.158	22596
847.294	22706
847.429	22698
847.565	22611
847.701	23010
847.837	22341
847.972	22325
848.108	22561
848.244	22447
848.379	22147
848.515	22181
848.65	22150
848.786	22379
848.921	22356
849.057	22352
849.192	22348
849.328	22287
849.463	22363
849.598	22284
849.734	22177
849.869	22192
850.004	21994
850.14	22070
850.275	22086
850.41	21949
850.545	22044
850.68	21930
850.815	22173
850.95	21964
851.085	22169
851.22	22032
851.355	22017
851.49	22010
851.625	21975
851.76	21968
851.895	21869
852.03	21953
852.165	21975
852.299	22025
852.434	22120
852.569	21994
852.703	22074
852.838	22105
852.973	22021
853.107	22059
853.242	21899
853.376	21861
853.511	21861
853.645	21762
853.78	21975
853.914	21835
854.048	21762
854.183	21857
854.317	21911
854.451	22032
854.585	21804
854.72	21949
854.854	21865
854.988	21759
855.122	21850
855.256	21713
855.39	21766
855.524	21979
855.658	21823
855.792	21857
855.926	21895
856.06	21880
856.194	21964
856.327	21857
856.461	21713
856.595	21812
856.729	21785
856.862	21865
856.996	21922
857.13	21949
857.263	21991
857.397	21785
857.53	21892
857.664	21876
857.797	21922
857.931	22036
858.064	21949
858.197	21941
858.331	21876
858.464	21850
858.597	21671
858.731	21899
858.864	21888
858.997	21827
859.13	21816
859.263	21842
859.396	21888
859.529	21816
859.662	21804
859.795	21808
859.928	21918
860.061	22021
860.194	22032
860.327	22036
860.46	21937
860.592	22051
860.725	22097
860.858	21964
860.99	21892
861.123	21895
861.256	21854
861.388	21873
861.521	22569
861.653	21720
861.786	21705
861.918	21709
862.05	21774
862.183	21797
862.315	21850
862.447	21934
862.58	21682
862.712	21549
862.844	21561
862.976	21618
863.108	21515
863.24	22044
863.372	21561
863.504	21542
863.636	21599
863.768	21637
863.9	21591
864.032	21530
864.164	21599
864.296	21603
864.428	21728
864.559	21720
864.691	21698
864.823	21580
864.954	21481
865.086	21538
865.217	21504
865.349	21485
865.48	21496
865.612	21538
865.743	21553
865.875	21450
866.006	21477
866.137	21454
866.269	21344
866.4	21374
866.531	21325
866.662	21386
866.793	21370
866.924	21450
867.055	21439
867.186	21458
867.317	21473
867.448	21313
867.579	21431
867.71	21237
867.841	21275
867.972	21481
868.103	21408
868.233	21431
868.364	21504
868.495	21538
868.625	21526
868.756	21629
868.886	21644
869.017	21561
869.147	21747
869.278	21660
869.408	21622
869.539	21736
869.669	21751
869.799	21606
869.929	21720
870.06	21751
870.19	21956
870.32	21911
870.45	21968
870.58	22078
870.71	22120
870.84	22120
870.97	22025
871.1	22029
871.23	22207
871.36	22249
871.489	22093
871.619	22188
871.749	22230
871.879	22185
872.008	22322
872.138	22268
872.267	22196
872.397	22188
872.526	21968
872.656	22010
872.785	22059
872.915	22287
873.044	22310
873.173	22238
873.303	22344
873.432	22295
873.561	22322
873.69	22272
873.819	22306
873.948	22337
874.077	22173
874.206	22249
874.335	22284
874.464	22211
874.593	22455
874.722	22394
874.851	22485
874.979	22409
875.108	22440
875.237	22443
875.365	22348
875.494	22394
875.623	22523
875.751	22421
875.88	22466
876.008	22691
876.136	22664
876.265	22866
876.393	23113
876.521	22885
876.65	22934
876.778	22816
876.906	22831
877.034	22767
877.162	22805
877.29	22858
877.418	22854
877.546	22786
877.674	22957
877.802	22835
877.93	22790
878.058	22717
878.185	22599
878.313	22805
878.441	22790
878.568	22645
878.696	22706
878.824	22915
878.951	22942
879.079	22850
879.206	23044
879.333	22816
879.461	22877
879.588	22961
879.715	22896
879.842	22980
879.97	22847
880.097	22535
880.224	22550
880.351	22717
880.478	22706
880.605	22584
880.732	22641
880.859	22729
880.986	22573
881.112	22565
881.239	22440
881.366	22303
881.493	22246
881.619	22181
881.746	22173
881.872	22257
881.999	22131
882.125	22135
882.252	22303
882.378	22204
882.505	22265
882.631	22010
882.757	21873
882.883	21880
883.01	21911
883.136	21831
883.262	21789
883.388	21724
883.514	21892
883.64	21903
883.766	21781
883.892	21576
884.018	21606
884.143	21816
884.269	21861
884.395	21610
884.52	21500
884.646	21511
884.772	21481
884.897	21317
885.023	21652
885.148	21534
885.274	21564
885.399	21686
885.524	21477
885.65	21511
885.775	21625
885.9	21485
886.025	21583
886.15	21545
886.275	21431
886.4	21416
886.525	21405
886.65	21420
886.775	21408
886.9	21576
887.025	21644
887.149	21439
887.274	21317
887.399	21230
887.523	21260
887.648	21195
887.773	21252
887.897	21389
888.021	21260
888.146	21214
888.27	21321
888.395	21351
888.519	21348
888.643	21256
888.767	21412
888.891	21245
889.015	21157
889.139	21192
889.263	21104
889.387	21150
889.511	21416
889.635	21188
889.759	21127
889.883	21093
890.006	21096
890.13	20998
890.254	20960
890.377	21116
890.501	20815
890.624	20807
890.748	20807
890.871	20724
890.995	20659
891.118	20621
891.241	20712
891.364	20754
891.488	20773
891.611	20716
891.734	20575
891.857	20670
891.98	20701
892.103	20724
892.226	20636
892.349	20583
892.471	20457
892.594	20609
892.717	20609
892.839	20644
892.962	20469
893.085	20606
893.207	20541
893.33	20438
893.452	20442
893.575	20625
893.697	20549
893.819	20701
893.941	20727
894.064	20670
894.186	20480
894.308	20476
894.43	20587
894.552	20777
894.674	20636
894.796	20442
894.918	20488
895.04	20469
895.161	20522
895.283	20518
895.405	20423
895.526	20526
895.648	20530
895.769	20533
895.891	20549
896.012	20609
896.134	20594
896.255	20522
896.376	20423
896.498	20560
896.619	20682
896.74	20625
896.861	20663
896.982	20880
897.103	20921
897.224	20804
897.345	20693
897.466	20773
897.587	20834
897.708	20887
897.828	20868
897.949	20727
898.07	20564
898.19	20807
898.311	20724
898.431	20716
898.552	20686
898.672	20815
898.792	20868
898.913	20667
899.033	20727
899.153	20530
899.273	20606
899.393	20442
899.513	20442
899.633	20552
899.753	20488
899.873	20522
899.993	20484
900.113	20518
900.232	20438
900.352	20408
900.472	20199
900.591	20267
900.711	20214
900.83	20149
900.95	20438
901.069	20343
901.189	20225
901.308	19894
901.427	19799
901.546	19902
901.665	19807
901.784	19784
901.904	19689
902.023	19666
902.141	19381
902.26	19350
902.379	19518
902.498	19369
902.617	19255
902.735	19343
902.854	19263
902.973	19206
903.091	19095
903.21	19008
903.328	19076
903.446	18905
903.565	18760
903.683	18837
903.801	18627
903.919	18768
904.038	18642
904.156	18604
904.274	18677
904.392	18589
904.51	18490
904.627	18555
904.745	18715
904.863	18585
904.981	18350
905.098	18327
905.216	18251
905.334	18254
905.451	18300
905.569	18190
905.686	18186
905.803	18308
905.921	17999
906.038	18117
906.155	18026
906.272	17961
906.389	18030
906.506	17764
906.623	17824
906.74	17809
906.857	17737
906.974	17642
907.091	17828
907.208	17885
907.324	17752
907.441	17653
907.557	17611
907.674	17596
907.79	17337
907.907	17391
908.023	17497
908.139	17497
908.256	17421
908.372	17322
908.488	17398
908.604	17345
908.72	17227
908.836	17239
908.952	17155
909.068	17250
909.184	17307
909.3	17197
909.415	17216
909.531	17208
909.647	17064
909.762	16896
909.878	16835
909.993	16999
910.108	16930
910.224	16896
910.339	16889
910.454	16664
910.57	16698
910.685	16664
910.8	16904
910.915	16801
911.03	16672
911.145	16481
911.259	16554
911.374	16398
911.489	16398
911.604	16299
911.718	16234
911.833	16287
911.947	16215
912.062	16082
912.176	16261
912.291	16295
912.405	16284
912.519	16322
912.633	16436
912.748	16295
912.862	16181
912.976	16173
913.09	15846
913.204	16029
913.318	16017
913.431	16086
913.545	16074
913.659	16135
913.772	16051
913.886	15884
914	15774
914.113	15941
914.226	15960
914.34	15880
914.453	15667
914.566	15880
914.68	15747
914.793	15720
914.906	15622
915.019	15500
915.132	15397
915.245	15420
915.358	15511
915.47	15477
915.583	15500
915.696	15424
915.809	15679
915.921	15564
916.034	15378
916.146	15294
916.259	15294
916.371	15294
916.483	15313
916.595	15245
916.708	15321
916.82	15264
916.932	15237
917.044	15203
917.156	15245
917.268	15154
917.38	15062
917.491	15005
917.603	15058
917.715	15173
917.826	15077
917.938	15047
918.049	14956
918.161	14933
918.272	15157
918.384	15241
918.495	15020
918.606	14956
918.717	14792
918.828	14826
918.939	14918
919.05	14727
919.161	14807
919.272	14636
919.383	14667
919.494	14807
919.604	14960
919.715	14796
919.826	14697
919.936	14842
920.047	14762
920.157	14796
920.267	14921
920.378	14804
920.488	14693
920.598	14967
920.708	15032
920.818	14933
920.928	14872
921.038	15116
921.148	14963
921.258	14731
921.368	14651
921.477	14514
921.587	14556
921.697	14431
921.806	14606
921.916	14328
922.025	14202
922.134	14271
922.244	14046
922.353	14259
922.462	14062
922.571	14027
922.68	13894
922.789	13837
922.898	13753
923.007	13689
923.116	13875
923.224	13753
923.333	13715
923.442	13597
923.55	13552
923.659	13655
923.767	13677
923.876	13552
923.984	13597
924.092	13460
924.201	13529
924.309	13540
924.417	13578
924.525	13548
924.633	13392
924.741	14381
924.849	13274
924.956	13339
925.064	13251
925.172	13171
925.279	13247
925.387	13244
925.494	13168
925.602	13335
925.709	13149
925.816	13122
925.924	13156
926.031	13240
926.138	13122
926.245	13149
926.352	13080
926.459	13156
926.566	13190
926.673	13145
926.779	12878
926.886	12935
926.993	12814
927.099	12677
927.206	12700
927.312	12700
927.419	12776
927.525	12692
927.631	12677
927.737	12677
927.843	12642
927.95	12578
928.056	12639
928.162	12684
928.267	12639
928.373	13202
928.479	12627
928.585	12388
928.69	12513
928.796	12486
928.901	12330
929.007	12315
929.112	12429
929.218	12429
929.323	12353
929.428	12292
929.533	12456
929.638	12216
929.743	12205
929.848	12175
929.953	12247
930.058	12114
930.163	11988
930.267	12022
930.372	12178
930.477	11950
930.581	12194
930.685	12079
930.79	11798
930.894	11847
930.998	11843
931.103	11946
931.207	11581
931.311	11524
931.415	11417
931.519	11220
931.623	11261
