Data from test_V78500241_2929.txt Node
Date: Fri Mar 25 16:02:05 CST 2022
User: usil
Spectrometer: V785-0024
Trigger mode: 0
Integration Time (sec): 4.000000E-1
Scans to average: 1
Nonlinearity correction enabled: false
Boxcar width: 0
Storing dark spectrum: false
XAxis mode: Wavelengths
Number of Pixels in Spectrum: 1024
>>>>>Begin Spectral Data<<<<<
801.071	28691
801.214	28573
801.356	28341
801.499	28344
801.641	28105
801.783	28082
801.926	28295
802.068	28249
802.211	28230
802.353	28139
802.496	27934
802.638	27911
802.78	27941
802.923	27899
803.065	27876
803.208	27899
803.35	27899
803.492	28143
803.635	27983
803.777	28086
803.919	28204
804.061	28519
804.204	28246
804.346	27949
804.488	28070
804.63	28086
804.773	27972
804.915	28284
805.057	28246
805.199	28223
805.341	28261
805.483	28356
805.626	28268
805.768	28306
805.91	28299
806.052	28223
806.194	28219
806.336	28470
806.478	28386
806.62	28367
806.762	28428
806.904	28489
807.046	28839
807.188	28740
807.33	28866
807.472	28923
807.614	28896
807.756	28767
807.898	28500
808.04	28611
808.182	28531
808.324	28622
808.465	28881
808.607	28847
808.749	29083
808.891	29102
809.033	29143
809.174	29140
809.316	28919
809.458	29083
809.6	28987
809.741	29098
809.883	29037
810.025	29326
810.166	29166
810.308	29429
810.45	29166
810.591	29174
810.733	29223
810.875	29056
811.016	28873
811.158	28767
811.299	29094
811.441	29223
811.582	29136
811.724	29044
811.865	29060
812.007	29052
812.148	29010
812.29	28987
812.431	29193
812.573	29326
812.714	29406
812.855	29596
812.997	29665
813.138	29756
813.279	29600
813.421	29459
813.562	29440
813.703	29250
813.845	29311
813.986	29014
814.127	28744
814.268	28660
814.41	28888
814.551	28755
814.692	28885
814.833	28653
814.974	28710
815.115	28557
815.256	28569
815.397	28637
815.539	28485
815.68	28504
815.821	28363
815.962	28542
816.103	28455
816.244	28325
816.385	28196
816.526	28261
816.666	28166
816.807	28048
816.948	28147
817.089	28177
817.23	28207
817.371	27994
817.512	28074
817.653	27987
817.793	27987
817.934	28067
818.075	27975
818.216	28055
818.356	27968
818.497	27937
818.638	27793
818.778	27838
818.919	27770
819.06	27739
819.2	28044
819.341	28154
819.481	28086
819.622	28166
819.762	28421
819.903	28306
820.043	28261
820.184	28280
820.324	28116
820.465	28242
820.605	28249
820.746	28093
820.886	27964
821.026	28097
821.167	28101
821.307	28284
821.447	27960
821.588	27930
821.728	27850
821.868	27660
822.008	27641
822.149	27599
822.289	27534
822.429	27165
822.569	27131
822.709	27150
822.849	27119
822.99	27020
823.13	27119
823.27	27005
823.41	26819
823.55	26777
823.69	26902
823.83	26819
823.97	26712
824.11	26609
824.25	26765
824.389	26785
824.529	26705
824.669	26606
824.809	26849
824.949	26785
825.089	26986
825.228	26731
825.368	26594
825.508	26617
825.648	26575
825.787	26552
825.927	26644
826.067	26598
826.206	26549
826.346	26606
826.485	26636
826.625	26617
826.765	26651
826.904	26769
827.044	26419
827.183	26393
827.323	26187
827.462	26381
827.601	26366
827.741	26237
827.88	26240
828.02	26309
828.159	26278
828.298	26172
828.437	26385
828.577	26263
828.716	26324
828.855	26248
828.994	25955
829.134	25997
829.273	25947
829.412	25970
829.551	25966
829.69	25887
829.829	26027
829.968	26050
830.107	26043
830.246	25909
830.385	26005
830.524	25936
830.663	25772
830.802	25681
830.941	25533
831.08	25590
831.219	25632
831.357	25780
831.496	25791
831.635	25616
831.774	25369
831.913	25434
832.051	25384
832.19	25434
832.329	25449
832.467	25320
832.606	25187
832.744	25217
832.883	25232
833.022	25168
833.16	25282
833.299	25221
833.437	25126
833.576	25453
833.714	25297
833.852	25438
833.991	25346
834.129	25369
834.267	25308
834.406	25251
834.544	25266
834.682	25350
834.821	25190
834.959	25419
835.097	25145
835.235	25453
835.373	25304
835.511	25285
835.65	25122
835.788	25236
835.926	25023
836.064	24970
836.202	24958
836.34	25072
836.478	25274
836.615	25118
836.753	25076
836.891	25270
837.029	25031
837.167	24939
837.305	25114
837.443	25000
837.58	24852
837.718	25057
837.856	24859
837.993	24935
838.131	25008
838.269	24871
838.406	24905
838.544	24730
838.681	24639
838.819	24623
838.956	24566
839.094	24418
839.231	24460
839.369	24528
839.506	24840
839.643	24700
839.781	24456
839.918	24338
840.055	24452
840.193	24220
840.33	24247
840.467	24338
840.604	24437
840.742	24528
840.879	24232
841.016	24239
841.153	24125
841.29	24407
841.427	24403
841.564	24315
841.701	24247
841.838	24258
841.975	24133
842.112	24235
842.249	24152
842.385	24060
842.522	24342
842.659	24102
842.796	24125
842.933	24064
843.069	24102
843.206	23939
843.343	24178
843.479	24068
843.616	24125
843.752	23840
843.889	23885
844.025	23973
844.162	23767
844.298	24015
844.435	23889
844.571	23866
844.708	23950
844.844	24060
844.98	24102
845.117	23969
845.253	23726
845.389	23745
845.525	23805
845.661	23707
845.798	23570
845.934	23585
846.07	23501
846.206	23646
846.342	23726
846.478	23497
846.614	23391
846.75	23159
846.886	23315
847.022	23402
847.158	23414
847.294	23265
847.429	23288
847.565	23315
847.701	23547
847.837	23075
847.972	22930
848.108	23197
848.244	23018
848.379	22976
848.515	22900
848.65	22896
848.786	22953
848.921	22938
849.057	22892
849.192	22976
849.328	22934
849.463	22919
849.598	22816
849.734	22740
849.869	22759
850.004	22774
850.14	22752
850.275	22599
850.41	22653
850.545	22592
850.68	22748
850.815	22767
850.95	22630
851.085	22820
851.22	22816
851.355	22733
851.49	22584
851.625	22519
851.76	22668
851.895	22702
852.03	22527
852.165	22774
852.299	22603
852.434	22869
852.569	22713
852.703	22774
852.838	22687
852.973	22820
853.107	22740
853.242	22713
853.376	22459
853.511	22451
853.645	22432
853.78	22485
853.914	22550
854.048	22554
854.183	22550
854.317	22561
854.451	22645
854.585	22337
854.72	22493
854.854	22538
854.988	22459
855.122	22531
855.256	22481
855.39	22470
855.524	22584
855.658	22550
855.792	22508
855.926	22394
856.06	22421
856.194	22584
856.327	22436
856.461	22352
856.595	22481
856.729	22508
856.862	22443
856.996	22500
857.13	22497
857.263	22634
857.397	22615
857.53	22432
857.664	22542
857.797	22462
857.931	22538
858.064	22428
858.197	22596
858.331	22592
858.464	22451
858.597	22276
858.731	22519
858.864	22512
858.997	22451
859.13	22497
859.263	22459
859.396	22550
859.529	22447
859.662	22516
859.795	22367
859.928	22455
860.061	22710
860.194	22596
860.327	22603
860.46	22466
860.592	22569
860.725	22588
860.858	22618
860.99	22622
861.123	22504
861.256	22394
861.388	22481
861.521	23185
861.653	22424
861.786	22120
861.918	22386
862.05	22360
862.183	22481
862.315	22314
862.447	22436
862.58	22287
862.712	22280
862.844	22173
862.976	22303
863.108	22219
863.24	22691
863.372	22120
863.504	22196
863.636	22143
863.768	22261
863.9	22246
864.032	22154
864.164	22204
864.296	22314
864.428	22322
864.559	22230
864.691	22230
864.823	22223
864.954	22185
865.086	22097
865.217	22086
865.349	22086
865.48	22105
865.612	22120
865.743	22238
865.875	22219
866.006	22074
866.137	22086
866.269	22044
866.4	22116
866.531	21968
866.662	21911
866.793	22090
866.924	22082
867.055	21991
867.186	22090
867.317	22059
867.448	21975
867.579	22017
867.71	21922
867.841	21964
867.972	22086
868.103	21888
868.233	21960
868.364	21968
868.495	22063
868.625	22242
868.756	22265
868.886	22265
869.017	22322
869.147	22367
869.278	22272
869.408	22253
869.539	22234
869.669	22295
869.799	22333
869.929	22360
870.06	22238
870.19	22596
870.32	22622
870.45	22599
870.58	22634
870.71	22691
870.84	22759
870.97	22664
871.1	22763
871.23	22881
871.36	22934
871.489	22793
871.619	22592
871.749	22843
871.879	22923
872.008	22953
872.138	22885
872.267	22683
872.397	22557
872.526	22683
872.656	22744
872.785	22805
872.915	22869
873.044	22908
873.173	22919
873.303	23010
873.432	22938
873.561	23044
873.69	22828
873.819	22835
873.948	23044
874.077	22949
874.206	22778
874.335	22858
874.464	22934
874.593	22999
874.722	23083
874.851	23094
874.979	22980
875.108	23189
875.237	23162
875.365	22976
875.494	22946
875.623	23132
875.751	23048
875.88	23105
876.008	23174
876.136	23223
876.265	23558
876.393	23653
876.521	23414
876.65	23570
876.778	23482
876.906	23474
877.034	23467
877.162	23520
877.29	23455
877.418	23501
877.546	23429
877.674	23356
877.802	23395
877.93	23391
878.058	23311
878.185	23303
878.313	23452
878.441	23364
878.568	23296
878.696	23406
878.824	23410
878.951	23505
879.079	23691
879.206	23695
879.333	23585
879.461	23524
879.588	23547
879.715	23570
879.842	23687
879.97	23531
880.097	23273
880.224	23181
880.351	23258
880.478	23216
880.605	23227
880.732	23261
880.859	23551
880.986	23318
881.112	23265
881.239	23010
881.366	22995
881.493	22972
881.619	22866
881.746	22911
881.872	22862
881.999	22767
882.125	22672
882.252	22820
882.378	22687
882.505	22968
882.631	22679
882.757	22531
882.883	22603
883.01	22577
883.136	22421
883.262	22394
883.388	22375
883.514	22481
883.64	22497
883.766	22356
883.892	22192
884.018	22390
884.143	22371
884.269	22512
884.395	22196
884.52	22139
884.646	22097
884.772	21922
884.897	22109
885.023	22044
885.148	22173
885.274	22219
885.399	22226
885.524	22101
885.65	22124
885.775	22101
885.9	22017
886.025	22135
886.15	22063
886.275	22150
886.4	21979
886.525	22150
886.65	21949
886.775	21915
886.9	22131
887.025	22295
887.149	22074
887.274	21869
887.399	21762
887.523	21842
887.648	21720
887.773	21667
887.897	22002
888.021	21937
888.146	21732
888.27	21907
888.395	21926
888.519	21873
888.643	21850
888.767	21903
888.891	21743
889.015	21698
889.139	21679
889.263	21599
889.387	21743
889.511	21755
889.635	21831
889.759	21656
889.883	21679
890.006	21732
890.13	21652
890.254	21568
890.377	21633
890.501	21332
890.624	21359
890.748	21424
890.871	21443
890.995	21237
891.118	21127
891.241	21237
891.364	21142
891.488	21374
891.611	21233
891.734	21336
891.857	21222
891.98	21287
892.103	21279
892.226	21306
892.349	21116
892.471	21013
892.594	21108
892.717	21207
892.839	21066
892.962	21192
893.085	21222
893.207	21066
893.33	20986
893.452	21028
893.575	21089
893.697	21036
893.819	21211
893.941	21199
894.064	21291
894.186	21047
894.308	20990
894.43	21157
894.552	21233
894.674	21055
894.796	20857
894.918	21017
895.04	20967
895.161	21142
895.283	21142
895.405	21081
895.526	21096
895.648	21127
895.769	21093
895.891	21032
896.012	21150
896.134	21005
896.255	21055
896.376	21055
896.498	21055
896.619	21013
896.74	21036
896.861	21100
896.982	21405
897.103	21500
897.224	21439
897.345	21233
897.466	21165
897.587	21283
897.708	21416
897.828	21184
897.949	21218
898.07	21047
898.19	21184
898.311	21348
898.431	21264
898.552	21275
898.672	21351
898.792	21321
898.913	21294
899.033	21207
899.153	21100
899.273	21020
899.393	20990
899.513	21013
899.633	20998
899.753	21039
899.873	20971
899.993	21070
900.113	20921
900.232	20986
900.352	21028
900.472	20883
900.591	20708
900.711	20826
900.83	20777
900.95	20857
901.069	20872
901.189	20727
901.308	20393
901.427	20218
901.546	20427
901.665	20324
901.784	20339
901.904	20115
902.023	20111
902.141	19860
902.26	19791
902.379	19906
902.498	19852
902.617	19887
902.735	19906
902.854	19818
902.973	19742
903.091	19556
903.21	19544
903.328	19533
903.446	19384
903.565	19377
903.683	19377
903.801	19133
903.919	19179
904.038	19308
904.156	19152
904.274	19263
904.392	19019
904.51	18966
904.627	19038
904.745	19076
904.863	19099
904.981	18909
905.098	18726
905.216	18650
905.334	18707
905.451	18821
905.569	18688
905.686	18764
905.803	18859
905.921	18597
906.038	18544
906.155	18585
906.272	18475
906.389	18388
906.506	18178
906.623	18338
906.74	18270
906.857	18129
906.974	18186
907.091	18186
907.208	18365
907.324	18327
907.441	18121
907.557	17935
907.674	18019
907.79	17939
907.907	17866
908.023	17923
908.139	17973
908.256	17893
908.372	17783
908.488	17935
908.604	17817
908.72	17676
908.836	17718
908.952	17710
909.068	17764
909.184	17821
909.3	17619
909.415	17615
909.531	17589
909.647	17421
909.762	17402
909.878	17395
909.993	17315
910.108	17315
910.224	17311
910.339	17383
910.454	17220
910.57	17075
910.685	17105
910.8	17326
910.915	17368
911.03	17155
911.145	16896
911.259	17037
911.374	16980
911.489	16889
911.604	16812
911.718	16717
911.833	16698
911.947	16569
912.062	16580
912.176	16710
912.291	16683
912.405	16698
912.519	16835
912.633	16938
912.748	16698
912.862	16641
912.976	16615
913.09	16451
913.204	16500
913.318	16489
913.431	16573
913.545	16573
913.659	16588
913.772	16489
913.886	16322
914	16211
914.113	16485
914.226	16436
914.34	16299
914.453	16109
914.566	16265
914.68	16101
914.793	16082
914.906	15945
915.019	15880
915.132	15823
915.245	15926
915.358	15876
915.47	15869
915.583	15861
915.696	15869
915.809	16002
915.921	16040
916.034	15774
916.146	15736
916.259	15827
916.371	15869
916.483	15766
916.595	15797
916.708	15717
916.82	15682
916.932	15625
917.044	15549
917.156	15656
917.268	15542
917.38	15603
917.491	15542
917.603	15530
917.715	15526
917.826	15545
917.938	15477
918.049	15325
918.161	15397
918.272	15561
918.384	15603
918.495	15363
918.606	15336
918.717	15176
918.828	15245
918.939	15230
919.05	15047
919.161	15192
919.272	14998
919.383	15108
919.494	15298
919.604	15439
919.715	15214
919.826	15081
919.936	15233
920.047	15218
920.157	15116
920.267	15450
920.378	15131
920.488	15085
920.598	15351
920.708	15428
920.818	15272
920.928	15279
921.038	15515
921.148	15355
921.258	15081
921.368	14971
921.477	15028
921.587	14933
921.697	14781
921.806	15009
921.916	14686
922.025	14537
922.134	14522
922.244	14606
922.353	14530
922.462	14503
922.571	14336
922.68	14233
922.789	14145
922.898	14237
923.007	14225
923.116	14149
923.224	14111
923.333	14130
923.442	14107
923.55	14065
923.659	14012
923.767	14046
923.876	13917
923.984	14058
924.092	13890
924.201	13936
924.309	14050
924.417	13898
924.525	13871
924.633	13803
924.741	14762
924.849	13628
924.956	13761
925.064	13571
925.172	13457
925.279	13483
925.387	13552
925.494	13525
925.602	13670
925.709	13529
925.816	13453
925.924	13441
926.031	13571
926.138	13613
926.245	13575
926.352	13449
926.459	13518
926.566	13556
926.673	13358
926.779	13373
926.886	13274
926.993	13129
927.099	13126
927.206	12993
927.312	13008
927.419	13076
927.525	13046
927.631	13034
927.737	13004
927.843	12951
927.95	12863
928.056	12867
928.162	12973
928.267	12924
928.373	13647
928.479	13069
928.585	12715
928.69	12939
928.796	12859
928.901	12734
929.007	12738
929.112	12787
929.218	12620
929.323	12620
929.428	12608
929.533	12810
929.638	12662
929.743	12601
929.848	12654
929.953	12513
930.058	12471
930.163	12270
930.267	12243
930.372	12410
930.477	12235
930.581	12437
930.685	12353
930.79	12216
930.894	12190
930.998	12201
931.103	12273
931.207	11897
931.311	11885
931.415	11756
931.519	11600
931.623	11490
