Data from test_V78500241_1877.txt Node
Date: Fri Mar 25 15:54:48 CST 2022
User: usil
Spectrometer: V785-0024
Trigger mode: 0
Integration Time (sec): 4.000000E-1
Scans to average: 1
Nonlinearity correction enabled: false
Boxcar width: 0
Storing dark spectrum: false
XAxis mode: Wavelengths
Number of Pixels in Spectrum: 1024
>>>>>Begin Spectral Data<<<<<
801.071	28554
801.214	28504
801.356	28390
801.499	28200
801.641	28097
801.783	28097
801.926	28013
802.068	28196
802.211	28204
802.353	27968
802.496	27930
802.638	27819
802.78	27804
802.923	27732
803.065	27755
803.208	27743
803.35	27850
803.492	27960
803.635	28013
803.777	28025
803.919	28036
804.061	28440
804.204	28204
804.346	28029
804.488	28013
804.63	27953
804.773	27983
804.915	28093
805.057	28158
805.199	28120
805.341	28082
805.483	28223
805.626	28147
805.768	28074
805.91	28276
806.052	28246
806.194	28044
806.336	28428
806.478	28246
806.62	28295
806.762	28455
806.904	28512
807.046	28736
807.188	28759
807.33	28660
807.472	28736
807.614	28622
807.756	28683
807.898	28546
808.04	28382
808.182	28440
808.324	28519
808.465	28668
808.607	28824
808.749	28911
808.891	29075
809.033	29204
809.174	29033
809.316	28946
809.458	29010
809.6	28869
809.741	28942
809.883	29071
810.025	29147
810.166	29136
810.308	29322
810.45	29178
810.591	29094
810.733	28991
810.875	28888
811.016	28824
811.158	28850
811.299	28991
811.441	29124
811.582	29052
811.724	28938
811.865	28812
812.007	28881
812.148	28900
812.29	29010
812.431	29147
812.573	29227
812.714	29280
812.855	29391
812.997	29436
813.138	29604
813.279	29596
813.421	29402
813.562	29398
813.703	29200
813.845	29216
813.986	28885
814.127	28565
814.268	28763
814.41	28634
814.551	28618
814.692	28694
814.833	28409
814.974	28630
815.115	28546
815.256	28424
815.397	28561
815.539	28440
815.68	28356
815.821	28276
815.962	28409
816.103	28527
816.244	28265
816.385	28249
816.526	28154
816.666	28059
816.807	27800
816.948	27945
817.089	27907
817.23	27983
817.371	27838
817.512	27941
817.653	27945
817.793	27808
817.934	27907
818.075	27850
818.216	27903
818.356	27914
818.497	27743
818.638	27622
818.778	27610
818.919	27500
819.06	27667
819.2	27857
819.341	27972
819.481	27968
819.622	28055
819.762	28253
819.903	28169
820.043	28177
820.184	28128
820.324	27953
820.465	28181
820.605	28120
820.746	28120
820.886	27880
821.026	28025
821.167	28002
821.307	28063
821.447	27827
821.588	27816
821.728	27671
821.868	27576
822.008	27405
822.149	27336
822.289	27306
822.429	27161
822.569	27051
822.709	27009
822.849	26937
822.99	26876
823.13	26895
823.27	26819
823.41	26716
823.55	26644
823.69	26743
823.83	26693
823.97	26602
824.11	26587
824.25	26412
824.389	26693
824.529	26670
824.669	26549
824.809	26708
824.949	26674
825.089	26640
825.228	26556
825.368	26469
825.508	26385
825.648	26453
825.787	26450
825.927	26495
826.067	26492
826.206	26522
826.346	26522
826.485	26492
826.625	26374
826.765	26511
826.904	26366
827.044	26168
827.183	26180
827.323	26054
827.462	26202
827.601	26138
827.741	26157
827.88	26172
828.02	25875
828.159	26161
828.298	26168
828.437	26122
828.577	26172
828.716	26187
828.855	26081
828.994	25830
829.134	25757
829.273	25928
829.412	25879
829.551	25723
829.69	25868
829.829	25818
829.968	25830
830.107	25940
830.246	25982
830.385	25715
830.524	25632
830.663	25582
830.802	25590
830.941	25381
831.08	25278
831.219	25464
831.357	25324
831.496	25746
831.635	25438
831.774	25407
831.913	25419
832.051	25194
832.19	25065
832.329	25232
832.467	25187
832.606	25053
832.744	25072
832.883	25171
833.022	25126
833.16	25122
833.299	25080
833.437	25160
833.576	25202
833.714	25240
833.852	25259
833.991	25259
834.129	25183
834.267	25183
834.406	25152
834.544	25145
834.682	25194
834.821	25236
834.959	25266
835.097	25107
835.235	25183
835.373	25145
835.511	24958
835.65	24985
835.788	24966
835.926	24814
836.064	24821
836.202	24859
836.34	24859
836.478	25107
836.615	24947
836.753	24947
836.891	25042
837.029	25095
837.167	24951
837.305	24954
837.443	24764
837.58	24871
837.718	24840
837.856	24890
837.993	24688
838.131	24825
838.269	24597
838.406	24745
838.544	24563
838.681	24399
838.819	24422
838.956	24289
839.094	24270
839.231	24353
839.369	24357
839.506	24604
839.643	24403
839.781	24372
839.918	24190
840.055	24270
840.193	24308
840.33	24087
840.467	24247
840.604	24270
840.742	24384
840.879	23977
841.016	24190
841.153	24216
841.29	24304
841.427	24117
841.564	24239
841.701	24121
841.838	24224
841.975	24026
842.112	24114
842.249	23950
842.385	23870
842.522	24197
842.659	24079
842.796	23885
842.933	23996
843.069	23980
843.206	23817
843.343	23973
843.479	24011
843.616	23931
843.752	23779
843.889	23741
844.025	23783
844.162	23665
844.298	23722
844.435	23691
844.571	23543
844.708	23756
844.844	23676
844.98	23973
845.117	23771
845.253	23676
845.389	23608
845.525	23611
845.661	23509
845.798	23471
845.934	23402
846.07	23296
846.206	23509
846.342	23676
846.478	23402
846.614	23273
846.75	23193
846.886	23041
847.022	23216
847.158	23128
847.294	23242
847.429	23086
847.565	23155
847.701	23372
847.837	22885
847.972	22763
848.108	22919
848.244	22980
848.379	22774
848.515	22755
848.65	22736
848.786	22824
848.921	22778
849.057	22850
849.192	22740
849.328	22736
849.463	22763
849.598	22744
849.734	22649
849.869	22664
850.004	22573
850.14	22588
850.275	22603
850.41	22466
850.545	22432
850.68	22440
850.815	22554
850.95	22481
851.085	22843
851.22	22546
851.355	22523
851.49	22512
851.625	22485
851.76	22538
851.895	22379
852.03	22360
852.165	22542
852.299	22500
852.434	22653
852.569	22573
852.703	22512
852.838	22550
852.973	22596
853.107	22645
853.242	22424
853.376	22424
853.511	22234
853.645	22287
853.78	22428
853.914	22344
854.048	22367
854.183	22295
854.317	22367
854.451	22409
854.585	22405
854.72	22344
854.854	22356
854.988	22188
855.122	22238
855.256	22253
855.39	22261
855.524	22417
855.658	22356
855.792	22447
855.926	22329
856.06	22329
856.194	22390
856.327	22276
856.461	22268
856.595	22352
856.729	22356
856.862	22519
856.996	22246
857.13	22440
857.263	22379
857.397	22310
857.53	22344
857.664	22341
857.797	22493
857.931	22398
858.064	22382
858.197	22485
858.331	22352
858.464	22223
858.597	22299
858.731	22284
858.864	22257
858.997	22363
859.13	22428
859.263	22257
859.396	22211
859.529	22348
859.662	22371
859.795	22314
859.928	22356
860.061	22436
860.194	22512
860.327	22512
860.46	22402
860.592	22466
860.725	22584
860.858	22531
860.99	22325
861.123	22318
861.256	22356
861.388	22398
861.521	23216
861.653	22215
861.786	22025
861.918	22234
862.05	22105
862.183	22272
862.315	22268
862.447	22379
862.58	22200
862.712	22048
862.844	22025
862.976	22158
863.108	22070
863.24	22538
863.372	21972
863.504	22006
863.636	22032
863.768	21991
863.9	22048
864.032	22002
864.164	21956
864.296	22124
864.428	22105
864.559	22070
864.691	22017
864.823	21994
864.954	21827
865.086	22048
865.217	21880
865.349	21850
865.48	21926
865.612	21983
865.743	21964
865.875	22006
866.006	21876
866.137	21903
866.269	21956
866.4	21972
866.531	21785
866.662	21816
866.793	21865
866.924	21915
867.055	21789
867.186	21888
867.317	21732
867.448	21785
867.579	21846
867.71	21793
867.841	21736
867.972	21781
868.103	21804
868.233	21831
868.364	21873
868.495	21911
868.625	22124
868.756	22196
868.886	22086
869.017	22158
869.147	22181
869.278	22177
869.408	22101
869.539	22128
869.669	22238
869.799	22158
869.929	22234
870.06	22211
870.19	22493
870.32	22371
870.45	22352
870.58	22481
870.71	22573
870.84	22466
870.97	22489
871.1	22409
871.23	22493
871.36	22740
871.489	22588
871.619	22561
871.749	22687
871.879	22645
872.008	22755
872.138	22733
872.267	22778
872.397	22584
872.526	22550
872.656	22542
872.785	22554
872.915	22706
873.044	22934
873.173	22649
873.303	22733
873.432	22786
873.561	22782
873.69	22599
873.819	22637
873.948	22771
874.077	22740
874.206	22672
874.335	22771
874.464	22778
874.593	22984
874.722	22930
874.851	23060
874.979	22862
875.108	22984
875.237	22942
875.365	22919
875.494	22892
875.623	22953
875.751	22904
875.88	22987
876.008	23181
876.136	23189
876.265	23269
876.393	23440
876.521	23452
876.65	23398
876.778	23292
876.906	23307
877.034	23166
877.162	23235
877.29	23242
877.418	23322
877.546	23288
877.674	23322
877.802	23223
877.93	23269
878.058	23269
878.185	23079
878.313	23178
878.441	23261
878.568	23010
878.696	23178
878.824	23330
878.951	23341
879.079	23512
879.206	23539
879.333	23455
879.461	23235
879.588	23429
879.715	23383
879.842	23467
879.97	23318
880.097	23060
880.224	23102
880.351	23147
880.478	23124
880.605	22995
880.732	23025
880.859	23356
880.986	23010
881.112	23128
881.239	22763
881.366	22820
881.493	22721
881.619	22672
881.746	22516
881.872	22611
881.999	22592
882.125	22546
882.252	22645
882.378	22580
882.505	22687
882.631	22527
882.757	22409
882.883	22478
883.01	22329
883.136	22299
883.262	22325
883.388	22010
883.514	22329
883.64	22417
883.766	22303
883.892	22017
884.018	22063
884.143	22310
884.269	22226
884.395	22070
884.52	21857
884.646	22006
884.772	21968
884.897	21903
885.023	22017
885.148	22029
885.274	22078
885.399	22025
885.524	21960
885.65	22006
885.775	21987
885.9	21869
886.025	21991
886.15	22040
886.275	21907
886.4	21850
886.525	21953
886.65	21831
886.775	21705
886.9	22090
887.025	22131
887.149	22055
887.274	21747
887.399	21812
887.523	21679
887.648	21660
887.773	21667
887.897	21732
888.021	21720
888.146	21671
888.27	21934
888.395	21812
888.519	21606
888.643	21812
888.767	21823
888.891	21568
889.015	21431
889.139	21447
889.263	21382
889.387	21507
889.511	21873
889.635	21599
889.759	21420
889.883	21488
890.006	21500
890.13	21595
890.254	21374
890.377	21351
890.501	21283
890.624	21264
890.748	21306
890.871	21104
890.995	21119
891.118	21077
891.241	21127
891.364	21081
891.488	21272
891.611	21020
891.734	21154
891.857	21142
891.98	21001
892.103	21009
892.226	20963
892.349	20967
892.471	20960
892.594	20849
892.717	20975
892.839	21058
892.962	20960
893.085	20960
893.207	20925
893.33	20807
893.452	20788
893.575	20960
893.697	20796
893.819	21089
893.941	21112
894.064	21104
894.186	20933
894.308	20785
894.43	21028
894.552	21211
894.674	21081
894.796	20769
894.918	20899
895.04	20933
895.161	21058
895.283	20952
895.405	20902
895.526	20861
895.648	20861
895.769	20868
895.891	21043
896.012	21066
896.134	21058
896.255	20933
896.376	20902
896.498	20876
896.619	20952
896.74	20929
896.861	20929
896.982	21211
897.103	21382
897.224	21249
897.345	21218
897.466	21081
897.587	21142
897.708	21408
897.828	21093
897.949	21043
898.07	20948
898.19	21089
898.311	21203
898.431	21112
898.552	21028
898.672	21233
898.792	21226
898.913	21055
899.033	21005
899.153	20826
899.273	20769
899.393	20739
899.513	20937
899.633	20929
899.753	20842
899.873	20819
899.993	20807
900.113	20861
900.232	20960
900.352	20697
900.472	20678
900.591	20541
900.711	20716
900.83	20632
900.95	20739
901.069	20731
901.189	20503
901.308	20355
901.427	20214
901.546	20256
901.665	20206
901.784	20271
901.904	20005
902.023	19967
902.141	19791
902.26	19681
902.379	19826
902.498	19712
902.617	19708
902.735	19742
902.854	19571
902.973	19613
903.091	19392
903.21	19457
903.328	19304
903.446	19270
903.565	19232
903.683	19148
903.801	19095
903.919	19103
904.038	19107
904.156	18962
904.274	19065
904.392	18875
904.51	18981
904.627	18943
904.745	18993
904.863	18951
904.981	18722
905.098	18661
905.216	18604
905.334	18612
905.451	18616
905.569	18559
905.686	18677
905.803	18616
905.921	18342
906.038	18506
906.155	18384
906.272	18456
906.389	18292
906.506	18216
906.623	18159
906.74	18125
906.857	18038
906.974	18091
907.091	18136
907.208	18296
907.324	18201
907.441	18015
907.557	17828
907.674	17771
907.79	17764
907.907	17817
908.023	17859
908.139	17794
908.256	17847
908.372	17710
908.488	17695
908.604	17634
908.72	17482
908.836	17433
908.952	17505
909.068	17589
909.184	17653
909.3	17589
909.415	17604
909.531	17486
909.647	17303
909.762	17242
909.878	17254
909.993	17235
910.108	17250
910.224	17151
910.339	17307
910.454	17124
910.57	16984
910.685	16999
910.8	17166
910.915	17181
911.03	16999
911.145	16828
911.259	16721
911.374	16835
911.489	16729
911.604	16702
911.718	16615
911.833	16611
911.947	16535
912.062	16413
912.176	16569
912.291	16599
912.405	16508
912.519	16744
912.633	16698
912.748	16653
912.862	16500
912.976	16432
913.09	16207
913.204	16306
913.318	16394
913.431	16413
913.545	16386
913.659	16386
913.772	16234
913.886	16185
914	16120
914.113	16128
914.226	16249
914.34	16166
914.453	16040
914.566	16169
914.68	16055
914.793	16082
914.906	15892
915.019	15793
915.132	15770
915.245	15656
915.358	15812
915.47	15774
915.583	15682
915.696	15682
915.809	15915
915.921	15835
916.034	15690
916.146	15679
916.259	15656
916.371	15671
916.483	15652
916.595	15542
916.708	15720
916.82	15599
916.932	15462
917.044	15496
917.156	15462
917.268	15336
917.38	15367
917.491	15332
917.603	15348
917.715	15511
917.826	15344
917.938	15279
918.049	15211
918.161	15245
918.272	15408
918.384	15428
918.495	15313
918.606	15211
918.717	15001
918.828	15214
918.939	15192
919.05	15066
919.161	15093
919.272	14807
919.383	15001
919.494	15123
919.604	15321
919.715	15157
919.826	14937
919.936	15116
920.047	15058
920.157	15074
920.267	15237
920.378	15066
920.488	15039
920.598	15142
920.708	15294
920.818	15123
920.928	15233
921.038	15329
921.148	15386
921.258	14994
921.368	14914
921.477	14834
921.587	14750
921.697	14602
921.806	14781
921.916	14629
922.025	14495
922.134	14442
922.244	14290
922.353	14465
922.462	14374
922.571	14271
922.68	14103
922.789	14046
922.898	14062
923.007	14043
923.116	14138
923.224	13875
923.333	14008
923.442	13955
923.55	13864
923.659	13887
923.767	13936
923.876	13731
923.984	13913
924.092	13750
924.201	13852
924.309	13822
924.417	13822
924.525	13719
924.633	13742
924.741	14484
924.849	13495
924.956	13597
925.064	13636
925.172	13422
925.279	13415
925.387	13495
925.494	13529
925.602	13578
925.709	13525
925.816	13312
925.924	13441
926.031	13499
926.138	13381
926.245	13400
926.352	13301
926.459	13468
926.566	13525
926.673	13449
926.779	13213
926.886	13206
926.993	13183
927.099	13004
927.206	12905
927.312	13046
927.419	13084
927.525	13038
927.631	12996
927.737	12920
927.843	12871
927.95	12814
928.056	12795
928.162	12859
928.267	12901
928.373	13575
928.479	12951
928.585	12719
928.69	12810
928.796	12848
928.901	12722
929.007	12456
929.112	12696
929.218	12665
929.323	12646
929.428	12639
929.533	12719
929.638	12414
929.743	12490
929.848	12536
929.953	12471
930.058	12483
930.163	12213
930.267	12251
930.372	12380
930.477	12175
930.581	12418
930.685	12277
930.79	12175
930.894	12133
930.998	12125
931.103	12159
931.207	11889
931.311	11813
931.415	11733
931.519	11455
931.623	11501
