Data from test_V78500241_1657.txt Node
Date: Fri Mar 25 15:53:16 CST 2022
User: usil
Spectrometer: V785-0024
Trigger mode: 0
Integration Time (sec): 4.000000E-1
Scans to average: 1
Nonlinearity correction enabled: false
Boxcar width: 0
Storing dark spectrum: false
XAxis mode: Wavelengths
Number of Pixels in Spectrum: 1024
>>>>>Begin Spectral Data<<<<<
801.071	28128
801.214	27934
801.356	27804
801.499	27732
801.641	27644
801.783	27523
801.926	27762
802.068	27747
802.211	27545
802.353	27488
802.496	27302
802.638	27283
802.78	27378
802.923	27268
803.065	27119
803.208	27252
803.35	27291
803.492	27450
803.635	27534
803.777	27359
803.919	27515
804.061	27766
804.204	27580
804.346	27386
804.488	27435
804.63	27367
804.773	27473
804.915	27389
805.057	27603
805.199	27332
805.341	27530
805.483	27720
805.626	27599
805.768	27553
805.91	27663
806.052	27720
806.194	27538
806.336	27759
806.478	27781
806.62	27751
806.762	27945
806.904	27888
807.046	28196
807.188	28109
807.33	28021
807.472	28196
807.614	27918
807.756	27949
807.898	28093
808.04	27914
808.182	27914
808.324	27994
808.465	28002
808.607	28166
808.749	28443
808.891	28356
809.033	28557
809.174	28348
809.316	28329
809.458	28447
809.6	28341
809.741	28432
809.883	28474
810.025	28615
810.166	28527
810.308	28584
810.45	28542
810.591	28493
810.733	28337
810.875	28352
811.016	28177
811.158	28131
811.299	28352
811.441	28462
811.582	28493
811.724	28341
811.865	28276
812.007	28367
812.148	28246
812.29	28379
812.431	28554
812.573	28668
812.714	28607
812.855	28801
812.997	28896
813.138	29006
813.279	28763
813.421	28835
813.562	28630
813.703	28523
813.845	28466
813.986	28211
814.127	28040
814.268	27918
814.41	27994
814.551	27960
814.692	27960
814.833	27934
814.974	27979
815.115	28059
815.256	27960
815.397	27903
815.539	27831
815.68	27778
815.821	27641
815.962	27895
816.103	27793
816.244	27679
816.385	27667
816.526	27538
816.666	27374
816.807	27408
816.948	27344
817.089	27283
817.23	27420
817.371	27245
817.512	27367
817.653	27249
817.793	27230
817.934	27230
818.075	27447
818.216	27370
818.356	27329
818.497	27203
818.638	27081
818.778	27100
818.919	27047
819.06	27005
819.2	27176
819.341	27237
819.481	27260
819.622	27557
819.762	27526
819.903	27542
820.043	27431
820.184	27401
820.324	27393
820.465	27374
820.605	27367
820.746	27458
820.886	27374
821.026	27382
821.167	27542
821.307	27427
821.447	27397
821.588	27287
821.728	27089
821.868	26971
822.008	26788
822.149	26796
822.289	26625
822.429	26526
822.569	26450
822.709	26461
822.849	26309
822.99	26336
823.13	26252
823.27	26237
823.41	26210
823.55	26027
823.69	26088
823.83	26267
823.97	26043
824.11	25845
824.25	25917
824.389	25986
824.529	26031
824.669	26020
824.809	26092
824.949	25932
825.089	26050
825.228	25978
825.368	25784
825.508	25795
825.648	26027
825.787	25791
825.927	25795
826.067	25841
826.206	25769
826.346	25750
826.485	25906
826.625	25769
826.765	25928
826.904	25917
827.044	25605
827.183	25681
827.323	25354
827.462	25635
827.601	25483
827.741	25575
827.88	25506
828.02	25502
828.159	25540
828.298	25472
828.437	25438
828.577	25407
828.716	25556
828.855	25388
828.994	25346
829.134	25228
829.273	25335
829.412	25316
829.551	25156
829.69	25240
829.829	25266
829.968	25335
830.107	25297
830.246	25122
830.385	25156
830.524	25107
830.663	25031
830.802	24989
830.941	24977
831.08	24738
831.219	24966
831.357	24852
831.496	25084
831.635	24738
831.774	24749
831.913	24692
832.051	24677
832.19	24566
832.329	24684
832.467	24346
832.606	24509
832.744	24490
832.883	24517
833.022	24361
833.16	24479
833.299	24570
833.437	24376
833.576	24585
833.714	24604
833.852	24582
833.991	24563
834.129	24635
834.267	24639
834.406	24521
834.544	24589
834.682	24407
834.821	24426
834.959	24627
835.097	24502
835.235	24528
835.373	24498
835.511	24517
835.65	24429
835.788	24422
835.926	24220
836.064	24239
836.202	24224
836.34	24350
836.478	24464
836.615	24308
836.753	24315
836.891	24578
837.029	24388
837.167	24334
837.305	24350
837.443	24334
837.58	24277
837.718	24308
837.856	24228
837.993	24209
838.131	24110
838.269	24144
838.406	24243
838.544	24133
838.681	23745
838.819	23802
838.956	23775
839.094	23676
839.231	23741
839.369	23870
839.506	23977
839.643	23904
839.781	23737
839.918	23630
840.055	23726
840.193	23699
840.33	23649
840.467	23577
840.604	23687
840.742	23783
840.879	23524
841.016	23490
841.153	23436
841.29	23589
841.427	23600
841.564	23535
841.701	23619
841.838	23608
841.975	23615
842.112	23524
842.249	23528
842.385	23368
842.522	23562
842.659	23459
842.796	23440
842.933	23410
843.069	23383
843.206	23326
843.343	23231
843.479	23326
843.616	23368
843.752	23189
843.889	23162
844.025	23444
844.162	23258
844.298	23258
844.435	23067
844.571	23083
844.708	23124
844.844	23322
844.98	23223
845.117	23296
845.253	23086
845.389	23022
845.525	23006
845.661	22957
845.798	22923
845.934	22843
846.07	22889
846.206	22877
846.342	22946
846.478	22934
846.614	22626
846.75	22713
846.886	22466
847.022	22733
847.158	22607
847.294	22653
847.429	22580
847.565	22599
847.701	22953
847.837	22409
847.972	22379
848.108	22390
848.244	22516
848.379	22166
848.515	22268
848.65	22177
848.786	22131
848.921	22242
849.057	22390
849.192	22276
849.328	22284
849.463	22272
849.598	22105
849.734	22048
849.869	22032
850.004	21941
850.14	22006
850.275	21918
850.41	21937
850.545	21831
850.68	21945
850.815	21922
850.95	22002
851.085	22158
851.22	22090
851.355	21956
851.49	21983
851.625	21804
851.76	22051
851.895	21903
852.03	21907
852.165	21934
852.299	22074
852.434	22120
852.569	21922
852.703	21827
852.838	22070
852.973	22090
853.107	22059
853.242	21781
853.376	21816
853.511	21728
853.645	21675
853.78	21861
853.914	21899
854.048	21884
854.183	21793
854.317	21854
854.451	21857
854.585	21774
854.72	21778
854.854	21850
854.988	21747
855.122	21732
855.256	21637
855.39	21751
855.524	21774
855.658	21778
855.792	21823
855.926	21888
856.06	21831
856.194	21819
856.327	21705
856.461	21698
856.595	21739
856.729	21747
856.862	21880
856.996	21762
857.13	21819
857.263	21804
857.397	21895
857.53	21827
857.664	21804
857.797	21778
857.931	22040
858.064	21793
858.197	21873
858.331	21629
858.464	21739
858.597	21705
858.731	21652
858.864	21728
858.997	21804
859.13	21682
859.263	21701
859.396	21838
859.529	21762
859.662	21770
859.795	21770
859.928	21808
860.061	21911
860.194	21972
860.327	21907
860.46	21781
860.592	21880
860.725	21918
860.858	21861
860.99	21869
861.123	21724
861.256	21682
861.388	21739
861.521	22523
861.653	21587
861.786	21488
861.918	21682
862.05	21644
862.183	21675
862.315	21778
862.447	21717
862.58	21580
862.712	21515
862.844	21405
862.976	21553
863.108	21488
863.24	21941
863.372	21367
863.504	21599
863.636	21500
863.768	21511
863.9	21492
864.032	21348
864.164	21473
864.296	21542
864.428	21553
864.559	21572
864.691	21591
864.823	21568
864.954	21549
865.086	21534
865.217	21412
865.349	21272
865.48	21454
865.612	21405
865.743	21458
865.875	21401
866.006	21268
866.137	21424
866.269	21329
866.4	21431
866.531	21428
866.662	21275
866.793	21462
866.924	21351
867.055	21424
867.186	21256
867.317	21241
867.448	21237
867.579	21298
867.71	21260
867.841	21195
867.972	21454
868.103	21237
868.233	21302
868.364	21298
868.495	21519
868.625	21576
868.756	21580
868.886	21492
869.017	21576
869.147	21682
869.278	21774
869.408	21606
869.539	21553
869.669	21720
869.799	21610
869.929	21644
870.06	21644
870.19	21888
870.32	21713
870.45	22010
870.58	21899
870.71	22154
870.84	22036
870.97	21888
871.1	21949
871.23	22112
871.36	22013
871.489	22074
871.619	22215
871.749	22093
871.879	22238
872.008	22375
872.138	22169
872.267	22070
872.397	22021
872.526	21964
872.656	22074
872.785	22055
872.915	22120
873.044	22200
873.173	22295
873.303	22185
873.432	22223
873.561	22204
873.69	22166
873.819	22268
873.948	22333
874.077	22238
874.206	22040
874.335	22162
874.464	22303
874.593	22337
874.722	22318
874.851	22455
874.979	22557
875.108	22428
875.237	22299
875.365	22276
875.494	22371
875.623	22459
875.751	22352
875.88	22402
876.008	22402
876.136	22603
876.265	22733
876.393	22896
876.521	22968
876.65	22774
876.778	22679
876.906	22626
877.034	22588
877.162	22710
877.29	22679
877.418	22797
877.546	22771
877.674	22687
877.802	22797
877.93	22774
878.058	22664
878.185	22622
878.313	22592
878.441	22580
878.568	22500
878.696	22694
878.824	22839
878.951	22774
879.079	22831
879.206	23090
879.333	22889
879.461	22801
879.588	22919
879.715	22934
879.842	23025
879.97	22809
880.097	22485
880.224	22611
880.351	22554
880.478	22462
880.605	22443
880.732	22470
880.859	22618
880.986	22637
881.112	22538
881.239	22417
881.366	22322
881.493	22303
881.619	22166
881.746	22067
881.872	22181
881.999	22070
882.125	21930
882.252	22097
882.378	22135
882.505	22196
882.631	21941
882.757	21857
882.883	21854
883.01	21804
883.136	21854
883.262	21656
883.388	21663
883.514	21797
883.64	21876
883.766	21759
883.892	21515
884.018	21523
884.143	21766
884.269	21762
884.395	21580
884.52	21477
884.646	21564
884.772	21416
884.897	21397
885.023	21462
885.148	21656
885.274	21534
885.399	21618
885.524	21507
885.65	21538
885.775	21511
885.9	21378
886.025	21526
886.15	21454
886.275	21431
886.4	21416
886.525	21329
886.65	21310
886.775	21405
886.9	21542
887.025	21671
887.149	21424
887.274	21135
887.399	21260
887.523	21283
887.648	21077
887.773	21135
887.897	21237
888.021	21340
888.146	21173
888.27	21329
888.395	21325
888.519	21195
888.643	21173
888.767	21287
888.891	21089
889.015	20944
889.139	21188
889.263	20944
889.387	21077
889.511	21260
889.635	21154
889.759	20937
889.883	21047
890.006	20963
890.13	21096
890.254	20906
890.377	21062
890.501	20804
890.624	20823
890.748	20914
890.871	20613
890.995	20408
891.118	20549
891.241	20629
891.364	20594
891.488	20625
891.611	20556
891.734	20495
891.857	20697
891.98	20629
892.103	20632
892.226	20606
892.349	20381
892.471	20522
892.594	20381
892.717	20575
892.839	20530
892.962	20533
893.085	20606
893.207	20552
893.33	20347
893.452	20351
893.575	20537
893.697	20461
893.819	20617
893.941	20781
894.064	20594
894.186	20389
894.308	20339
894.43	20594
894.552	20598
894.674	20518
894.796	20454
894.918	20404
895.04	20522
895.161	20549
895.283	20526
895.405	20465
895.526	20549
895.648	20393
895.769	20507
895.891	20541
896.012	20480
896.134	20476
896.255	20415
896.376	20446
896.498	20484
896.619	20579
896.74	20320
896.861	20438
896.982	20807
897.103	20857
897.224	20815
897.345	20731
897.466	20670
897.587	20659
897.708	20815
897.828	20758
897.949	20648
898.07	20522
898.19	20590
898.311	20765
898.431	20705
898.552	20701
898.672	20705
898.792	20804
898.913	20689
899.033	20522
899.153	20438
899.273	20370
899.393	20385
899.513	20381
899.633	20461
899.753	20533
899.873	20377
899.993	20480
900.113	20343
900.232	20366
900.352	20347
900.472	20263
900.591	20214
900.711	20214
900.83	20115
900.95	20305
901.069	20263
901.189	20035
901.308	19940
901.427	19769
901.546	19852
901.665	19807
901.784	19776
901.904	19712
902.023	19392
902.141	19419
902.26	19206
902.379	19384
902.498	19270
902.617	19278
902.735	19282
902.854	19270
902.973	19244
903.091	18859
903.21	18943
903.328	18886
903.446	18947
903.565	18661
903.683	18734
903.801	18597
903.919	18700
904.038	18612
904.156	18677
904.274	18544
904.392	18509
904.51	18399
904.627	18536
904.745	18601
904.863	18547
904.981	18262
905.098	18117
905.216	18224
905.334	18186
905.451	18190
905.569	18205
905.686	18197
905.803	18270
905.921	17901
906.038	18045
906.155	18034
906.272	17866
906.389	17901
906.506	17745
906.623	17672
906.74	17672
906.857	17558
906.974	17535
907.091	17699
907.208	17718
907.324	17737
907.441	17615
907.557	17547
907.674	17368
907.79	17372
907.907	17444
908.023	17391
908.139	17440
908.256	17417
908.372	17307
908.488	17261
908.604	17162
908.72	17193
908.836	17220
908.952	17075
909.068	17273
909.184	17322
909.3	17098
909.415	17250
909.531	17121
909.647	16991
909.762	16797
909.878	16885
909.993	16927
910.108	16908
910.224	16793
910.339	16790
910.454	16755
910.57	16698
910.685	16630
910.8	16946
910.915	16790
911.03	16584
911.145	16417
911.259	16527
911.374	16455
911.489	16382
911.604	16291
911.718	16147
911.833	16265
911.947	16128
912.062	16017
912.176	16207
912.291	16200
912.405	16173
912.519	16402
912.633	16413
912.748	16173
912.862	16242
912.976	16131
913.09	15964
913.204	16032
913.318	16055
913.431	16029
913.545	16150
913.659	16112
913.772	15994
913.886	15880
914	15812
914.113	15941
914.226	15926
914.34	15972
914.453	15610
914.566	15892
914.68	15739
914.793	15747
914.906	15561
915.019	15485
915.132	15416
915.245	15382
915.358	15310
915.47	15405
915.583	15397
915.696	15355
915.809	15580
915.921	15507
916.034	15317
916.146	15283
916.259	15310
916.371	15321
916.483	15336
916.595	15382
916.708	15294
916.82	15401
916.932	15268
917.044	15184
917.156	15169
917.268	15127
917.38	15081
917.491	15089
917.603	15043
917.715	15142
917.826	15142
917.938	14986
918.049	14960
918.161	14960
918.272	15085
918.384	15108
918.495	15005
918.606	14785
918.717	14735
918.828	14826
918.939	14902
919.05	14682
919.161	14838
919.272	14530
919.383	14583
919.494	14769
919.604	15058
919.715	14762
919.826	14716
919.936	14682
920.047	14883
920.157	14689
920.267	14998
920.378	14815
920.488	14727
920.598	14956
920.708	15165
920.818	14887
920.928	14838
921.038	15066
921.148	14998
921.258	14697
921.368	14632
921.477	14530
921.587	14492
921.697	14351
921.806	14518
921.916	14374
922.025	14210
922.134	14199
922.244	14119
922.353	14225
922.462	13970
922.571	13967
922.68	13791
922.789	13822
922.898	13811
923.007	13776
923.116	13715
923.224	13734
923.333	13727
923.442	13616
923.55	13605
923.659	13590
923.767	13723
923.876	13499
923.984	13715
924.092	13502
924.201	13586
924.309	13533
924.417	13480
924.525	13514
924.633	13552
924.741	14229
924.849	13289
924.956	13331
925.064	13263
925.172	13244
925.279	13308
925.387	13221
925.494	13183
925.602	13270
925.709	13270
925.816	13129
925.924	13187
926.031	13183
926.138	13152
926.245	13145
926.352	13099
926.459	13206
926.566	13232
926.673	13042
926.779	12958
926.886	12970
926.993	12802
927.099	12753
927.206	12677
927.312	12711
927.419	12806
927.525	12772
927.631	12856
927.737	12486
927.843	12574
927.95	12456
928.056	12506
928.162	12574
928.267	12642
928.373	13285
928.479	12662
928.585	12407
928.69	12563
928.796	12509
928.901	12521
929.007	12353
929.112	12391
929.218	12376
929.323	12346
929.428	12357
929.533	12422
929.638	12190
929.743	12224
929.848	12251
929.953	12194
930.058	12030
930.163	12038
930.267	11939
930.372	12152
930.477	11870
930.581	12133
930.685	12026
930.79	11901
930.894	11802
930.998	11920
931.103	11954
931.207	11649
931.311	11547
931.415	11471
931.519	11227
931.623	11166
