Data from test_V78500241_1283.txt Node
Date: Fri Mar 25 15:50:41 CST 2022
User: usil
Spectrometer: V785-0024
Trigger mode: 0
Integration Time (sec): 4.000000E-1
Scans to average: 1
Nonlinearity correction enabled: false
Boxcar width: 0
Storing dark spectrum: false
XAxis mode: Wavelengths
Number of Pixels in Spectrum: 1024
>>>>>Begin Spectral Data<<<<<
801.071	28215
801.214	28253
801.356	28105
801.499	27960
801.641	27823
801.783	27884
801.926	27918
802.068	27747
802.211	27694
802.353	27663
802.496	27534
802.638	27450
802.78	27389
802.923	27279
803.065	27249
803.208	27435
803.35	27587
803.492	27515
803.635	27587
803.777	27568
803.919	27618
804.061	28029
804.204	27724
804.346	27629
804.488	27606
804.63	27667
804.773	27606
804.915	27694
805.057	27759
805.199	27534
805.341	27823
805.483	27823
805.626	27823
805.768	27713
805.91	27827
806.052	27979
806.194	27789
806.336	28078
806.478	27972
806.62	27926
806.762	28116
806.904	28253
807.046	28295
807.188	28207
807.33	28417
807.472	28299
807.614	28238
807.756	28188
807.898	28200
808.04	28109
808.182	28093
808.324	28150
808.465	28128
808.607	28333
808.749	28493
808.891	28577
809.033	28656
809.174	28470
809.316	28497
809.458	28447
809.6	28447
809.741	28565
809.883	28721
810.025	28771
810.166	28713
810.308	28908
810.45	28706
810.591	28653
810.733	28447
810.875	28386
811.016	28329
811.158	28459
811.299	28641
811.441	28847
811.582	28664
811.724	28481
811.865	28432
812.007	28451
812.148	28512
812.29	28451
812.431	28801
812.573	28839
812.714	28934
812.855	28957
812.997	29296
813.138	29151
813.279	29143
813.421	29014
813.562	28968
813.703	28885
813.845	28653
813.986	28466
814.127	28333
814.268	28188
814.41	28238
814.551	28185
814.692	28360
814.833	28196
814.974	28097
815.115	28299
815.256	28188
815.397	28128
815.539	28116
815.68	28025
815.821	27922
815.962	28029
816.103	28025
816.244	27903
816.385	27911
816.526	27907
816.666	27637
816.807	27576
816.948	27694
817.089	27663
817.23	27458
817.371	27492
817.512	27401
817.653	27603
817.793	27591
817.934	27431
818.075	27500
818.216	27660
818.356	27538
818.497	27317
818.638	27165
818.778	27287
818.919	27241
819.06	27344
819.2	27325
819.341	27416
819.481	27447
819.622	27785
819.762	27869
819.903	27709
820.043	27648
820.184	27652
820.324	27572
820.465	27789
820.605	27641
820.746	27629
820.886	27332
821.026	27564
821.167	27599
821.307	27595
821.447	27583
821.588	27492
821.728	27344
821.868	27180
822.008	26982
822.149	26998
822.289	26910
822.429	26781
822.569	26739
822.709	26579
822.849	26495
822.99	26556
823.13	26556
823.27	26336
823.41	26267
823.55	26271
823.69	26309
823.83	26408
823.97	26195
824.11	26252
824.25	26172
824.389	26149
824.529	26336
824.669	26130
824.809	26237
824.949	26336
825.089	26119
825.228	26164
825.368	26062
825.508	26050
825.648	25963
825.787	25989
825.927	26005
826.067	25944
826.206	25894
826.346	26008
826.485	25986
826.625	25959
826.765	26168
826.904	26065
827.044	25849
827.183	25772
827.323	25807
827.462	25780
827.601	25769
827.741	25658
827.88	25765
828.02	25655
828.159	25613
828.298	25635
828.437	25879
828.577	25620
828.716	25776
828.855	25609
828.994	25422
829.134	25430
829.273	25655
829.412	25514
829.551	25373
829.69	25384
829.829	25384
829.968	25479
830.107	25400
830.246	25289
830.385	25335
830.524	25343
830.663	25301
830.802	25034
830.941	24958
831.08	24890
831.219	25038
831.357	25148
831.496	25148
831.635	25050
831.774	25042
831.913	24962
832.051	24772
832.19	24848
832.329	24734
832.467	24551
832.606	24608
832.744	24715
832.883	24764
833.022	24715
833.16	24749
833.299	24760
833.437	24688
833.576	24825
833.714	24650
833.852	24715
833.991	24753
834.129	24730
834.267	24852
834.406	24741
834.544	24932
834.682	24768
834.821	24764
834.959	24897
835.097	24684
835.235	24924
835.373	24650
835.511	24623
835.65	24566
835.788	24593
835.926	24475
836.064	24486
836.202	24547
836.34	24635
836.478	24642
836.615	24631
836.753	24555
836.891	24654
837.029	24563
837.167	24566
837.305	24532
837.443	24410
837.58	24357
837.718	24513
837.856	24403
837.993	24437
838.131	24342
838.269	24251
838.406	24258
838.544	24281
838.681	24095
838.819	23980
838.956	23889
839.094	23851
839.231	23992
839.369	24060
839.506	24327
839.643	24140
839.781	23821
839.918	23866
840.055	23965
840.193	23745
840.33	23752
840.467	23630
840.604	23851
840.742	24171
840.879	23657
841.016	23611
841.153	23710
841.29	23813
841.427	23813
841.564	23813
841.701	23737
841.838	23718
841.975	23710
842.112	23638
842.249	23547
842.385	23604
842.522	23813
842.659	23630
842.796	23436
842.933	23543
843.069	23509
843.206	23531
843.343	23642
843.479	23539
843.616	23547
843.752	23227
843.889	23334
844.025	23410
844.162	23216
844.298	23383
844.435	23345
844.571	23330
844.708	23322
844.844	23463
844.98	23467
845.117	23414
845.253	23193
845.389	23155
845.525	23128
845.661	23166
845.798	23006
845.934	23041
846.07	23056
846.206	22930
846.342	23227
846.478	22999
846.614	22862
846.75	22786
846.886	22660
847.022	22915
847.158	22752
847.294	22733
847.429	22866
847.565	22656
847.701	22976
847.837	22428
847.972	22523
848.108	22577
848.244	22405
848.379	22466
848.515	22261
848.65	22314
848.786	22310
848.921	22344
849.057	22447
849.192	22459
849.328	22367
849.463	22295
849.598	22451
849.734	22234
849.869	22082
850.004	22169
850.14	22154
850.275	22143
850.41	22036
850.545	22124
850.68	22143
850.815	22124
850.95	22013
851.085	22318
851.22	22234
851.355	22154
851.49	22070
851.625	22074
851.76	22013
851.895	22097
852.03	22051
852.165	22188
852.299	22246
852.434	22154
852.569	22135
852.703	22158
852.838	22211
852.973	22196
853.107	22090
853.242	22074
853.376	21876
853.511	21903
853.645	21956
853.78	21934
853.914	22090
854.048	21949
854.183	21994
854.317	21915
854.451	22082
854.585	21842
854.72	21827
854.854	22093
854.988	21892
855.122	21857
855.256	21774
855.39	21937
855.524	21903
855.658	21930
855.792	21945
855.926	21903
856.06	21953
856.194	22067
856.327	21994
856.461	21869
856.595	21835
856.729	21869
856.862	21956
856.996	21972
857.13	22021
857.263	22105
857.397	22105
857.53	21876
857.664	21804
857.797	22029
857.931	21987
858.064	21941
858.197	22082
858.331	21835
858.464	21838
858.597	21888
858.731	21873
858.864	21873
858.997	21831
859.13	21808
859.263	21869
859.396	22051
859.529	21846
859.662	21884
859.795	21762
859.928	21945
860.061	22105
860.194	22173
860.327	22055
860.46	21895
860.592	21975
860.725	22086
860.858	22154
860.99	22017
861.123	21911
861.256	21953
861.388	21884
861.521	22698
861.653	21918
861.786	21644
861.918	21816
862.05	21895
862.183	21774
862.315	21838
862.447	21915
862.58	21675
862.712	21663
862.844	21545
862.976	21743
863.108	21694
863.24	22010
863.372	21507
863.504	21625
863.636	21652
863.768	21686
863.9	21701
864.032	21500
864.164	21545
864.296	21618
864.428	21660
864.559	21759
864.691	21739
864.823	21618
864.954	21622
865.086	21720
865.217	21660
865.349	21507
865.48	21481
865.612	21530
865.743	21606
865.875	21572
866.006	21526
866.137	21526
866.269	21485
866.4	21481
866.531	21454
866.662	21367
866.793	21454
866.924	21344
867.055	21378
867.186	21481
867.317	21447
867.448	21397
867.579	21469
867.71	21420
867.841	21355
867.972	21511
868.103	21340
868.233	21545
868.364	21348
868.495	21439
868.625	21656
868.756	21747
868.886	21545
869.017	21656
869.147	21865
869.278	21793
869.408	21778
869.539	21838
869.669	21816
869.799	21709
869.929	21823
870.06	21778
870.19	22036
870.32	21922
870.45	22036
870.58	22097
870.71	22143
870.84	22101
870.97	22074
871.1	22109
871.23	22192
871.36	22242
871.489	22109
871.619	22261
871.749	22291
871.879	22284
872.008	22341
872.138	22314
872.267	22280
872.397	22215
872.526	22044
872.656	22226
872.785	22082
872.915	22329
873.044	22394
873.173	22268
873.303	22352
873.432	22386
873.561	22478
873.69	22417
873.819	22310
873.948	22440
874.077	22375
874.206	22223
874.335	22253
874.464	22489
874.593	22485
874.722	22569
874.851	22527
874.979	22504
875.108	22607
875.237	22607
875.365	22303
875.494	22516
875.623	22683
875.751	22546
875.88	22546
876.008	22679
876.136	22752
876.265	22999
876.393	23033
876.521	23048
876.65	22885
876.778	22896
876.906	22839
877.034	22801
877.162	22900
877.29	22736
877.418	22809
877.546	22984
877.674	22816
877.802	22843
877.93	22767
878.058	22835
878.185	22847
878.313	22881
878.441	22843
878.568	22691
878.696	22698
878.824	22915
878.951	22923
879.079	22965
879.206	23170
879.333	22972
879.461	22885
879.588	22987
879.715	23060
879.842	23124
879.97	23025
880.097	22660
880.224	22645
880.351	22653
880.478	22748
880.605	22660
880.732	22698
880.859	22949
880.986	22805
881.112	22599
881.239	22580
881.366	22554
881.493	22299
881.619	22215
881.746	22261
881.872	22268
881.999	22230
882.125	22135
882.252	22261
882.378	22192
882.505	22363
882.631	22139
882.757	21983
882.883	22013
883.01	21884
883.136	21895
883.262	21812
883.388	21804
883.514	22017
883.64	21968
883.766	22006
883.892	21728
884.018	21785
884.143	21789
884.269	21949
884.395	21778
884.52	21549
884.646	21595
884.772	21595
884.897	21443
885.023	21656
885.148	21682
885.274	21675
885.399	21667
885.524	21564
885.65	21614
885.775	21606
885.9	21564
886.025	21724
886.15	21720
886.275	21587
886.4	21511
886.525	21618
886.65	21561
886.775	21564
886.9	21724
887.025	21781
887.149	21648
887.274	21431
887.399	21249
887.523	21458
887.648	21195
887.773	21283
887.897	21405
888.021	21408
888.146	21351
888.27	21336
888.395	21302
888.519	21378
888.643	21291
888.767	21416
888.891	21142
889.015	21195
889.139	21154
889.263	21096
889.387	21154
889.511	21260
889.635	21272
889.759	21195
889.883	21062
890.006	21146
890.13	21272
890.254	20960
890.377	21017
890.501	20921
890.624	20754
890.748	21104
890.871	20731
890.995	20682
891.118	20617
891.241	20708
891.364	20716
891.488	20804
891.611	20644
891.734	20712
891.857	20777
891.98	20667
892.103	20857
892.226	20609
892.349	20670
892.471	20457
892.594	20644
892.717	20670
892.839	20659
892.962	20648
893.085	20651
893.207	20526
893.33	20480
893.452	20522
893.575	20727
893.697	20587
893.819	20674
893.941	20785
894.064	20598
894.186	20648
894.308	20415
894.43	20727
894.552	20701
894.674	20663
894.796	20632
894.918	20545
895.04	20492
895.161	20594
895.283	20735
895.405	20511
895.526	20583
895.648	20568
895.769	20518
895.891	20674
896.012	20678
896.134	20613
896.255	20636
896.376	20518
896.498	20556
896.619	20674
896.74	20571
896.861	20731
896.982	20944
897.103	21074
897.224	21017
897.345	20686
897.466	20655
897.587	20765
897.708	20876
897.828	20857
897.949	20731
898.07	20552
898.19	20762
898.311	20887
898.431	20754
898.552	20777
898.672	20902
898.792	20807
898.913	20849
899.033	20636
899.153	20674
899.273	20446
899.393	20393
899.513	20632
899.633	20552
899.753	20541
899.873	20457
899.993	20480
900.113	20507
900.232	20434
900.352	20518
900.472	20347
900.591	20263
900.711	20385
900.83	20328
900.95	20328
901.069	20457
901.189	20309
901.308	19967
901.427	19932
901.546	19860
901.665	19887
901.784	19833
901.904	19670
902.023	19624
902.141	19510
902.26	19434
902.379	19571
902.498	19434
902.617	19320
902.735	19350
902.854	19419
902.973	19304
903.091	19095
903.21	19099
903.328	19099
903.446	18973
903.565	18821
903.683	18795
903.801	18738
903.919	18814
904.038	18726
904.156	18597
904.274	18711
904.392	18578
904.51	18639
904.627	18604
904.745	18616
904.863	18616
904.981	18361
905.098	18273
905.216	18323
905.334	18365
905.451	18334
905.569	18201
905.686	18289
905.803	18315
905.921	18144
906.038	18163
906.155	18114
906.272	17931
906.389	17961
906.506	17851
906.623	17832
906.74	17866
906.857	17672
906.974	17653
907.091	17840
907.208	17923
907.324	17904
907.441	17729
907.557	17524
907.674	17554
907.79	17425
907.907	17554
908.023	17543
908.139	17478
908.256	17482
908.372	17558
908.488	17345
908.604	17406
908.72	17162
908.836	17254
908.952	17166
909.068	17296
909.184	17376
909.3	17216
909.415	17178
909.531	17193
909.647	16968
909.762	16999
909.878	17014
909.993	16839
910.108	16927
910.224	16831
910.339	16866
910.454	16740
910.57	16660
910.685	16653
910.8	16911
910.915	16904
911.03	16733
911.145	16618
911.259	16535
911.374	16527
911.489	16519
911.604	16405
911.718	16402
911.833	16226
911.947	16200
912.062	16097
912.176	16261
912.291	16287
912.405	16204
912.519	16440
912.633	16485
912.748	16303
912.862	16325
912.976	16048
913.09	15926
913.204	16093
913.318	16010
913.431	16181
913.545	16105
913.659	16162
913.772	16002
913.886	15956
914	15857
914.113	15953
914.226	15994
914.34	16067
914.453	15759
914.566	15857
914.68	15751
914.793	15728
914.906	15530
915.019	15534
915.132	15435
915.245	15576
915.358	15595
915.47	15458
915.583	15485
915.696	15564
915.809	15595
915.921	15637
916.034	15557
916.146	15386
916.259	15344
916.371	15416
916.483	15500
916.595	15283
916.708	15340
916.82	15340
916.932	15294
917.044	15291
917.156	15268
917.268	15157
917.38	15112
917.491	15131
917.603	15104
917.715	15135
917.826	15237
917.938	15005
918.049	15028
918.161	15108
918.272	15226
918.384	15275
918.495	15123
918.606	14944
918.717	14876
918.828	14956
918.939	14956
919.05	14838
919.161	14845
919.272	14651
919.383	14720
919.494	14857
919.604	15150
919.715	14910
919.826	14823
919.936	14864
920.047	14960
920.157	14807
920.267	15089
920.378	14845
920.488	14830
920.598	15020
920.708	15131
920.818	15116
920.928	14963
921.038	15203
921.148	15104
921.258	14781
921.368	14720
921.477	14655
921.587	14583
921.697	14507
921.806	14629
921.916	14507
922.025	14366
922.134	14271
922.244	14191
922.353	14233
922.462	14115
922.571	14134
922.68	13909
922.789	13852
922.898	13921
923.007	13845
923.116	13902
923.224	13845
923.333	13868
923.442	13693
923.55	13632
923.659	13769
923.767	13753
923.876	13693
923.984	13670
924.092	13670
924.201	13658
924.309	13647
924.417	13609
924.525	13525
924.633	13601
924.741	14457
924.849	13350
924.956	13438
925.064	13343
925.172	13149
925.279	13289
925.387	13274
925.494	13259
925.602	13327
925.709	13274
925.816	13202
925.924	13289
926.031	13274
926.138	13244
926.245	13293
926.352	13141
926.459	13202
926.566	13266
926.673	13137
926.779	13038
926.886	13038
926.993	12905
927.099	12852
927.206	12795
927.312	12700
927.419	12848
927.525	12821
927.631	12802
927.737	12642
927.843	12681
927.95	12555
928.056	12646
928.162	12658
928.267	12703
928.373	13240
928.479	12597
928.585	12536
928.69	12574
928.796	12650
928.901	12490
929.007	12441
929.112	12422
929.218	12445
929.323	12403
929.428	12292
929.533	12422
929.638	12296
929.743	12289
929.848	12330
929.953	12342
930.058	12209
930.163	12022
930.267	12106
930.372	12220
930.477	11992
930.581	12186
930.685	12072
930.79	11897
930.894	11939
930.998	11980
931.103	11992
931.207	11661
931.311	11566
931.415	11509
931.519	11258
931.623	11315
