Data from test_V78500241_1828.txt Node
Date: Fri Mar 25 15:54:27 CST 2022
User: usil
Spectrometer: V785-0024
Trigger mode: 0
Integration Time (sec): 4.000000E-1
Scans to average: 1
Nonlinearity correction enabled: false
Boxcar width: 0
Storing dark spectrum: false
XAxis mode: Wavelengths
Number of Pixels in Spectrum: 1024
>>>>>Begin Spectral Data<<<<<
801.071	28885
801.214	28668
801.356	28470
801.499	28421
801.641	28322
801.783	28379
801.926	28265
802.068	28303
802.211	28394
802.353	28234
802.496	27998
802.638	27975
802.78	27835
802.923	27941
803.065	27816
803.208	27880
803.35	27987
803.492	28158
803.635	28249
803.777	27994
803.919	28268
804.061	28443
804.204	28253
804.346	28109
804.488	28006
804.63	28131
804.773	28105
804.915	28280
805.057	28382
805.199	28177
805.341	28242
805.483	28478
805.626	28401
805.768	28291
805.91	28405
806.052	28493
806.194	28287
806.336	28535
806.478	28428
806.62	28303
806.762	28538
806.904	28538
807.046	28793
807.188	28771
807.33	28805
807.472	28869
807.614	28915
807.756	28805
807.898	28675
808.04	28763
808.182	28653
808.324	28721
808.465	28824
808.607	28938
808.749	29094
808.891	29102
809.033	29239
809.174	29227
809.316	29041
809.458	28980
809.6	29003
809.741	29121
809.883	29280
810.025	29284
810.166	29372
810.308	29414
810.45	29341
810.591	29200
810.733	29105
810.875	29079
811.016	28904
811.158	28953
811.299	29075
811.441	29181
811.582	29117
811.724	29140
811.865	29140
812.007	28968
812.148	29056
812.29	29098
812.431	29220
812.573	29391
812.714	29349
812.855	29558
812.997	29676
813.138	29745
813.279	29760
813.421	29611
813.562	29531
813.703	29379
813.845	29277
813.986	28999
814.127	28847
814.268	28793
814.41	28618
814.551	28801
814.692	28828
814.833	28649
814.974	28679
815.115	28782
815.256	28721
815.397	28538
815.539	28611
815.68	28554
815.821	28565
815.962	28664
816.103	28554
816.244	28428
816.385	28443
816.526	28390
816.666	28268
816.807	28090
816.948	28093
817.089	28173
817.23	28120
817.371	28002
817.512	28147
817.653	28093
817.793	28074
817.934	28074
818.075	28048
818.216	27949
818.356	28070
818.497	27930
818.638	27827
818.778	27827
818.919	27914
819.06	27994
819.2	28010
819.341	28112
819.481	27994
819.622	28417
819.762	28432
819.903	28481
820.043	28382
820.184	28238
820.324	28093
820.465	28204
820.605	28166
820.746	28173
820.886	28169
821.026	28124
821.167	28154
821.307	28219
821.447	28112
821.588	27972
821.728	27895
821.868	27724
822.008	27561
822.149	27660
822.289	27481
822.429	27340
822.569	27226
822.709	27416
822.849	27066
822.99	27108
823.13	27085
823.27	27100
823.41	26952
823.55	26815
823.69	26720
823.83	26895
823.97	26830
824.11	26746
824.25	26640
824.389	26765
824.529	26765
824.669	26632
824.809	26883
824.949	26940
825.089	26746
825.228	26651
825.368	26594
825.508	26465
825.648	26659
825.787	26503
825.927	26568
826.067	26636
826.206	26530
826.346	26632
826.485	26788
826.625	26712
826.765	26655
826.904	26735
827.044	26400
827.183	26358
827.323	26278
827.462	26438
827.601	26328
827.741	26248
827.88	26355
828.02	26176
828.159	26313
828.298	26438
828.437	26351
828.577	26191
828.716	26324
828.855	26210
828.994	26024
829.134	26065
829.273	26210
829.412	25970
829.551	26103
829.69	25932
829.829	26024
829.968	26081
830.107	26081
830.246	25974
830.385	25921
830.524	25860
830.663	25719
830.802	25757
830.941	25670
831.08	25544
831.219	25864
831.357	25700
831.496	25852
831.635	25578
831.774	25540
831.913	25540
832.051	25468
832.19	25369
832.329	25495
832.467	25403
832.606	25354
832.744	25110
832.883	25308
833.022	25198
833.16	25282
833.299	25369
833.437	25251
833.576	25346
833.714	25343
833.852	25365
833.991	25460
834.129	25457
834.267	25369
834.406	25483
834.544	25365
834.682	25270
834.821	25304
834.959	25632
835.097	25312
835.235	25327
835.373	25297
835.511	25358
835.65	25194
835.788	25137
835.926	25152
836.064	25072
836.202	24905
836.34	25202
836.478	25301
836.615	25148
836.753	25179
836.891	25225
837.029	25099
837.167	25107
837.305	25126
837.443	24989
837.58	24954
837.718	25088
837.856	25053
837.993	25027
838.131	24985
838.269	24932
838.406	25015
838.544	24817
838.681	24700
838.819	24631
838.956	24551
839.094	24452
839.231	24498
839.369	24658
839.506	24886
839.643	24700
839.781	24464
839.918	24566
840.055	24532
840.193	24311
840.33	24418
840.467	24399
840.604	24410
840.742	24616
840.879	24205
841.016	24281
841.153	24254
841.29	24445
841.427	24319
841.564	24342
841.701	24327
841.838	24369
841.975	24277
842.112	24239
842.249	24251
842.385	24163
842.522	24232
842.659	24148
842.796	24015
842.933	24163
843.069	23992
843.206	23935
843.343	24182
843.479	24102
843.616	24167
843.752	23885
843.889	23935
844.025	23950
844.162	23843
844.298	23954
844.435	23882
844.571	23748
844.708	23817
844.844	23988
844.98	24038
845.117	23939
845.253	23798
845.389	23745
845.525	23878
845.661	23779
845.798	23611
845.934	23748
846.07	23687
846.206	23417
846.342	23885
846.478	23531
846.614	23417
846.75	23265
846.886	23284
847.022	23391
847.158	23345
847.294	23322
847.429	23421
847.565	23288
847.701	23566
847.837	22885
847.972	23124
848.108	23132
848.244	23132
848.379	22915
848.515	22972
848.65	22938
848.786	22987
848.921	23010
849.057	22949
849.192	23071
849.328	22984
849.463	22949
849.598	22820
849.734	22759
849.869	22831
850.004	22664
850.14	22725
850.275	22645
850.41	22580
850.545	22675
850.68	22596
850.815	22797
850.95	22698
851.085	22824
851.22	22805
851.355	22717
851.49	22721
851.625	22736
851.76	22618
851.895	22660
852.03	22706
852.165	22733
852.299	22771
852.434	22717
852.569	22660
852.703	22679
852.838	22721
852.973	22801
853.107	22763
853.242	22645
853.376	22626
853.511	22322
853.645	22512
853.78	22615
853.914	22508
854.048	22542
854.183	22474
854.317	22542
854.451	22637
854.585	22554
854.72	22504
854.854	22557
854.988	22455
855.122	22512
855.256	22402
855.39	22523
855.524	22637
855.658	22542
855.792	22455
855.926	22615
856.06	22561
856.194	22466
856.327	22493
856.461	22565
856.595	22497
856.729	22546
856.862	22622
856.996	22618
857.13	22626
857.263	22694
857.397	22516
857.53	22519
857.664	22649
857.797	22459
857.931	22596
858.064	22409
858.197	22622
858.331	22367
858.464	22375
858.597	22329
858.731	22367
858.864	22481
858.997	22519
859.13	22440
859.263	22557
859.396	22630
859.529	22394
859.662	22481
859.795	22413
859.928	22512
860.061	22634
860.194	22736
860.327	22531
860.46	22622
860.592	22752
860.725	22706
860.858	22588
860.99	22432
861.123	22440
861.256	22421
861.388	22493
861.521	23288
861.653	22394
861.786	22287
861.918	22337
862.05	22379
862.183	22405
862.315	22318
862.447	22577
862.58	22443
862.712	22219
862.844	22135
862.976	22348
863.108	22295
863.24	22713
863.372	22185
863.504	22211
863.636	22226
863.768	22215
863.9	22200
864.032	22040
864.164	22135
864.296	22139
864.428	22375
864.559	22276
864.691	22310
864.823	22238
864.954	22242
865.086	22090
865.217	22124
865.349	22070
865.48	22040
865.612	22181
865.743	22154
865.875	22101
866.006	22013
866.137	22112
866.269	22093
866.4	22109
866.531	21983
866.662	21911
866.793	22128
866.924	22044
867.055	22112
867.186	22097
867.317	21991
867.448	21915
867.579	22074
867.71	21960
867.841	21884
867.972	22021
868.103	22013
868.233	22067
868.364	22006
868.495	22074
868.625	22196
868.756	22257
868.886	22192
869.017	22226
869.147	22375
869.278	22341
869.408	22382
869.539	22253
869.669	22390
869.799	22314
869.929	22386
870.06	22363
870.19	22474
870.32	22500
870.45	22611
870.58	22607
870.71	22793
870.84	22744
870.97	22622
871.1	22748
871.23	22790
871.36	22858
871.489	22713
871.619	22961
871.749	22938
871.879	22763
872.008	23006
872.138	22866
872.267	22801
872.397	22691
872.526	22535
872.656	22721
872.785	22710
872.915	22850
873.044	22862
873.173	22797
873.303	22927
873.432	22847
873.561	23029
873.69	22919
873.819	22771
873.948	23003
874.077	22904
874.206	22809
874.335	22965
874.464	23022
874.593	23037
874.722	23128
874.851	23124
874.979	23189
875.108	23121
875.237	23102
875.365	23056
875.494	23060
875.623	23037
875.751	23056
875.88	23102
876.008	23216
876.136	23174
876.265	23417
876.393	23646
876.521	23493
876.65	23501
876.778	23520
876.906	23372
877.034	23433
877.162	23402
877.29	23459
877.418	23497
877.546	23433
877.674	23261
877.802	23284
877.93	23429
878.058	23391
878.185	23345
878.313	23303
878.441	23440
878.568	23258
878.696	23402
878.824	23455
878.951	23391
879.079	23551
879.206	23676
879.333	23493
879.461	23531
879.588	23551
879.715	23665
879.842	23745
879.97	23398
880.097	23193
880.224	23341
880.351	23258
880.478	23212
880.605	23261
880.732	23174
880.859	23440
880.986	23200
881.112	23220
881.239	23109
881.366	23056
881.493	22839
881.619	22763
881.746	22858
881.872	22653
881.999	22797
882.125	22729
882.252	22729
882.378	22862
882.505	22797
882.631	22634
882.757	22538
882.883	22611
883.01	22462
883.136	22390
883.262	22325
883.388	22333
883.514	22615
883.64	22519
883.766	22325
883.892	22185
884.018	22253
884.143	22306
884.269	22497
884.395	22120
884.52	22067
884.646	22169
884.772	21926
884.897	22010
885.023	22166
885.148	22287
885.274	22280
885.399	22215
885.524	22101
885.65	22200
885.775	22109
885.9	22048
886.025	22284
886.15	22051
886.275	22139
886.4	21937
886.525	22055
886.65	22070
886.775	21930
886.9	22242
887.025	22276
887.149	22059
887.274	21926
887.399	21922
887.523	21808
887.648	21884
887.773	21743
887.897	21911
888.021	21892
888.146	21762
888.27	21922
888.395	21941
888.519	21899
888.643	21922
888.767	21934
888.891	21785
889.015	21595
889.139	21530
889.263	21660
889.387	21682
889.511	21892
889.635	21835
889.759	21675
889.883	21686
890.006	21755
890.13	21873
890.254	21545
890.377	21652
890.501	21454
890.624	21485
890.748	21405
890.871	21283
890.995	21218
891.118	21074
891.241	21283
891.364	21195
891.488	21233
891.611	21279
891.734	21112
891.857	21230
891.98	21249
892.103	21279
892.226	21211
892.349	21154
892.471	21043
892.594	21199
892.717	21230
892.839	21047
892.962	21096
893.085	21211
893.207	21199
893.33	21005
893.452	21150
893.575	21180
893.697	21138
893.819	21249
893.941	21260
894.064	21188
894.186	21066
894.308	20982
894.43	21116
894.552	21230
894.674	21222
894.796	21017
894.918	21112
895.04	21131
895.161	21146
895.283	21222
895.405	21039
895.526	21135
895.648	21184
895.769	21104
895.891	21135
896.012	21089
896.134	21108
896.255	21207
896.376	21005
896.498	21119
896.619	21176
896.74	21150
896.861	21203
896.982	21439
897.103	21473
897.224	21340
897.345	21351
897.466	21348
897.587	21313
897.708	21530
897.828	21291
897.949	21214
898.07	21108
898.19	21150
898.311	21359
898.431	21226
898.552	21321
898.672	21340
898.792	21359
898.913	21370
899.033	21157
899.153	21077
899.273	21001
899.393	21062
899.513	21081
899.633	20963
899.753	21043
899.873	20948
899.993	21020
900.113	21013
900.232	20906
900.352	20883
900.472	20960
900.591	20826
900.711	20769
900.83	20861
900.95	20902
901.069	20788
901.189	20659
901.308	20374
901.427	20332
901.546	20358
901.665	20427
901.784	20298
901.904	20305
902.023	20107
902.141	19925
902.26	19890
902.379	19883
902.498	20016
902.617	19913
902.735	19909
902.854	19765
902.973	19830
903.091	19514
903.21	19419
903.328	19453
903.446	19407
903.565	19449
903.683	19354
903.801	19289
903.919	19293
904.038	19202
904.156	19122
904.274	19228
904.392	19095
904.51	18981
904.627	19031
904.745	19065
904.863	19190
904.981	18802
905.098	18738
905.216	18719
905.334	18745
905.451	18783
905.569	18779
905.686	18760
905.803	18715
905.921	18494
906.038	18658
906.155	18574
906.272	18483
906.389	18391
906.506	18330
906.623	18361
906.74	18365
906.857	18220
906.974	18232
907.091	18315
907.208	18456
907.324	18148
907.441	18148
907.557	18076
907.674	17999
907.79	17874
907.907	17969
908.023	17984
908.139	17935
908.256	17969
908.372	17904
908.488	17741
908.604	17779
908.72	17733
908.836	17729
908.952	17592
909.068	17642
909.184	17718
909.3	17710
909.415	17714
909.531	17767
909.647	17315
909.762	17467
909.878	17433
909.993	17444
910.108	17383
910.224	17303
910.339	17402
910.454	17372
910.57	17193
910.685	17090
910.8	17425
910.915	17391
911.03	17105
911.145	17052
911.259	16968
911.374	16976
911.489	16889
911.604	16839
911.718	16805
911.833	16721
911.947	16653
912.062	16500
912.176	16702
912.291	16679
912.405	16630
912.519	16923
912.633	16877
912.748	16725
912.862	16656
912.976	16451
913.09	16516
913.204	16493
913.318	16478
913.431	16668
913.545	16538
913.659	16626
913.772	16451
913.886	16306
914	16268
914.113	16363
914.226	16569
914.34	16466
914.453	16268
914.566	16394
914.68	16204
914.793	16116
914.906	15953
915.019	16025
915.132	15861
915.245	15941
915.358	15975
915.47	15987
915.583	15972
915.696	15876
915.809	16013
915.921	16071
916.034	15884
916.146	15842
916.259	15682
916.371	15774
916.483	15751
916.595	15679
916.708	15675
916.82	15701
916.932	15671
917.044	15656
917.156	15606
917.268	15504
917.38	15420
917.491	15477
917.603	15500
917.715	15614
917.826	15606
917.938	15561
918.049	15447
918.161	15530
918.272	15584
918.384	15523
918.495	15420
918.606	15317
918.717	15260
918.828	15222
918.939	15298
919.05	15169
919.161	15142
919.272	15055
919.383	15074
919.494	15249
919.604	15420
919.715	15363
919.826	15165
919.936	15230
920.047	15241
920.157	15264
920.267	15386
920.378	15203
920.488	15135
920.598	15408
920.708	15439
920.818	15302
920.928	15321
921.038	15450
921.148	15382
921.258	15150
921.368	15066
921.477	14952
921.587	14891
921.697	14792
921.806	14979
921.916	14792
922.025	14705
922.134	14530
922.244	14541
922.353	14545
922.462	14530
922.571	14351
922.68	14237
922.789	14290
922.898	14214
923.007	14233
923.116	14248
923.224	14172
923.333	14218
923.442	13993
923.55	14073
923.659	14046
923.767	14054
923.876	13993
923.984	14039
924.092	13849
924.201	13913
924.309	13932
924.417	13951
924.525	13746
924.633	13837
924.741	14617
924.849	13628
924.956	13643
925.064	13693
925.172	13491
925.279	13575
925.387	13658
925.494	13533
925.602	13750
925.709	13628
925.816	13422
925.924	13514
926.031	13594
926.138	13533
926.245	13518
926.352	13381
926.459	13556
926.566	13537
926.673	13438
926.779	13369
926.886	13289
926.993	13137
927.099	13118
927.206	13114
927.312	13122
927.419	13034
927.525	13126
927.631	13221
927.737	13088
927.843	12935
927.95	12943
928.056	12905
928.162	12932
928.267	12954
928.373	13616
928.479	12993
928.585	12738
928.69	12886
928.796	12867
928.901	12844
929.007	12658
929.112	12795
929.218	12791
929.323	12631
929.428	12650
929.533	12753
929.638	12445
929.743	12563
929.848	12654
929.953	12559
930.058	12445
930.163	12315
930.267	12311
930.372	12448
930.477	12205
930.581	12467
930.685	12410
930.79	12220
930.894	12247
930.998	12201
931.103	12262
931.207	11935
931.311	11870
931.415	11908
931.519	11623
931.623	11532
