Data from test_V78500241_3401.txt Node
Date: Fri Mar 25 16:05:21 CST 2022
User: usil
Spectrometer: V785-0024
Trigger mode: 0
Integration Time (sec): 4.000000E-1
Scans to average: 1
Nonlinearity correction enabled: false
Boxcar width: 0
Storing dark spectrum: false
XAxis mode: Wavelengths
Number of Pixels in Spectrum: 1024
>>>>>Begin Spectral Data<<<<<
801.071	28679
801.214	28630
801.356	28394
801.499	28223
801.641	28112
801.783	28093
801.926	28257
802.068	28021
802.211	27903
802.353	28143
802.496	27994
802.638	27907
802.78	28002
802.923	27873
803.065	27701
803.208	27800
803.35	27911
803.492	28059
803.635	28002
803.777	28010
803.919	28162
804.061	28394
804.204	28268
804.346	28124
804.488	28017
804.63	28234
804.773	28025
804.915	28154
805.057	28234
805.199	28291
805.341	28154
805.483	28265
805.626	28223
805.768	28101
805.91	28200
806.052	28230
806.194	28177
806.336	28413
806.478	28181
806.62	28295
806.762	28341
806.904	28554
807.046	28729
807.188	28637
807.33	28820
807.472	28763
807.614	28736
807.756	28626
807.898	28683
808.04	28577
808.182	28554
808.324	28683
808.465	28538
808.607	28740
808.749	29025
808.891	29044
809.033	29052
809.174	29048
809.316	28972
809.458	28869
809.6	28892
809.741	29079
809.883	29067
810.025	29174
810.166	29121
810.308	29265
810.45	29189
810.591	29132
810.733	29109
810.875	28900
811.016	28915
811.158	28835
811.299	29109
811.441	29189
811.582	29200
811.724	29067
811.865	28858
812.007	28957
812.148	28885
812.29	28984
812.431	29178
812.573	29284
812.714	29425
812.855	29444
812.997	29581
813.138	29661
813.279	29566
813.421	29547
813.562	29395
813.703	29292
813.845	29159
813.986	28938
814.127	28850
814.268	28778
814.41	28694
814.551	28664
814.692	28774
814.833	28622
814.974	28664
815.115	28691
815.256	28592
815.397	28489
815.539	28626
815.68	28497
815.821	28375
815.962	28466
816.103	28443
816.244	28230
816.385	28291
816.526	28230
816.666	28131
816.807	27968
816.948	28036
817.089	27994
817.23	28048
817.371	28147
817.512	28036
817.653	28036
817.793	27751
817.934	28093
818.075	27998
818.216	27979
818.356	27960
818.497	27778
818.638	27603
818.778	27648
818.919	27854
819.06	27701
819.2	27914
819.341	27888
819.481	27861
819.622	28025
819.762	28436
819.903	28200
820.043	28329
820.184	28059
820.324	28017
820.465	28158
820.605	28109
820.746	28196
820.886	27937
821.026	28112
821.167	28109
821.307	28082
821.447	28147
821.588	27956
821.728	27701
821.868	27606
822.008	27485
822.149	27462
822.289	27348
822.429	27268
822.569	27180
822.709	27268
822.849	27024
822.99	26990
823.13	26975
823.27	26944
823.41	26762
823.55	26708
823.69	26899
823.83	26849
823.97	26849
824.11	26731
824.25	26450
824.389	26480
824.529	26670
824.669	26587
824.809	26815
824.949	26682
825.089	26568
825.228	26838
825.368	26473
825.508	26533
825.648	26473
825.787	26511
825.927	26526
826.067	26495
826.206	26495
826.346	26587
826.485	26701
826.625	26556
826.765	26537
826.904	26602
827.044	26294
827.183	26229
827.323	26229
827.462	26282
827.601	26240
827.741	26164
827.88	26362
828.02	26115
828.159	26244
828.298	26347
828.437	26332
828.577	26240
828.716	26252
828.855	26145
828.994	26096
829.134	26005
829.273	25852
829.412	25791
829.551	25913
829.69	25902
829.829	25974
829.968	25966
830.107	26043
830.246	26020
830.385	25947
830.524	25750
830.663	25693
830.802	25689
830.941	25472
831.08	25502
831.219	25594
831.357	25514
831.496	25708
831.635	25506
831.774	25525
831.913	25445
832.051	25255
832.19	25263
832.329	25350
832.467	25244
832.606	25072
832.744	25118
832.883	25225
833.022	25209
833.16	25221
833.299	25244
833.437	25285
833.576	25251
833.714	25240
833.852	25365
833.991	25343
834.129	25350
834.267	25320
834.406	25343
834.544	25221
834.682	25316
834.821	25228
834.959	25460
835.097	25228
835.235	25274
835.373	25259
835.511	25164
835.65	25099
835.788	25137
835.926	24966
836.064	24875
836.202	25008
836.34	25190
836.478	25126
836.615	25027
836.753	25091
836.891	25148
837.029	25190
837.167	25107
837.305	24840
837.443	25114
837.58	24814
837.718	24871
837.856	24932
837.993	24840
838.131	24958
838.269	24779
838.406	24833
838.544	24612
838.681	24665
838.819	24627
838.956	24418
839.094	24346
839.231	24452
839.369	24513
839.506	24821
839.643	24513
839.781	24467
839.918	24277
840.055	24403
840.193	24388
840.33	24205
840.467	24319
840.604	24266
840.742	24589
840.879	24114
841.016	24224
841.153	24125
841.29	24350
841.427	24114
841.564	24262
841.701	24239
841.838	24224
841.975	24049
842.112	24129
842.249	24038
842.385	23973
842.522	24186
842.659	24133
842.796	24034
842.933	24022
843.069	24011
843.206	23992
843.343	24125
843.479	24095
843.616	24155
843.752	23889
843.889	23897
844.025	24095
844.162	23828
844.298	23882
844.435	23752
844.571	23840
844.708	23870
844.844	24003
844.98	23882
845.117	23878
845.253	23638
845.389	23573
845.525	23710
845.661	23775
845.798	23429
845.934	23726
846.07	23478
846.206	23619
846.342	23699
846.478	23520
846.614	23334
846.75	23185
846.886	23258
847.022	23303
847.158	23239
847.294	23197
847.429	23265
847.565	23223
847.701	23547
847.837	23041
847.972	23003
848.108	22999
848.244	23204
848.379	22946
848.515	22721
848.65	22744
848.786	22869
848.921	22919
849.057	22892
849.192	22938
849.328	22946
849.463	22987
849.598	22797
849.734	22755
849.869	22637
850.004	22717
850.14	22771
850.275	22656
850.41	22455
850.545	22447
850.68	22535
850.815	22603
850.95	22611
851.085	22850
851.22	22778
851.355	22664
851.49	22493
851.625	22649
851.76	22569
851.895	22481
852.03	22531
852.165	22607
852.299	22653
852.434	22733
852.569	22554
852.703	22500
852.838	22645
852.973	22683
853.107	22786
853.242	22645
853.376	22497
853.511	22371
853.645	22474
853.78	22588
853.914	22489
854.048	22481
854.183	22398
854.317	22519
854.451	22702
854.585	22485
854.72	22535
854.854	22493
854.988	22386
855.122	22432
855.256	22329
855.39	22405
855.524	22489
855.658	22516
855.792	22451
855.926	22417
856.06	22443
856.194	22577
856.327	22421
856.461	22459
856.595	22344
856.729	22284
856.862	22607
856.996	22573
857.13	22561
857.263	22508
857.397	22573
857.53	22535
857.664	22542
857.797	22367
857.931	22519
858.064	22356
858.197	22519
858.331	22379
858.464	22489
858.597	22413
858.731	22421
858.864	22367
858.997	22535
859.13	22363
859.263	22344
859.396	22527
859.529	22291
859.662	22405
859.795	22386
859.928	22367
860.061	22622
860.194	22653
860.327	22424
860.46	22375
860.592	22645
860.725	22584
860.858	22554
860.99	22436
861.123	22322
861.256	22371
861.388	22466
861.521	23239
861.653	22409
861.786	22219
861.918	22253
862.05	22295
862.183	22348
862.315	22299
862.447	22508
862.58	22314
862.712	22185
862.844	22322
862.976	22268
863.108	22158
863.24	22710
863.372	22013
863.504	22109
863.636	22215
863.768	22166
863.9	22162
864.032	22162
864.164	22109
864.296	22154
864.428	22204
864.559	22154
864.691	22246
864.823	22162
864.954	22196
865.086	22086
865.217	22093
865.349	21930
865.48	22051
865.612	22093
865.743	22150
865.875	22105
866.006	21930
866.137	21991
866.269	21983
866.4	21918
866.531	21846
866.662	21934
866.793	22002
866.924	22067
867.055	21930
867.186	21960
867.317	21953
867.448	21812
867.579	21960
867.71	21854
867.841	21804
867.972	21835
868.103	21876
868.233	21956
868.364	21949
868.495	22063
868.625	22120
868.756	22192
868.886	22204
869.017	22207
869.147	22249
869.278	22299
869.408	22135
869.539	22337
869.669	22204
869.799	22226
869.929	22390
870.06	22466
870.19	22660
870.32	22607
870.45	22462
870.58	22702
870.71	22683
870.84	22809
870.97	22542
871.1	22550
871.23	22767
871.36	22866
871.489	22721
871.619	22809
871.749	22938
871.879	22923
872.008	22930
872.138	22854
872.267	22805
872.397	22679
872.526	22561
872.656	22519
872.785	22656
872.915	22949
873.044	22904
873.173	22733
873.303	22847
873.432	22892
873.561	22896
873.69	22843
873.819	22778
873.948	22858
874.077	22767
874.206	22801
874.335	22797
874.464	22972
874.593	22946
874.722	23060
874.851	23025
874.979	23113
875.108	23159
875.237	23029
875.365	22942
875.494	22957
875.623	23124
875.751	23037
875.88	23003
876.008	23178
876.136	23121
876.265	23505
876.393	23410
876.521	23467
876.65	23600
876.778	23417
876.906	23482
877.034	23322
877.162	23360
877.29	23337
877.418	23421
877.546	23307
877.674	23356
877.802	23452
877.93	23414
878.058	23398
878.185	23299
878.313	23345
878.441	23402
878.568	23181
878.696	23406
878.824	23402
878.951	23410
879.079	23524
879.206	23653
879.333	23573
879.461	23467
879.588	23528
879.715	23573
879.842	23687
879.97	23558
880.097	23204
880.224	23204
880.351	23326
880.478	23200
880.605	23178
880.732	23239
880.859	23417
880.986	23197
881.112	23212
881.239	23185
881.366	22904
881.493	22904
881.619	22748
881.746	22782
881.872	22790
881.999	22725
882.125	22740
882.252	22679
882.378	22896
882.505	22793
882.631	22603
882.757	22523
882.883	22542
883.01	22561
883.136	22436
883.262	22318
883.388	22295
883.514	22402
883.64	22474
883.766	22276
883.892	22230
884.018	22253
884.143	22390
884.269	22402
884.395	22139
884.52	22196
884.646	22230
884.772	22021
884.897	22093
885.023	21998
885.148	22219
885.274	22261
885.399	22249
885.524	22109
885.65	21983
885.775	22135
885.9	21922
886.025	22097
886.15	22246
886.275	22044
886.4	22010
886.525	22032
886.65	21994
886.775	21960
886.9	22055
887.025	22226
887.149	22029
887.274	21816
887.399	21831
887.523	21781
887.648	21850
887.773	21633
887.897	21972
888.021	21827
888.146	21660
888.27	21888
888.395	21884
888.519	21930
888.643	21884
888.767	21869
888.891	21633
889.015	21656
889.139	21739
889.263	21606
889.387	21766
889.511	21972
889.635	21618
889.759	21530
889.883	21534
890.006	21713
890.13	21717
890.254	21534
890.377	21599
890.501	21367
890.624	21332
890.748	21359
890.871	21207
890.995	21089
891.118	21161
891.241	21062
891.364	21218
891.488	21283
891.611	21272
891.734	21100
891.857	21241
891.98	21154
892.103	21154
892.226	21245
892.349	21116
892.471	20902
892.594	21112
892.717	21123
892.839	21066
892.962	21112
893.085	21089
893.207	21017
893.33	20994
893.452	20975
893.575	21055
893.697	21024
893.819	21226
893.941	21252
894.064	21161
894.186	20975
894.308	20998
894.43	21165
894.552	21180
894.674	21165
894.796	21032
894.918	20963
895.04	21009
895.161	21100
895.283	21123
895.405	21039
895.526	21032
895.648	20937
895.769	21074
895.891	20864
896.012	21112
896.134	21077
896.255	21036
896.376	20941
896.498	21116
896.619	20902
896.74	20990
896.861	21119
896.982	21313
897.103	21523
897.224	21195
897.345	21127
897.466	21161
897.587	21119
897.708	21359
897.828	21211
897.949	21237
898.07	21032
898.19	21184
898.311	21389
898.431	21222
898.552	21230
898.672	21176
898.792	21420
898.913	21340
899.033	21047
899.153	21024
899.273	20986
899.393	21001
899.513	21135
899.633	21142
899.753	20960
899.873	20925
899.993	20998
900.113	21032
900.232	20876
900.352	20765
900.472	20693
900.591	20807
900.711	20750
900.83	20701
900.95	20864
901.069	20880
901.189	20579
901.308	20275
901.427	20343
901.546	20221
901.665	20233
901.784	20267
901.904	20145
902.023	20065
902.141	19818
902.26	19799
902.379	19932
902.498	19822
902.617	19700
902.735	19860
902.854	19700
902.973	19715
903.091	19510
903.21	19377
903.328	19495
903.446	19445
903.565	19343
903.683	19221
903.801	19133
903.919	19247
904.038	19202
904.156	19069
904.274	19065
904.392	19084
904.51	19129
904.627	19034
904.745	19088
904.863	18996
904.981	18802
905.098	18639
905.216	18631
905.334	18795
905.451	18669
905.569	18711
905.686	18688
905.803	18604
905.921	18422
906.038	18536
906.155	18448
906.272	18372
906.389	18433
906.506	18254
906.623	18224
906.74	18228
906.857	18030
906.974	18178
907.091	18239
907.208	18262
907.324	18224
907.441	18144
907.557	17935
907.674	17946
907.79	17840
907.907	17935
908.023	17984
908.139	17973
908.256	17904
908.372	17779
908.488	17927
908.604	17695
908.72	17657
908.836	17657
908.952	17665
909.068	17638
909.184	17687
909.3	17642
909.415	17676
909.531	17634
909.647	17334
909.762	17376
909.878	17322
909.993	17345
910.108	17273
910.224	17231
910.339	17189
910.454	17094
910.57	17128
910.685	17094
910.8	17322
910.915	17299
911.03	17128
911.145	17014
911.259	16919
911.374	16908
911.489	16767
911.604	16740
911.718	16679
911.833	16713
911.947	16626
912.062	16478
912.176	16618
912.291	16706
912.405	16653
912.519	16816
912.633	16748
912.748	16694
912.862	16679
912.976	16554
913.09	16390
913.204	16360
913.318	16485
913.431	16535
913.545	16512
913.659	16493
913.772	16531
913.886	16360
914	16215
914.113	16390
914.226	16367
914.34	16356
914.453	16185
914.566	16246
914.68	16093
914.793	16124
914.906	15953
915.019	15915
915.132	15793
915.245	15789
915.358	15953
915.47	15937
915.583	15759
915.696	15808
915.809	15888
915.921	15888
916.034	15728
916.146	15751
916.259	15797
916.371	15804
916.483	15690
916.595	15576
916.708	15701
916.82	15614
916.932	15663
917.044	15637
917.156	15587
917.268	15443
917.38	15515
917.491	15496
917.603	15519
917.715	15675
917.826	15568
917.938	15450
918.049	15374
918.161	15469
918.272	15526
918.384	15431
918.495	15458
918.606	15272
918.717	15195
918.828	15298
918.939	15275
919.05	15089
919.161	15272
919.272	15074
919.383	15074
919.494	15332
919.604	15492
919.715	15180
919.826	15138
919.936	15233
920.047	15256
920.157	15252
920.267	15291
920.378	15157
920.488	15214
920.598	15454
920.708	15511
920.818	15348
920.928	15264
921.038	15549
921.148	15485
921.258	15188
921.368	15104
921.477	15036
921.587	14967
921.697	14861
921.806	14845
921.916	14845
922.025	14640
922.134	14674
922.244	14530
922.353	14625
922.462	14484
922.571	14370
922.68	14195
922.789	14187
922.898	14278
923.007	14081
923.116	14267
923.224	14210
923.333	14256
923.442	13989
923.55	13993
923.659	14062
923.767	14218
923.876	13959
923.984	14024
924.092	13997
924.201	13902
924.309	13982
924.417	13989
924.525	13807
924.633	13894
924.741	14743
924.849	13639
924.956	13727
925.064	13647
925.172	13540
925.279	13613
925.387	13620
925.494	13529
925.602	13769
925.709	13613
925.816	13430
925.924	13533
926.031	13636
926.138	13571
926.245	13548
926.352	13384
926.459	13544
926.566	13601
926.673	13548
926.779	13350
926.886	13354
926.993	13156
927.099	13145
927.206	13141
927.312	13008
927.419	13190
927.525	12966
927.631	13168
927.737	12977
927.843	12966
927.95	12829
928.056	12947
928.162	12993
928.267	12932
928.373	13415
928.479	13061
928.585	12817
928.69	12909
928.796	12871
928.901	12760
929.007	12635
929.112	12810
929.218	12764
929.323	12673
929.428	12604
929.533	12802
929.638	12521
929.743	12551
929.848	12642
929.953	12589
930.058	12452
930.163	12311
930.267	12235
930.372	12467
930.477	12323
930.581	12525
930.685	12376
930.79	12213
930.894	12216
930.998	12163
931.103	12273
931.207	11958
931.311	11790
931.415	11779
931.519	11512
931.623	11551
