Data from test_V78500241_2725.txt Node
Date: Fri Mar 25 16:00:40 CST 2022
User: usil
Spectrometer: V785-0024
Trigger mode: 0
Integration Time (sec): 4.000000E-1
Scans to average: 1
Nonlinearity correction enabled: false
Boxcar width: 0
Storing dark spectrum: false
XAxis mode: Wavelengths
Number of Pixels in Spectrum: 1024
>>>>>Begin Spectral Data<<<<<
801.071	29048
801.214	28828
801.356	28584
801.499	28424
801.641	28413
801.783	28523
801.926	28500
802.068	28440
802.211	28318
802.353	28310
802.496	28246
802.638	28356
802.78	28086
802.923	28090
803.065	27941
803.208	28055
803.35	28238
803.492	28257
803.635	28394
803.777	28322
803.919	28440
804.061	28736
804.204	28428
804.346	28287
804.488	28211
804.63	28367
804.773	28261
804.915	28481
805.057	28497
805.199	28462
805.341	28432
805.483	28519
805.626	28557
805.768	28462
805.91	28573
806.052	28451
806.194	28466
806.336	28656
806.478	28672
806.62	28470
806.762	28603
806.904	28824
807.046	28976
807.188	28968
807.33	28980
807.472	29006
807.614	28965
807.756	28980
807.898	28774
808.04	28774
808.182	28698
808.324	28847
808.465	28904
808.607	29090
808.749	29220
808.891	29497
809.033	29467
809.174	29269
809.316	29235
809.458	29250
809.6	29151
809.741	29273
809.883	29425
810.025	29490
810.166	29570
810.308	29573
810.45	29421
810.591	29436
810.733	29254
810.875	29223
811.016	29216
811.158	29056
811.299	29349
811.441	29516
811.582	29383
811.724	29303
811.865	29254
812.007	29200
812.148	29315
812.29	29273
812.431	29436
812.573	29642
812.714	29638
812.855	29699
812.997	29843
813.138	30110
813.279	29980
813.421	29889
813.562	29722
813.703	29570
813.845	29505
813.986	29269
814.127	29018
814.268	28888
814.41	29083
814.551	29010
814.692	29147
814.833	29010
814.974	28972
815.115	29102
815.256	28847
815.397	28816
815.539	28835
815.68	28706
815.821	28645
815.962	28786
816.103	28839
816.244	28584
816.385	28424
816.526	28478
816.666	28398
816.807	28421
816.948	28421
817.089	28371
817.23	28291
817.371	28200
817.512	28196
817.653	28215
817.793	28215
817.934	28112
818.075	28207
818.216	28295
818.356	28246
818.497	28280
818.638	28185
818.778	28021
818.919	28010
819.06	28246
819.2	28101
819.341	28333
819.481	28413
819.622	28580
819.762	28683
819.903	28641
820.043	28516
820.184	28493
820.324	28451
820.465	28432
820.605	28485
820.746	28493
820.886	28329
821.026	28329
821.167	28337
821.307	28504
821.447	28424
821.588	28284
821.728	28158
821.868	27914
822.008	27842
822.149	27854
822.289	27644
822.429	27511
822.569	27587
822.709	27526
822.849	27233
822.99	27374
823.13	27169
823.27	27119
823.41	27264
823.55	26994
823.69	27100
823.83	27161
823.97	27131
824.11	26948
824.25	26952
824.389	26883
824.529	26925
824.669	26933
824.809	27146
824.949	27009
825.089	26960
825.228	27017
825.368	26819
825.508	26830
825.648	26815
825.787	26758
825.927	26914
826.067	26811
826.206	26830
826.346	26876
826.485	26777
826.625	26842
826.765	26864
826.904	26864
827.044	26617
827.183	26682
827.323	26503
827.462	26648
827.601	26549
827.741	26617
827.88	26632
828.02	26419
828.159	26408
828.298	26602
828.437	26682
828.577	26499
828.716	26507
828.855	26522
828.994	26134
829.134	26355
829.273	26355
829.412	26221
829.551	26286
829.69	26202
829.829	26263
829.968	26294
830.107	26377
830.246	26221
830.385	26088
830.524	26103
830.663	25993
830.802	26073
830.941	25951
831.08	25822
831.219	26016
831.357	25986
831.496	26077
831.635	25780
831.774	25830
831.913	25864
832.051	25616
832.19	25655
832.329	25582
832.467	25525
832.606	25445
832.744	25506
832.883	25457
833.022	25533
833.16	25571
833.299	25495
833.437	25582
833.576	25723
833.714	25685
833.852	25734
833.991	25601
834.129	25693
834.267	25594
834.406	25586
834.544	25578
834.682	25674
834.821	25605
834.959	25658
835.097	25590
835.235	25479
835.373	25624
835.511	25537
835.65	25476
835.788	25483
835.926	25270
836.064	25270
836.202	25232
836.34	25369
836.478	25491
836.615	25400
836.753	25343
836.891	25506
837.029	25316
837.167	25381
837.305	25293
837.443	25240
837.58	25289
837.718	25293
837.856	25168
837.993	25118
838.131	25301
838.269	25168
838.406	25091
838.544	25065
838.681	24924
838.819	24810
838.956	24783
839.094	24673
839.231	24806
839.369	24894
839.506	25145
839.643	24977
839.781	24646
839.918	24730
840.055	24608
840.193	24760
840.33	24601
840.467	24608
840.604	24635
840.742	24909
840.879	24460
841.016	24578
841.153	24528
841.29	24783
841.427	24570
841.564	24498
841.701	24521
841.838	24452
841.975	24452
842.112	24525
842.249	24380
842.385	24372
842.522	24593
842.659	24498
842.796	24330
842.933	24376
843.069	24289
843.206	24391
843.343	24403
843.479	24372
843.616	24270
843.752	24136
843.889	24163
844.025	24270
844.162	24087
844.298	24136
844.435	24106
844.571	24190
844.708	24140
844.844	24296
844.98	24155
845.117	24216
845.253	24038
845.389	23927
845.525	24079
845.661	23851
845.798	23920
845.934	23980
846.07	23714
846.206	23874
846.342	23916
846.478	23870
846.614	23665
846.75	23604
846.886	23619
847.022	23615
847.158	23627
847.294	23554
847.429	23562
847.565	23581
847.701	23824
847.837	23360
847.972	23189
848.108	23429
848.244	23395
848.379	23132
848.515	23246
848.65	23136
848.786	23197
848.921	23216
849.057	23208
849.192	23155
849.328	23147
849.463	23105
849.598	23136
849.734	23064
849.869	23155
850.004	22850
850.14	22953
850.275	22896
850.41	22854
850.545	22835
850.68	22934
850.815	22987
850.95	22885
851.085	23162
851.22	23113
851.355	22911
851.49	22885
851.625	22881
851.76	22862
851.895	22892
852.03	22755
852.165	22991
852.299	23037
852.434	23003
852.569	22923
852.703	22991
852.838	22987
852.973	23037
853.107	23090
853.242	22824
853.376	22812
853.511	22592
853.645	22900
853.78	22869
853.914	22790
854.048	22664
854.183	22679
854.317	22675
854.451	22942
854.585	22812
854.72	22710
854.854	22740
854.988	22668
855.122	22683
855.256	22710
855.39	22767
855.524	22672
855.658	22812
855.792	22694
855.926	22908
856.06	22656
856.194	22793
856.327	22774
856.461	22679
856.595	22694
856.729	22843
856.862	22942
856.996	22679
857.13	22736
857.263	22904
857.397	22797
857.53	22831
857.664	22866
857.797	22691
857.931	22873
858.064	22778
858.197	22790
858.331	22592
858.464	22687
858.597	22740
858.731	22736
858.864	22733
858.997	22710
859.13	22717
859.263	22790
859.396	22812
859.529	22615
859.662	22664
859.795	22721
859.928	22763
860.061	22923
860.194	22946
860.327	22805
860.46	22706
860.592	22831
860.725	22991
860.858	22919
860.99	22881
861.123	22634
861.256	22710
861.388	22683
861.521	23486
861.653	22672
861.786	22481
861.918	22607
862.05	22603
862.183	22630
862.315	22675
862.447	22752
862.58	22596
862.712	22523
862.844	22409
862.976	22603
863.108	22561
863.24	22965
863.372	22535
863.504	22500
863.636	22424
863.768	22485
863.9	22436
864.032	22382
864.164	22451
864.296	22421
864.428	22523
864.559	22489
864.691	22630
864.823	22508
864.954	22557
865.086	22436
865.217	22382
865.349	22185
865.48	22352
865.612	22382
865.743	22481
865.875	22485
866.006	22242
866.137	22249
866.269	22265
866.4	22462
866.531	22261
866.662	22253
866.793	22272
866.924	22257
867.055	22230
867.186	22360
867.317	22344
867.448	22166
867.579	22280
867.71	22143
867.841	22215
867.972	22265
868.103	22150
868.233	22242
868.364	22295
868.495	22394
868.625	22421
868.756	22592
868.886	22508
869.017	22485
869.147	22645
869.278	22649
869.408	22626
869.539	22443
869.669	22554
869.799	22443
869.929	22641
870.06	22653
870.19	22904
870.32	22824
870.45	22908
870.58	22869
870.71	22957
870.84	22946
870.97	22999
871.1	22885
871.23	23044
871.36	23067
871.489	22953
871.619	23052
871.749	23067
871.879	23162
872.008	23258
872.138	23109
872.267	23128
872.397	22885
872.526	23010
872.656	23037
872.785	22961
872.915	23083
873.044	23200
873.173	23071
873.303	23162
873.432	23296
873.561	23197
873.69	23223
873.819	23140
873.948	23193
874.077	23136
874.206	23079
874.335	23094
874.464	23280
874.593	23132
874.722	23151
874.851	23448
874.979	23273
875.108	23277
875.237	23227
875.365	23284
875.494	23231
875.623	23360
875.751	23349
875.88	23303
876.008	23455
876.136	23486
876.265	23790
876.393	23805
876.521	23783
876.65	23752
876.778	23809
876.906	23722
877.034	23615
877.162	23729
877.29	23646
877.418	23630
877.546	23691
877.674	23646
877.802	23726
877.93	23687
878.058	23551
878.185	23596
878.313	23649
878.441	23627
878.568	23448
878.696	23512
878.824	23710
878.951	23707
879.079	23764
879.206	23984
879.333	23771
879.461	23684
879.588	23767
879.715	23805
879.842	23840
879.97	23687
880.097	23486
880.224	23634
880.351	23566
880.478	23463
880.605	23452
880.732	23463
880.859	23634
880.986	23592
881.112	23497
881.239	23383
881.366	23216
881.493	23155
881.619	23113
881.746	23109
881.872	23029
881.999	23090
882.125	22976
882.252	23105
882.378	22999
882.505	23052
882.631	22881
882.757	22896
882.883	22797
883.01	22740
883.136	22630
883.262	22470
883.388	22497
883.514	22634
883.64	22820
883.766	22459
883.892	22470
884.018	22451
884.143	22615
884.269	22615
884.395	22413
884.52	22375
884.646	22379
884.772	22211
884.897	22299
885.023	22379
885.148	22409
885.274	22508
885.399	22584
885.524	22291
885.65	22455
885.775	22417
885.9	22246
886.025	22470
886.15	22478
886.275	22253
886.4	22200
886.525	22367
886.65	22261
886.775	22230
886.9	22268
887.025	22493
887.149	22276
887.274	22105
887.399	22158
887.523	22101
887.648	22032
887.773	22025
887.897	22188
888.021	22082
888.146	21949
888.27	22268
888.395	22131
888.519	22158
888.643	22101
888.767	22158
888.891	22070
889.015	21915
889.139	21922
889.263	21831
889.387	21907
889.511	22124
889.635	21937
889.759	21827
889.883	21755
890.006	21884
890.13	21968
890.254	21846
890.377	21751
890.501	21644
890.624	21720
890.748	21724
890.871	21523
890.995	21389
891.118	21397
891.241	21412
891.364	21507
891.488	21507
891.611	21519
891.734	21329
891.857	21557
891.98	21374
892.103	21458
892.226	21408
892.349	21287
892.471	21302
892.594	21283
892.717	21348
892.839	21310
892.962	21336
893.085	21397
893.207	21207
893.33	21214
893.452	21192
893.575	21420
893.697	21241
893.819	21439
893.941	21515
894.064	21428
894.186	21256
894.308	21287
894.43	21420
894.552	21473
894.674	21447
894.796	21199
894.918	21287
895.04	21332
895.161	21367
895.283	21382
895.405	21275
895.526	21374
895.648	21207
895.769	21336
895.891	21374
896.012	21329
896.134	21298
896.255	21275
896.376	21150
896.498	21211
896.619	21351
896.74	21397
896.861	21317
896.982	21743
897.103	21705
897.224	21515
897.345	21587
897.466	21466
897.587	21367
897.708	21682
897.828	21458
897.949	21447
898.07	21344
898.19	21481
898.311	21576
898.431	21447
898.552	21507
898.672	21526
898.792	21599
898.913	21504
899.033	21466
899.153	21291
899.273	21283
899.393	21256
899.513	21310
899.633	21233
899.753	21154
899.873	21157
899.993	21279
900.113	21161
900.232	21123
900.352	21188
900.472	21089
900.591	20979
900.711	20845
900.83	20906
900.95	21062
901.069	21123
901.189	20929
901.308	20632
901.427	20583
901.546	20651
901.665	20568
901.784	20629
901.904	20488
902.023	20328
902.141	20027
902.26	20046
902.379	20145
902.498	20107
902.617	20020
902.735	20225
902.854	20031
902.973	19989
903.091	19788
903.21	19772
903.328	19803
903.446	19552
903.565	19502
903.683	19457
903.801	19434
903.919	19495
904.038	19468
904.156	19373
904.274	19381
904.392	19240
904.51	19251
904.627	19285
904.745	19282
904.863	19274
904.981	19110
905.098	19053
905.216	18962
905.334	19110
905.451	19008
905.569	18848
905.686	18954
905.803	18989
905.921	18734
906.038	18882
906.155	18669
906.272	18616
906.389	18677
906.506	18502
906.623	18509
906.74	18509
906.857	18342
906.974	18372
907.091	18563
907.208	18574
907.324	18490
907.441	18361
907.557	18182
907.674	18133
907.79	18144
907.907	18117
908.023	18190
908.139	18281
908.256	18155
908.372	18053
908.488	18110
908.604	17958
908.72	17897
908.836	17855
908.952	17847
909.068	17954
909.184	18098
909.3	17901
909.415	17874
909.531	17878
909.647	17562
909.762	17592
909.878	17543
909.993	17668
910.108	17535
910.224	17535
910.339	17509
910.454	17512
910.57	17349
910.685	17383
910.8	17615
910.915	17573
911.03	17379
911.145	17258
911.259	17193
911.374	17109
911.489	16991
911.604	17102
911.718	16957
911.833	16980
911.947	16835
912.062	16752
912.176	16923
912.291	16949
912.405	16892
912.519	17128
912.633	17105
912.748	16946
912.862	16850
912.976	16763
913.09	16622
913.204	16672
913.318	16603
913.431	16828
913.545	16881
913.659	16763
913.772	16649
913.886	16516
914	16497
914.113	16637
914.226	16546
914.34	16596
914.453	16280
914.566	16443
914.68	16348
914.793	16409
914.906	16116
915.019	16169
915.132	16048
915.245	15991
915.358	16131
915.47	16029
915.583	16032
915.696	16090
915.809	16192
915.921	16200
916.034	15972
916.146	16006
916.259	15918
916.371	16059
916.483	16063
916.595	15873
916.708	15861
916.82	15857
916.932	15865
917.044	15827
917.156	15755
917.268	15679
917.38	15835
917.491	15713
917.603	15682
917.715	15812
917.826	15819
917.938	15595
918.049	15507
918.161	15599
918.272	15747
918.384	15743
918.495	15526
918.606	15408
918.717	15431
918.828	15389
918.939	15526
919.05	15310
919.161	15431
919.272	15294
919.383	15275
919.494	15397
919.604	15599
919.715	15412
919.826	15355
919.936	15412
920.047	15580
920.157	15367
920.267	15603
920.378	15424
920.488	15355
920.598	15580
920.708	15641
920.818	15576
920.928	15504
921.038	15652
921.148	15561
921.258	15287
921.368	15256
921.477	15116
921.587	15089
921.697	14880
921.806	15119
921.916	15001
922.025	14788
922.134	14705
922.244	14765
922.353	14735
922.462	14610
922.571	14610
922.68	14484
922.789	14305
922.898	14434
923.007	14351
923.116	14404
923.224	14305
923.333	14328
923.442	14164
923.55	14149
923.659	14176
923.767	14225
923.876	14161
923.984	14183
924.092	13997
924.201	14134
924.309	14096
924.417	14058
924.525	13963
924.633	13970
924.741	14963
924.849	13814
924.956	13875
925.064	13807
925.172	13658
925.279	13731
925.387	13719
925.494	13681
925.602	13837
925.709	13742
925.816	13639
925.924	13742
926.031	13852
926.138	13681
926.245	13727
926.352	13518
926.459	13601
926.566	13746
926.673	13632
926.779	13369
926.886	13434
926.993	13388
927.099	13225
927.206	13217
927.312	13274
927.419	13221
927.525	13228
927.631	13225
927.737	13114
927.843	13122
927.95	13015
928.056	13023
928.162	13088
928.267	13084
928.373	13582
928.479	13190
928.585	12920
928.69	13099
928.796	13103
928.901	12920
929.007	12764
929.112	12859
929.218	12844
929.323	12852
929.428	12753
929.533	12981
929.638	12814
929.743	12646
929.848	12749
929.953	12764
930.058	12608
930.163	12369
930.267	12403
930.372	12669
930.477	12441
930.581	12631
930.685	12460
930.79	12277
930.894	12376
930.998	12289
931.103	12452
931.207	12095
931.311	12053
931.415	11931
931.519	11745
931.623	11752
