Data from test_V78500241_2478.txt Node
Date: Fri Mar 25 15:58:57 CST 2022
User: usil
Spectrometer: V785-0024
Trigger mode: 0
Integration Time (sec): 4.000000E-1
Scans to average: 1
Nonlinearity correction enabled: false
Boxcar width: 0
Storing dark spectrum: false
XAxis mode: Wavelengths
Number of Pixels in Spectrum: 1024
>>>>>Begin Spectral Data<<<<<
801.071	28207
801.214	28295
801.356	28116
801.499	28112
801.641	27808
801.783	28006
801.926	28044
802.068	27808
802.211	27800
802.353	27808
802.496	27660
802.638	27656
802.78	27466
802.923	27523
803.065	27500
803.208	27389
803.35	27644
803.492	27701
803.635	27694
803.777	27690
803.919	27732
804.061	28154
804.204	27850
804.346	27724
804.488	27603
804.63	27823
804.773	27827
804.915	27873
805.057	27960
805.199	27717
805.341	27876
805.483	27880
805.626	27846
805.768	27857
805.91	28017
806.052	27812
806.194	27941
806.336	28067
806.478	28040
806.62	27884
806.762	28093
806.904	28223
807.046	28405
807.188	28329
807.33	28379
807.472	28405
807.614	28242
807.756	28318
807.898	28276
808.04	28150
808.182	28169
808.324	28401
808.465	28322
808.607	28546
808.749	28649
808.891	28634
809.033	28771
809.174	28622
809.316	28584
809.458	28698
809.6	28615
809.741	28736
809.883	28839
810.025	28698
810.166	28927
810.308	28888
810.45	28866
810.591	28672
810.733	28649
810.875	28596
811.016	28565
811.158	28474
811.299	28782
811.441	28660
811.582	28881
811.724	28565
811.865	28645
812.007	28569
812.148	28573
812.29	28588
812.431	28869
812.573	28915
812.714	29029
812.855	29113
812.997	29128
813.138	29212
813.279	29277
813.421	29200
813.562	29212
813.703	28942
813.845	28759
813.986	28531
814.127	28405
814.268	28375
814.41	28287
814.551	28257
814.692	28363
814.833	28299
814.974	28246
815.115	28257
815.256	28074
815.397	28021
815.539	28090
815.68	28230
815.821	27972
815.962	28223
816.103	28044
816.244	27949
816.385	27850
816.526	27884
816.666	27793
816.807	27450
816.948	27641
817.089	27705
817.23	27778
817.371	27625
817.512	27580
817.653	27580
817.793	27553
817.934	27656
818.075	27603
818.216	27538
818.356	27500
818.497	27447
818.638	27279
818.778	27287
818.919	27302
819.06	27443
819.2	27477
819.341	27534
819.481	27606
819.622	27880
819.762	28032
819.903	27865
820.043	27778
820.184	27812
820.324	27751
820.465	27793
820.605	27781
820.746	27747
820.886	27538
821.026	27724
821.167	27766
821.307	27842
821.447	27572
821.588	27496
821.728	27473
821.868	27256
822.008	27020
822.149	27028
822.289	27017
822.429	26800
822.569	26724
822.709	26792
822.849	26636
822.99	26648
823.13	26499
823.27	26549
823.41	26450
823.55	26389
823.69	26339
823.83	26389
823.97	26415
824.11	26282
824.25	26134
824.389	26202
824.529	26324
824.669	26320
824.809	26305
824.949	26328
825.089	26233
825.228	26298
825.368	26088
825.508	25974
825.648	26134
825.787	26176
825.927	26092
826.067	26046
826.206	26008
826.346	26195
826.485	26149
826.625	26084
826.765	26271
826.904	26172
827.044	26005
827.183	25928
827.323	25822
827.462	25902
827.601	25986
827.741	25830
827.88	25925
828.02	25624
828.159	25826
828.298	25845
828.437	25887
828.577	25662
828.716	25993
828.855	25765
828.994	25597
829.134	25578
829.273	25563
829.412	25666
829.551	25392
829.69	25472
829.829	25559
829.968	25544
830.107	25529
830.246	25537
830.385	25468
830.524	25521
830.663	25373
830.802	25236
830.941	25236
831.08	25133
831.219	25301
831.357	25152
831.496	25346
831.635	25122
831.774	25012
831.913	25088
832.051	24973
832.19	24894
832.329	24897
832.467	24757
832.606	24654
832.744	24730
832.883	24802
833.022	24726
833.16	24696
833.299	24901
833.437	24745
833.576	24840
833.714	24856
833.852	24863
833.991	24833
834.129	24943
834.267	24867
834.406	24905
834.544	24837
834.682	24939
834.821	24814
834.959	25095
835.097	24840
835.235	24901
835.373	24753
835.511	24840
835.65	24757
835.788	24696
835.926	24578
836.064	24555
836.202	24650
836.34	24673
836.478	24620
836.615	24787
836.753	24798
836.891	24764
837.029	24703
837.167	24677
837.305	24719
837.443	24547
837.58	24536
837.718	24658
837.856	24559
837.993	24410
838.131	24601
838.269	24399
838.406	24483
838.544	24258
838.681	24155
838.819	24076
838.956	23866
839.094	24060
839.231	23969
839.369	24182
839.506	24464
839.643	24224
839.781	24011
839.918	23961
840.055	23973
840.193	24030
840.33	23927
840.467	23954
840.604	23908
840.742	24171
840.879	23802
841.016	23737
841.153	23817
841.29	24064
841.427	23813
841.564	23961
841.701	23939
841.838	23897
841.975	23783
842.112	23714
842.249	23695
842.385	23653
842.522	23794
842.659	23642
842.796	23611
842.933	23718
843.069	23665
843.206	23554
843.343	23760
843.479	23668
843.616	23741
843.752	23379
843.889	23490
844.025	23509
844.162	23277
844.298	23649
844.435	23345
844.571	23322
844.708	23455
844.844	23554
844.98	23543
845.117	23493
845.253	23512
845.389	23254
845.525	23345
845.661	23250
845.798	23231
845.934	23292
846.07	23037
846.206	23288
846.342	23280
846.478	23098
846.614	22976
846.75	22824
846.886	22892
847.022	22915
847.158	22919
847.294	22889
847.429	22911
847.565	22942
847.701	23064
847.837	22561
847.972	22645
848.108	22752
848.244	22607
848.379	22481
848.515	22409
848.65	22428
848.786	22516
848.921	22432
849.057	22504
849.192	22592
849.328	22443
849.463	22470
849.598	22462
849.734	22344
849.869	22219
850.004	22306
850.14	22185
850.275	22261
850.41	22204
850.545	22200
850.68	22154
850.815	22257
850.95	22280
851.085	22344
851.22	22348
851.355	22253
851.49	22158
851.625	22185
851.76	22143
851.895	22059
852.03	22219
852.165	22200
852.299	22318
852.434	22196
852.569	22246
852.703	22272
852.838	22261
852.973	22295
853.107	22280
853.242	22158
853.376	22090
853.511	21953
853.645	22040
853.78	22169
853.914	22013
854.048	21956
854.183	21953
854.317	22032
854.451	22105
854.585	22036
854.72	22166
854.854	22169
854.988	21987
855.122	22173
855.256	21892
855.39	22109
855.524	22025
855.658	22135
855.792	21998
855.926	22010
856.06	21964
856.194	22158
856.327	22097
856.461	21998
856.595	22078
856.729	22082
856.862	22105
856.996	22029
857.13	22013
857.263	22105
857.397	22082
857.53	22067
857.664	22063
857.797	22093
857.931	22249
858.064	22086
858.197	22063
858.331	21945
858.464	21979
858.597	21983
858.731	22082
858.864	22029
858.997	21991
859.13	22006
859.263	22044
859.396	22185
859.529	22105
859.662	22097
859.795	22055
859.928	22131
860.061	22280
860.194	22131
860.327	22074
860.46	22169
860.592	22234
860.725	22341
860.858	22169
860.99	22158
861.123	21884
861.256	21994
861.388	22093
861.521	22839
861.653	21991
861.786	21884
861.918	21979
862.05	22067
862.183	21998
862.315	21953
862.447	21998
862.58	21975
862.712	21812
862.844	21892
862.976	21656
863.108	21922
863.24	22169
863.372	21671
863.504	21918
863.636	21835
863.768	21793
863.9	21690
864.032	21603
864.164	21644
864.296	21854
864.428	21808
864.559	21846
864.691	21937
864.823	21770
864.954	21823
865.086	21648
865.217	21663
865.349	21496
865.48	21736
865.612	21667
865.743	21770
865.875	21686
866.006	21572
866.137	21614
866.269	21690
866.4	21603
866.531	21610
866.662	21450
866.793	21660
866.924	21625
867.055	21564
867.186	21603
867.317	21492
867.448	21591
867.579	21576
867.71	21466
867.841	21629
867.972	21576
868.103	21523
868.233	21633
868.364	21542
868.495	21701
868.625	21804
868.756	21964
868.886	21686
869.017	21865
869.147	21960
869.278	21915
869.408	21930
869.539	21717
869.669	22006
869.799	21953
869.929	21994
870.06	21934
870.19	22147
870.32	22078
870.45	22226
870.58	22242
870.71	22394
870.84	22318
870.97	22204
871.1	22177
871.23	22447
871.36	22409
871.489	22276
871.619	22466
871.749	22382
871.879	22512
872.008	22519
872.138	22455
872.267	22413
872.397	22173
872.526	22211
872.656	22276
872.785	22310
872.915	22451
873.044	22577
873.173	22489
873.303	22493
873.432	22550
873.561	22592
873.69	22409
873.819	22455
873.948	22474
874.077	22535
874.206	22257
874.335	22341
874.464	22550
874.593	22771
874.722	22653
874.851	22790
874.979	22793
875.108	22759
875.237	22618
875.365	22447
875.494	22698
875.623	22755
875.751	22653
875.88	22527
876.008	22717
876.136	22904
876.265	23105
876.393	23212
876.521	23067
876.65	23174
876.778	23033
876.906	23166
877.034	23014
877.162	22968
877.29	22889
877.418	23064
877.546	23003
877.674	23006
877.802	22953
877.93	22934
878.058	22953
878.185	22866
878.313	22828
878.441	23029
878.568	22824
878.696	22949
878.824	22946
878.951	22995
879.079	23064
879.206	23223
879.333	23193
879.461	22987
879.588	23170
879.715	23178
879.842	23284
879.97	23117
880.097	22858
880.224	22835
880.351	22881
880.478	22831
880.605	22828
880.732	22733
880.859	23033
880.986	22839
881.112	22790
881.239	22748
881.366	22607
881.493	22421
881.619	22413
881.746	22440
881.872	22405
881.999	22356
882.125	22325
882.252	22421
882.378	22478
882.505	22478
882.631	22348
882.757	22147
882.883	22124
883.01	22036
883.136	21926
883.262	21991
883.388	21861
883.514	22109
883.64	22040
883.766	21960
883.892	21827
884.018	21892
884.143	22078
884.269	22109
884.395	21717
884.52	21682
884.646	21671
884.772	21705
884.897	21591
885.023	21717
885.148	21770
885.274	21816
885.399	21660
885.524	21736
885.65	21709
885.775	21747
885.9	21709
886.025	21838
886.15	21846
886.275	21797
886.4	21648
886.525	21739
886.65	21679
886.775	21698
886.9	21823
887.025	21895
887.149	21686
887.274	21462
887.399	21572
887.523	21466
887.648	21351
887.773	21412
887.897	21462
888.021	21534
888.146	21504
888.27	21739
888.395	21633
888.519	21580
888.643	21549
888.767	21412
888.891	21374
889.015	21192
889.139	21374
889.263	21161
889.387	21348
889.511	21568
889.635	21302
889.759	21226
889.883	21150
890.006	21294
890.13	21428
890.254	21256
890.377	21260
890.501	21005
890.624	21047
890.748	21066
890.871	20807
890.995	20845
891.118	20762
891.241	20857
891.364	20842
891.488	21070
891.611	20891
891.734	20819
891.857	20807
891.98	20982
892.103	20811
892.226	20823
892.349	20785
892.471	20640
892.594	20667
892.717	20712
892.839	20651
892.962	20754
893.085	20689
893.207	20739
893.33	20670
893.452	20644
893.575	20720
893.697	20705
893.819	21028
893.941	20918
894.064	20883
894.186	20682
894.308	20556
894.43	20697
894.552	20895
894.674	20762
894.796	20621
894.918	20845
895.04	20583
895.161	20834
895.283	20697
895.405	20735
895.526	20735
895.648	20777
895.769	20705
895.891	20606
896.012	20762
896.134	20838
896.255	20792
896.376	20651
896.498	20720
896.619	20727
896.74	20804
896.861	20845
896.982	20948
897.103	21096
897.224	20918
897.345	20956
897.466	20823
897.587	20925
897.708	21077
897.828	20933
897.949	20929
898.07	20769
898.19	20941
898.311	21036
898.431	20941
898.552	20929
898.672	20921
898.792	20933
898.913	20819
899.033	20724
899.153	20731
899.273	20648
899.393	20739
899.513	20629
899.633	20731
899.753	20697
899.873	20583
899.993	20583
900.113	20606
900.232	20571
900.352	20568
900.472	20518
900.591	20454
900.711	20552
900.83	20343
900.95	20541
901.069	20454
901.189	20305
901.308	20058
901.427	19818
901.546	20001
901.665	20016
901.784	20077
901.904	19883
902.023	19696
902.141	19533
902.26	19483
902.379	19597
902.498	19563
902.617	19586
902.735	19586
902.854	19472
902.973	19335
903.091	19088
903.21	19190
903.328	19228
903.446	19148
903.565	18954
903.683	18996
903.801	18703
903.919	18966
904.038	18863
904.156	18772
904.274	18715
904.392	18795
904.51	18703
904.627	18734
904.745	18776
904.863	18711
904.981	18597
905.098	18445
905.216	18418
905.334	18551
905.451	18547
905.569	18437
905.686	18380
905.803	18460
905.921	18136
906.038	18235
906.155	18110
906.272	18083
906.389	18072
906.506	17992
906.623	18003
906.74	17878
906.857	17843
906.974	17783
907.091	17942
907.208	18026
907.324	17980
907.441	17866
907.557	17668
907.674	17737
907.79	17516
907.907	17577
908.023	17733
908.139	17699
908.256	17665
908.372	17490
908.488	17436
908.604	17292
908.72	17379
908.836	17482
908.952	17349
909.068	17448
909.184	17364
909.3	17269
909.415	17379
909.531	17318
909.647	17094
909.762	17056
909.878	17006
909.993	17136
910.108	17033
910.224	17086
910.339	17006
910.454	16828
910.57	16862
910.685	16733
910.8	17083
910.915	16961
911.03	16839
911.145	16656
911.259	16561
911.374	16603
911.489	16592
911.604	16405
911.718	16424
911.833	16363
911.947	16322
912.062	16173
912.176	16356
912.291	16436
912.405	16371
912.519	16554
912.633	16577
912.748	16474
912.862	16306
912.976	16196
913.09	16097
913.204	16173
913.318	16162
913.431	16219
913.545	16337
913.659	16265
913.772	16078
913.886	16029
914	15941
914.113	16147
914.226	16093
914.34	16021
914.453	15892
914.566	15998
914.68	15873
914.793	15873
914.906	15568
915.019	15587
915.132	15595
915.245	15564
915.358	15576
915.47	15519
915.583	15686
915.696	15534
915.809	15660
915.921	15660
916.034	15504
916.146	15431
916.259	15485
916.371	15557
916.483	15511
916.595	15386
916.708	15340
916.82	15458
916.932	15378
917.044	15329
917.156	15321
917.268	15245
917.38	15287
917.491	15252
917.603	15252
917.715	15294
917.826	15222
917.938	15161
918.049	15058
918.161	15070
918.272	15260
918.384	15317
918.495	15066
918.606	14899
918.717	14883
918.828	15017
918.939	15062
919.05	14887
919.161	14902
919.272	14788
919.383	14785
919.494	15036
919.604	15138
919.715	14982
919.826	14849
919.936	14956
920.047	14925
920.157	14990
920.267	15127
920.378	14876
920.488	14864
920.598	15051
920.708	15180
920.818	15001
920.928	15058
921.038	15154
921.148	15184
921.258	14815
921.368	14758
921.477	14720
921.587	14697
921.697	14556
921.806	14693
921.916	14480
922.025	14419
922.134	14282
922.244	14237
922.353	14347
922.462	14081
922.571	14107
922.68	13967
922.789	13890
922.898	13928
923.007	13841
923.116	13894
923.224	13849
923.333	13898
923.442	13856
923.55	13772
923.659	13795
923.767	13719
923.876	13723
923.984	13765
924.092	13658
924.201	13620
924.309	13601
924.417	13662
924.525	13537
924.633	13636
924.741	14317
924.849	13449
924.956	13548
925.064	13308
925.172	13236
925.279	13301
925.387	13365
925.494	13304
925.602	13457
925.709	13419
925.816	13266
925.924	13327
926.031	13240
926.138	13259
926.245	13278
926.352	13179
926.459	13293
926.566	13320
926.673	13156
926.779	13103
926.886	13057
926.993	12875
927.099	12916
927.206	12821
927.312	12802
927.419	13000
927.525	12909
927.631	12913
927.737	12745
927.843	12639
927.95	12601
928.056	12707
928.162	12612
928.267	12662
928.373	13316
928.479	12768
928.585	12509
928.69	12582
928.796	12669
928.901	12616
929.007	12433
929.112	12513
929.218	12433
929.323	12483
929.428	12342
929.533	12578
929.638	12376
929.743	12311
929.848	12369
929.953	12361
930.058	12251
930.163	12087
930.267	11977
930.372	12209
930.477	12003
930.581	12308
930.685	12098
930.79	11965
930.894	12064
930.998	11954
931.103	12083
931.207	11672
931.311	11646
931.415	11459
931.519	11288
931.623	11292
