Data from test_V78500241_2502.txt Node
Date: Fri Mar 25 15:59:07 CST 2022
User: usil
Spectrometer: V785-0024
Trigger mode: 0
Integration Time (sec): 4.000000E-1
Scans to average: 1
Nonlinearity correction enabled: false
Boxcar width: 0
Storing dark spectrum: false
XAxis mode: Wavelengths
Number of Pixels in Spectrum: 1024
>>>>>Begin Spectral Data<<<<<
801.071	28265
801.214	28318
801.356	27949
801.499	28048
801.641	27751
801.783	27941
801.926	27983
802.068	27835
802.211	27865
802.353	27857
802.496	27564
802.638	27564
802.78	27530
802.923	27485
803.065	27439
803.208	27462
803.35	27523
803.492	27679
803.635	27797
803.777	27614
803.919	27724
804.061	28078
804.204	27895
804.346	27774
804.488	27751
804.63	27739
804.773	27633
804.915	27808
805.057	27918
805.199	27713
805.341	27983
805.483	27968
805.626	27926
805.768	27827
805.91	28040
806.052	27979
806.194	27808
806.336	27956
806.478	27956
806.62	27884
806.762	28006
806.904	28249
807.046	28394
807.188	28306
807.33	28443
807.472	28261
807.614	28535
807.756	28306
807.898	28169
808.04	28204
808.182	28025
808.324	28158
808.465	28333
808.607	28474
808.749	28466
808.891	28656
809.033	28740
809.174	28691
809.316	28634
809.458	28478
809.6	28592
809.741	28687
809.883	28660
810.025	28793
810.166	28877
810.308	28767
810.45	28736
810.591	28767
810.733	28725
810.875	28527
811.016	28451
811.158	28504
811.299	28706
811.441	28843
811.582	28691
811.724	28500
811.865	28497
812.007	28466
812.148	28523
812.29	28634
812.431	28801
812.573	28984
812.714	29018
812.855	28968
812.997	29155
813.138	29379
813.279	29242
813.421	29178
813.562	29086
813.703	28873
813.845	28904
813.986	28637
814.127	28371
814.268	28371
814.41	28318
814.551	28097
814.692	28371
814.833	28181
814.974	28158
815.115	28329
815.256	28166
815.397	28173
815.539	28067
815.68	28139
815.821	28025
815.962	28234
816.103	27922
816.244	28048
816.385	27812
816.526	27861
816.666	27648
816.807	27549
816.948	27583
817.089	27656
817.23	27736
817.371	27747
817.512	27564
817.653	27420
817.793	27500
817.934	27534
818.075	27549
818.216	27595
818.356	27538
818.497	27488
818.638	27233
818.778	27408
818.919	27260
819.06	27424
819.2	27412
819.341	27519
819.481	27663
819.622	27812
819.762	27857
819.903	27720
820.043	27732
820.184	27770
820.324	27644
820.465	27793
820.605	27660
820.746	27667
820.886	27625
821.026	27751
821.167	27728
821.307	27736
821.447	27526
821.588	27488
821.728	27279
821.868	27313
822.008	27028
822.149	27039
822.289	26990
822.429	26762
822.569	26712
822.709	26705
822.849	26705
822.99	26651
823.13	26552
823.27	26427
823.41	26263
823.55	26473
823.69	26358
823.83	26320
823.97	26294
824.11	26336
824.25	26183
824.389	26320
824.529	26282
824.669	26290
824.809	26431
824.949	26374
825.089	26290
825.228	26298
825.368	26008
825.508	26077
825.648	25974
825.787	26119
825.927	26039
826.067	26062
826.206	26119
826.346	26229
826.485	26191
826.625	26138
826.765	26168
826.904	26142
827.044	25860
827.183	25871
827.323	25868
827.462	25959
827.601	25833
827.741	25826
827.88	25871
828.02	25765
828.159	25772
828.298	25712
828.437	25753
828.577	25738
828.716	25928
828.855	25578
828.994	25472
829.134	25548
829.273	25525
829.412	25578
829.551	25343
829.69	25639
829.829	25613
829.968	25487
830.107	25476
830.246	25407
830.385	25266
830.524	25411
830.663	25274
830.802	25190
830.941	25099
831.08	25107
831.219	25297
831.357	25061
831.496	25365
831.635	25069
831.774	25019
831.913	24928
832.051	24897
832.19	24875
832.329	24920
832.467	24688
832.606	24779
832.744	24677
832.883	24738
833.022	24711
833.16	24821
833.299	24844
833.437	24814
833.576	24806
833.714	24848
833.852	24932
833.991	24753
834.129	24966
834.267	24920
834.406	24875
834.544	24844
834.682	24901
834.821	24856
834.959	24970
835.097	24821
835.235	24867
835.373	24928
835.511	24715
835.65	24711
835.788	24745
835.926	24604
836.064	24327
836.202	24464
836.34	24703
836.478	24730
836.615	24673
836.753	24665
836.891	24741
837.029	24688
837.167	24741
837.305	24601
837.443	24426
837.58	24585
837.718	24486
837.856	24578
837.993	24437
838.131	24509
838.269	24418
838.406	24289
838.544	24239
838.681	24277
838.819	24110
838.956	23874
839.094	23977
839.231	23996
839.369	24194
839.506	24388
839.643	24251
839.781	23885
839.918	23790
840.055	24102
840.193	23942
840.33	23824
840.467	23969
840.604	23916
840.742	24163
840.879	23794
841.016	23726
841.153	23745
841.29	23889
841.427	23733
841.564	23920
841.701	23904
841.838	23851
841.975	23767
842.112	23729
842.249	23596
842.385	23543
842.522	23771
842.659	23737
842.796	23570
842.933	23676
843.069	23596
843.206	23619
843.343	23726
843.479	23646
843.616	23558
843.752	23322
843.889	23398
844.025	23501
844.162	23417
844.298	23425
844.435	23372
844.571	23334
844.708	23452
844.844	23608
844.98	23600
845.117	23440
845.253	23391
845.389	23322
845.525	23200
845.661	23284
845.798	23140
845.934	23109
846.07	23181
846.206	23098
846.342	23220
846.478	23048
846.614	22946
846.75	22782
846.886	22847
847.022	22767
847.158	22930
847.294	22968
847.429	22816
847.565	22850
847.701	23060
847.837	22630
847.972	22500
848.108	22664
848.244	22744
848.379	22394
848.515	22561
848.65	22405
848.786	22424
848.921	22455
849.057	22626
849.192	22618
849.328	22504
849.463	22512
849.598	22360
849.734	22261
849.869	22352
850.004	22196
850.14	22333
850.275	22272
850.41	22067
850.545	22181
850.68	22074
850.815	22280
850.95	22105
851.085	22299
851.22	22337
851.355	22284
851.49	22185
851.625	22185
851.76	22211
851.895	22086
852.03	22082
852.165	22226
852.299	22234
852.434	22280
852.569	22181
852.703	22287
852.838	22276
852.973	22375
853.107	22424
853.242	22093
853.376	21987
853.511	21983
853.645	21930
853.78	22215
853.914	22090
854.048	22048
854.183	21979
854.317	22036
854.451	22253
854.585	22040
854.72	21983
854.854	22082
854.988	22006
855.122	21964
855.256	21888
855.39	21964
855.524	22116
855.658	22010
855.792	21953
855.926	22105
856.06	22067
856.194	22112
856.327	22082
856.461	21922
856.595	22021
856.729	22013
856.862	22169
856.996	21972
857.13	22082
857.263	22249
857.397	22139
857.53	21922
857.664	22112
857.797	22021
857.931	22154
858.064	22105
858.197	22166
858.331	22162
858.464	22010
858.597	21983
858.731	22021
858.864	21975
858.997	22021
859.13	21998
859.263	22048
859.396	22280
859.529	22002
859.662	22044
859.795	21972
859.928	22097
860.061	22196
860.194	22215
860.327	22128
860.46	22082
860.592	22192
860.725	22150
860.858	22139
860.99	22097
861.123	21903
861.256	22006
861.388	22166
861.521	22660
861.653	21949
861.786	21789
861.918	21762
862.05	21812
862.183	21880
862.315	22059
862.447	22044
862.58	21991
862.712	21625
862.844	21762
862.976	21876
863.108	21778
863.24	22124
863.372	21808
863.504	21747
863.636	21770
863.768	21808
863.9	21686
864.032	21660
864.164	21701
864.296	21728
864.428	21819
864.559	21774
864.691	21781
864.823	21732
864.954	21717
865.086	21781
865.217	21728
865.349	21485
865.48	21568
865.612	21568
865.743	21785
865.875	21652
866.006	21625
866.137	21663
866.269	21675
866.4	21724
866.531	21583
866.662	21580
866.793	21401
866.924	21576
867.055	21542
867.186	21485
867.317	21454
867.448	21405
867.579	21629
867.71	21515
867.841	21504
867.972	21641
868.103	21633
868.233	21561
868.364	21568
868.495	21603
868.625	21713
868.756	21804
868.886	21724
869.017	21713
869.147	21854
869.278	21926
869.408	21907
869.539	21953
869.669	21945
869.799	21808
869.929	21854
870.06	21880
870.19	22169
870.32	22147
870.45	22070
870.58	22120
870.71	22306
870.84	22265
870.97	22196
871.1	22158
871.23	22428
871.36	22360
871.489	22314
871.619	22367
871.749	22405
871.879	22459
872.008	22512
872.138	22428
872.267	22436
872.397	22280
872.526	22162
872.656	22291
872.785	22246
872.915	22409
873.044	22497
873.173	22497
873.303	22272
873.432	22478
873.561	22466
873.69	22459
873.819	22516
873.948	22497
874.077	22470
874.206	22356
874.335	22386
874.464	22675
874.593	22622
874.722	22569
874.851	22694
874.979	22653
875.108	22660
875.237	22626
875.365	22500
875.494	22649
875.623	22679
875.751	22634
875.88	22713
876.008	22725
876.136	22900
876.265	22987
876.393	23128
876.521	23071
876.65	23067
876.778	23060
876.906	22953
877.034	22946
877.162	23025
877.29	22900
877.418	22949
877.546	22949
877.674	22946
877.802	22953
877.93	22919
878.058	22999
878.185	22934
878.313	22885
878.441	22961
878.568	22786
878.696	22889
878.824	23052
878.951	23033
879.079	23109
879.206	23330
879.333	23174
879.461	22938
879.588	23083
879.715	23071
879.842	23117
879.97	23086
880.097	22854
880.224	22869
880.351	22740
880.478	22782
880.605	22869
880.732	22793
880.859	22942
880.986	22801
881.112	22934
881.239	22634
881.366	22565
881.493	22455
881.619	22386
881.746	22447
881.872	22428
881.999	22310
882.125	22398
882.252	22390
882.378	22386
882.505	22474
882.631	22234
882.757	22029
882.883	22162
883.01	22120
883.136	22010
883.262	21819
883.388	21854
883.514	21960
883.64	22063
883.766	22013
883.892	21778
884.018	21873
884.143	22002
884.269	22188
884.395	21717
884.52	21682
884.646	21538
884.772	21682
884.897	21473
885.023	21701
885.148	21747
885.274	21694
885.399	21789
885.524	21732
885.65	21694
885.775	21671
885.9	21701
886.025	21915
886.15	21637
886.275	21644
886.4	21507
886.525	21652
886.65	21671
886.775	21564
886.9	21603
887.025	21880
887.149	21625
887.274	21485
887.399	21485
887.523	21428
887.648	21454
887.773	21310
887.897	21583
888.021	21450
888.146	21241
888.27	21591
888.395	21485
888.519	21488
888.643	21401
888.767	21488
888.891	21302
889.015	21180
889.139	21348
889.263	21233
889.387	21294
889.511	21401
889.635	21256
889.759	21199
889.883	21096
890.006	21317
890.13	21344
890.254	21157
890.377	21195
890.501	21024
890.624	20842
890.748	20975
890.871	20804
890.995	20743
891.118	20708
891.241	20838
891.364	20765
891.488	20906
891.611	20674
891.734	20781
891.857	20880
891.98	20845
892.103	20720
892.226	20758
892.349	20659
892.471	20511
892.594	20815
892.717	20697
892.839	20689
892.962	20765
893.085	20811
893.207	20613
893.33	20552
893.452	20556
893.575	20659
893.697	20682
893.819	20773
893.941	20872
894.064	20735
894.186	20625
894.308	20522
894.43	20864
894.552	20868
894.674	20826
894.796	20613
894.918	20606
895.04	20606
895.161	20849
895.283	20739
895.405	20632
895.526	20724
895.648	20651
895.769	20762
895.891	20765
896.012	20777
896.134	20712
896.255	20750
896.376	20648
896.498	20587
896.619	20739
896.74	20701
896.861	20659
896.982	21009
897.103	21058
897.224	20941
897.345	20933
897.466	20792
897.587	20880
897.708	21036
897.828	20918
897.949	20861
898.07	20800
898.19	20735
898.311	20834
898.431	20815
898.552	20845
898.672	20914
898.792	20918
898.913	20773
899.033	20815
899.153	20777
899.273	20511
899.393	20609
899.513	20712
899.633	20598
899.753	20762
899.873	20667
899.993	20712
900.113	20503
900.232	20583
900.352	20594
900.472	20503
900.591	20377
900.711	20374
900.83	20366
900.95	20492
901.069	20442
901.189	20298
901.308	20088
901.427	20096
901.546	19917
901.665	20046
901.784	20122
901.904	19852
902.023	19757
902.141	19628
902.26	19499
902.379	19548
902.498	19460
902.617	19453
902.735	19537
902.854	19415
902.973	19441
903.091	19145
903.21	19122
903.328	19187
903.446	18943
903.565	18932
903.683	18966
903.801	18814
903.919	18848
904.038	18924
904.156	18722
904.274	18802
904.392	18700
904.51	18665
904.627	18707
904.745	18779
904.863	18791
904.981	18528
905.098	18369
905.216	18418
905.334	18410
905.451	18361
905.569	18357
905.686	18509
905.803	18315
905.921	18171
906.038	18235
906.155	18262
906.272	18053
906.389	18064
906.506	18019
906.623	17996
906.74	17805
906.857	17878
906.974	17756
907.091	17882
907.208	17904
907.324	17897
907.441	17775
907.557	17687
907.674	17615
907.79	17444
907.907	17573
908.023	17623
908.139	17718
908.256	17528
908.372	17433
908.488	17490
908.604	17345
908.72	17337
908.836	17318
908.952	17425
909.068	17322
909.184	17417
909.3	17337
909.415	17376
909.531	17246
909.647	16984
909.762	17006
909.878	16957
909.993	17143
910.108	17006
910.224	17018
910.339	16987
910.454	16839
910.57	16854
910.685	16778
910.8	17003
910.915	16991
911.03	16797
911.145	16706
911.259	16584
911.374	16599
911.489	16554
911.604	16455
911.718	16382
911.833	16337
911.947	16226
912.062	16268
912.176	16409
912.291	16409
912.405	16386
912.519	16546
912.633	16615
912.748	16325
912.862	16402
912.976	16325
913.09	15983
913.204	16101
913.318	16135
913.431	16219
913.545	16337
913.659	16265
913.772	16207
913.886	16025
914	15895
914.113	16093
914.226	16025
914.34	15998
914.453	15819
914.566	16021
914.68	15926
914.793	15869
914.906	15606
915.019	15671
915.132	15603
915.245	15500
915.358	15511
915.47	15641
915.583	15614
915.696	15595
915.809	15663
915.921	15633
916.034	15492
916.146	15458
916.259	15359
916.371	15572
916.483	15492
916.595	15412
916.708	15401
916.82	15378
916.932	15374
917.044	15249
917.156	15184
917.268	15077
917.38	15245
917.491	15226
917.603	15150
917.715	15241
917.826	15230
917.938	15150
918.049	15043
918.161	15097
918.272	15256
918.384	15226
918.495	15203
918.606	14952
918.717	14781
918.828	14872
918.939	15104
919.05	14788
919.161	14941
919.272	14864
919.383	14735
919.494	15036
919.604	15047
919.715	14986
919.826	14910
919.936	14849
920.047	15093
920.157	14975
920.267	15093
920.378	14956
920.488	14796
920.598	15039
920.708	15157
920.818	15077
920.928	15055
921.038	15272
921.148	15123
921.258	14872
921.368	14785
921.477	14670
921.587	14682
921.697	14507
921.806	14640
921.916	14492
922.025	14355
922.134	14275
922.244	14206
922.353	14305
922.462	14172
922.571	14046
922.68	13925
922.789	13989
922.898	13879
923.007	13811
923.116	13967
923.224	13936
923.333	13826
923.442	13807
923.55	13689
923.659	13704
923.767	13719
923.876	13708
923.984	13814
924.092	13609
924.201	13632
924.309	13544
924.417	13639
924.525	13556
924.633	13616
924.741	14396
924.849	13350
924.956	13525
925.064	13350
925.172	13335
925.279	13282
925.387	13308
925.494	13312
925.602	13419
925.709	13339
925.816	13171
925.924	13274
926.031	13266
926.138	13259
926.245	13312
926.352	13183
926.459	13266
926.566	13308
926.673	13179
926.779	13023
926.886	13076
926.993	13012
927.099	12814
927.206	12859
927.312	12821
927.419	12913
927.525	12840
927.631	12875
927.737	12730
927.843	12677
927.95	12563
928.056	12662
928.162	12677
928.267	12707
928.373	13388
928.479	12749
928.585	12551
928.69	12681
928.796	12692
928.901	12540
929.007	12338
929.112	12540
929.218	12445
929.323	12448
929.428	12330
929.533	12452
929.638	12342
929.743	12399
929.848	12403
929.953	12376
930.058	12304
930.163	12045
930.267	12117
930.372	12163
930.477	11961
930.581	12262
930.685	12083
930.79	11984
930.894	11927
930.998	11954
931.103	11977
931.207	11695
931.311	11608
931.415	11577
931.519	11364
931.623	11296
