Data from test_V78500241_1128.txt Node
Date: Fri Mar 25 15:49:36 CST 2022
User: usil
Spectrometer: V785-0024
Trigger mode: 0
Integration Time (sec): 4.000000E-1
Scans to average: 1
Nonlinearity correction enabled: false
Boxcar width: 0
Storing dark spectrum: false
XAxis mode: Wavelengths
Number of Pixels in Spectrum: 1024
>>>>>Begin Spectral Data<<<<<
801.071	28500
801.214	28512
801.356	28276
801.499	28207
801.641	28036
801.783	28044
801.926	28070
802.068	28082
802.211	28048
802.353	27941
802.496	27827
802.638	27781
802.78	27694
802.923	27618
803.065	27637
803.208	27705
803.35	27728
803.492	27888
803.635	27816
803.777	27835
803.919	27941
804.061	28413
804.204	27911
804.346	27880
804.488	27869
804.63	27816
804.773	27861
804.915	27922
805.057	28093
805.199	27949
805.341	27979
805.483	28067
805.626	28002
805.768	27956
805.91	28238
806.052	28055
806.194	28010
806.336	28341
806.478	28230
806.62	28090
806.762	28181
806.904	28436
807.046	28565
807.188	28592
807.33	28550
807.472	28653
807.614	28440
807.756	28618
807.898	28356
808.04	28493
808.182	28481
808.324	28421
808.465	28489
808.607	28554
808.749	28733
808.891	28805
809.033	28881
809.174	28847
809.316	28733
809.458	28805
809.6	28816
809.741	28930
809.883	28968
810.025	29121
810.166	29121
810.308	29128
810.45	29060
810.591	29022
810.733	28984
810.875	28706
811.016	28675
811.158	28710
811.299	28999
811.441	28957
811.582	28938
811.724	28927
811.865	28850
812.007	28862
812.148	28824
812.29	28873
812.431	28961
812.573	29181
812.714	29220
812.855	29474
812.997	29330
813.138	29554
813.279	29531
813.421	29223
813.562	29261
813.703	29258
813.845	29166
813.986	28835
814.127	28664
814.268	28550
814.41	28668
814.551	28462
814.692	28546
814.833	28474
814.974	28443
815.115	28535
815.256	28379
815.397	28265
815.539	28398
815.68	28401
815.821	28306
815.962	28310
816.103	28352
816.244	28223
816.385	28234
816.526	28112
816.666	27937
816.807	27671
816.948	27869
817.089	27926
817.23	27911
817.371	27873
817.512	27766
817.653	27781
817.793	27770
817.934	27728
818.075	27888
818.216	27880
818.356	27743
818.497	27793
818.638	27679
818.778	27667
818.919	27618
819.06	27542
819.2	27827
819.341	27785
819.481	27846
819.622	27930
819.762	28078
819.903	28257
820.043	28048
820.184	28006
820.324	27953
820.465	28055
820.605	27964
820.746	28070
820.886	27850
821.026	27888
821.167	27895
821.307	28070
821.447	27842
821.588	27686
821.728	27561
821.868	27542
822.008	27450
822.149	27260
822.289	27180
822.429	26986
822.569	26956
822.709	26887
822.849	26876
822.99	26804
823.13	26697
823.27	26849
823.41	26667
823.55	26427
823.69	26629
823.83	26640
823.97	26385
824.11	26476
824.25	26453
824.389	26366
824.529	26514
824.669	26537
824.809	26727
824.949	26629
825.089	26602
825.228	26377
825.368	26161
825.508	26404
825.648	26267
825.787	26313
825.927	26404
826.067	26393
826.206	26374
826.346	26320
826.485	26358
826.625	26374
826.765	26423
826.904	26423
827.044	26301
827.183	26027
827.323	26149
827.462	26130
827.601	26138
827.741	25928
827.88	26122
828.02	26008
828.159	26035
828.298	26020
828.437	26210
828.577	26024
828.716	26164
828.855	25944
828.994	25811
829.134	25712
829.273	25841
829.412	25712
829.551	25746
829.69	25887
829.829	25742
829.968	25852
830.107	25761
830.246	25643
830.385	25597
830.524	25635
830.663	25639
830.802	25559
830.941	25304
831.08	25327
831.219	25365
831.357	25441
831.496	25597
831.635	25324
831.774	25365
831.913	25289
832.051	25160
832.19	25171
832.329	25114
832.467	25053
832.606	25027
832.744	24985
832.883	25099
833.022	25080
833.16	25038
833.299	25034
833.437	25099
833.576	25141
833.714	25156
833.852	25247
833.991	25069
834.129	25129
834.267	25171
834.406	25114
834.544	25061
834.682	25137
834.821	24996
834.959	25206
835.097	24875
835.235	25084
835.373	25133
835.511	24954
835.65	24981
835.788	25072
835.926	24719
836.064	24715
836.202	24802
836.34	24970
836.478	25008
836.615	24856
836.753	24814
836.891	24920
837.029	24913
837.167	24844
837.305	24715
837.443	24760
837.58	24913
837.718	24886
837.856	24932
837.993	24677
838.131	24635
838.269	24578
838.406	24555
838.544	24551
838.681	24422
838.819	24418
838.956	24311
839.094	24266
839.231	24201
839.369	24422
839.506	24570
839.643	24429
839.781	24209
839.918	24194
840.055	24136
840.193	24117
840.33	24178
840.467	24140
840.604	24117
840.742	24437
840.879	24041
841.016	23996
841.153	23908
841.29	24273
841.427	24190
841.564	24178
841.701	24102
841.838	23980
841.975	24018
842.112	23996
842.249	23950
842.385	23870
842.522	24091
842.659	23935
842.796	23840
842.933	24018
843.069	23866
843.206	23828
843.343	23843
843.479	23878
843.616	23771
843.752	23672
843.889	23539
844.025	23958
844.162	23661
844.298	23710
844.435	23543
844.571	23623
844.708	23589
844.844	23832
844.98	23695
845.117	23775
845.253	23577
845.389	23528
845.525	23516
845.661	23486
845.798	23455
845.934	23471
846.07	23368
846.206	23535
846.342	23573
846.478	23334
846.614	23204
846.75	22976
846.886	23189
847.022	23311
847.158	23185
847.294	23109
847.429	23113
847.565	23025
847.701	23326
847.837	22820
847.972	22778
848.108	22828
848.244	22847
848.379	22713
848.515	22790
848.65	22691
848.786	22717
848.921	22626
849.057	22843
849.192	22839
849.328	22706
849.463	22641
849.598	22569
849.734	22550
849.869	22417
850.004	22478
850.14	22535
850.275	22432
850.41	22367
850.545	22360
850.68	22436
850.815	22512
850.95	22402
851.085	22626
851.22	22542
851.355	22440
851.49	22527
851.625	22337
851.76	22421
851.895	22447
852.03	22398
852.165	22599
852.299	22481
852.434	22519
852.569	22394
852.703	22375
852.838	22573
852.973	22573
853.107	22584
853.242	22440
853.376	22295
853.511	22192
853.645	22253
853.78	22424
853.914	22268
854.048	22223
854.183	22344
854.317	22310
854.451	22478
854.585	22265
854.72	22291
854.854	22249
854.988	22173
855.122	22325
855.256	22063
855.39	22177
855.524	22261
855.658	22314
855.792	22348
855.926	22356
856.06	22375
856.194	22371
856.327	22276
856.461	22215
856.595	22207
856.729	22196
856.862	22440
856.996	22234
857.13	22261
857.263	22344
857.397	22367
857.53	22223
857.664	22405
857.797	22356
857.931	22303
858.064	22333
858.197	22375
858.331	22360
858.464	22207
858.597	22131
858.731	22272
858.864	22299
858.997	22291
859.13	22284
859.263	22337
859.396	22299
859.529	22219
859.662	22253
859.795	22268
859.928	22295
860.061	22440
860.194	22432
860.327	22268
860.46	22196
860.592	22432
860.725	22367
860.858	22440
860.99	22371
861.123	22185
861.256	22196
861.388	22226
861.521	23003
861.653	22109
861.786	22010
861.918	22166
862.05	22154
862.183	22135
862.315	22169
862.447	22295
862.58	22120
862.712	21949
862.844	21850
862.976	21979
863.108	22093
863.24	22325
863.372	21945
863.504	22032
863.636	21975
863.768	21994
863.9	22010
864.032	21804
864.164	21972
864.296	21964
864.428	22090
864.559	21850
864.691	22040
864.823	22032
864.954	21880
865.086	21922
865.217	21899
865.349	21808
865.48	21857
865.612	21861
865.743	22017
865.875	21781
866.006	21751
866.137	21975
866.269	21854
866.4	21835
866.531	21736
866.662	21766
866.793	21766
866.924	21865
867.055	21854
867.186	21690
867.317	21827
867.448	21679
867.579	21736
867.71	21743
867.841	21686
867.972	21850
868.103	21770
868.233	21778
868.364	21793
868.495	21998
868.625	22029
868.756	22116
868.886	21964
869.017	21953
869.147	22154
869.278	22154
869.408	22078
869.539	21991
869.669	22082
869.799	22013
869.929	22154
870.06	21987
870.19	22303
870.32	22344
870.45	22455
870.58	22363
870.71	22500
870.84	22489
870.97	22413
871.1	22466
871.23	22645
871.36	22550
871.489	22554
871.619	22512
871.749	22580
871.879	22653
872.008	22702
872.138	22481
872.267	22573
872.397	22382
872.526	22432
872.656	22519
872.785	22348
872.915	22599
873.044	22854
873.173	22721
873.303	22675
873.432	22611
873.561	22706
873.69	22584
873.819	22626
873.948	22729
874.077	22569
874.206	22546
874.335	22630
874.464	22816
874.593	22915
874.722	22706
874.851	22854
874.979	22900
875.108	22892
875.237	22835
875.365	22828
875.494	22828
875.623	22858
875.751	22759
875.88	22839
876.008	22949
876.136	23037
876.265	23258
876.393	23448
876.521	23429
876.65	23273
876.778	23296
876.906	23121
877.034	23121
877.162	23220
877.29	23102
877.418	23113
877.546	23250
877.674	23212
877.802	23140
877.93	23246
878.058	23044
878.185	23003
878.313	23098
878.441	22995
878.568	23143
878.696	23174
878.824	23124
878.951	23299
879.079	23258
879.206	23463
879.333	23383
879.461	23273
879.588	23376
879.715	23292
879.842	23459
879.97	23322
880.097	23090
880.224	22968
880.351	23037
880.478	22957
880.605	22942
880.732	23162
880.859	23200
880.986	23075
881.112	23067
881.239	22786
881.366	22774
881.493	22767
881.619	22508
881.746	22557
881.872	22577
881.999	22527
882.125	22421
882.252	22546
882.378	22519
882.505	22554
882.631	22325
882.757	22310
882.883	22333
883.01	22158
883.136	22238
883.262	22025
883.388	22048
883.514	22261
883.64	22333
883.766	22192
883.892	22002
884.018	22032
884.143	22166
884.269	22325
884.395	21968
884.52	21930
884.646	21918
884.772	21755
884.897	21766
885.023	22021
885.148	21983
885.274	21979
885.399	22090
885.524	21922
885.65	21895
885.775	21816
885.9	21899
886.025	22059
886.15	21979
886.275	21873
886.4	21701
886.525	21785
886.65	21888
886.775	21785
886.9	21930
887.025	22048
887.149	21876
887.274	21747
887.399	21694
887.523	21694
887.648	21538
887.773	21591
887.897	21778
888.021	21671
888.146	21614
888.27	21739
888.395	21694
888.519	21705
888.643	21701
888.767	21637
888.891	21538
889.015	21492
889.139	21538
889.263	21450
889.387	21523
889.511	21625
889.635	21473
889.759	21359
889.883	21408
890.006	21473
890.13	21393
890.254	21310
890.377	21321
890.501	21138
890.624	21150
890.748	21283
890.871	20994
890.995	20944
891.118	20937
891.241	20956
891.364	20918
891.488	21268
891.611	21005
891.734	21100
891.857	20990
891.98	20979
892.103	21017
892.226	21013
892.349	20857
892.471	20724
892.594	20838
892.717	21024
892.839	20948
892.962	20849
893.085	20990
893.207	20887
893.33	20785
893.452	20807
893.575	20944
893.697	20838
893.819	20921
893.941	21096
894.064	21020
894.186	20823
894.308	20868
894.43	21047
894.552	20998
894.674	21013
894.796	20686
894.918	20891
895.04	20712
895.161	20925
895.283	20952
895.405	20746
895.526	20880
895.648	20743
895.769	20971
895.891	20823
896.012	20952
896.134	20762
896.255	20876
896.376	20849
896.498	20769
896.619	20857
896.74	20849
896.861	20929
896.982	21233
897.103	21382
897.224	21135
897.345	21089
897.466	20998
897.587	21127
897.708	21222
897.828	21123
897.949	21005
898.07	20868
898.19	20971
898.311	21043
898.431	21081
898.552	21009
898.672	21104
898.792	21024
898.913	21142
899.033	20941
899.153	20815
899.273	20705
899.393	20773
899.513	20883
899.633	20815
899.753	20868
899.873	20750
899.993	20830
900.113	20773
900.232	20819
900.352	20724
900.472	20636
900.591	20476
900.711	20655
900.83	20488
900.95	20648
901.069	20636
901.189	20362
901.308	20267
901.427	20267
901.546	20035
901.665	20301
901.784	20092
901.904	20050
902.023	19963
902.141	19708
902.26	19635
902.379	19651
902.498	19632
902.617	19563
902.735	19731
902.854	19552
902.973	19590
903.091	19331
903.21	19270
903.328	19362
903.446	19202
903.565	19141
903.683	19088
903.801	19023
903.919	19076
904.038	19076
904.156	18840
904.274	19023
904.392	18833
904.51	18791
904.627	18791
904.745	18928
904.863	18901
904.981	18616
905.098	18646
905.216	18555
905.334	18521
905.451	18551
905.569	18509
905.686	18551
905.803	18540
905.921	18441
906.038	18509
906.155	18350
906.272	18144
906.389	18133
906.506	18079
906.623	18125
906.74	18057
906.857	17988
906.974	17984
907.091	18232
907.208	18140
907.324	18068
907.441	17969
907.557	17722
907.674	17771
907.79	17764
907.907	17741
908.023	17748
908.139	17878
908.256	17866
908.372	17642
908.488	17718
908.604	17596
908.72	17444
908.836	17516
908.952	17493
909.068	17516
909.184	17493
909.3	17474
909.415	17463
909.531	17512
909.647	17235
909.762	17280
909.878	17121
909.993	17159
910.108	17189
910.224	17193
910.339	17147
910.454	17052
910.57	17029
910.685	16854
910.8	17208
910.915	17147
911.03	16915
911.145	16854
911.259	16843
911.374	16778
911.489	16698
911.604	16592
911.718	16554
911.833	16485
911.947	16356
912.062	16352
912.176	16466
912.291	16588
912.405	16474
912.519	16763
912.633	16668
912.748	16561
912.862	16481
912.976	16367
913.09	16166
913.204	16181
913.318	16428
913.431	16348
913.545	16402
913.659	16356
913.772	16177
913.886	16109
914	15994
914.113	16188
914.226	16093
914.34	16124
914.453	16021
914.566	16128
914.68	15983
914.793	15987
914.906	15831
915.019	15747
915.132	15660
915.245	15629
915.358	15584
915.47	15709
915.583	15663
915.696	15892
915.809	15823
915.921	15911
916.034	15663
916.146	15591
916.259	15580
916.371	15652
916.483	15686
916.595	15507
916.708	15587
916.82	15462
916.932	15538
917.044	15408
917.156	15386
917.268	15397
917.38	15405
917.491	15218
917.603	15329
917.715	15348
917.826	15329
917.938	15291
918.049	15150
918.161	15408
918.272	15416
918.384	15428
918.495	15233
918.606	15119
918.717	14960
918.828	15066
918.939	15146
919.05	15028
919.161	15039
919.272	14849
919.383	14975
919.494	15077
919.604	15214
919.715	15081
919.826	14975
919.936	14982
920.047	15127
920.157	14948
920.267	15279
920.378	15028
920.488	15104
920.598	15264
920.708	15359
920.818	15142
920.928	15070
921.038	15264
921.148	15313
921.258	14937
921.368	14807
921.477	14708
921.587	14750
921.697	14625
921.806	14731
921.916	14602
922.025	14427
922.134	14454
922.244	14339
922.353	14343
922.462	14317
922.571	14244
922.68	14096
922.789	14107
922.898	14062
923.007	14046
923.116	14054
923.224	13940
923.333	13940
923.442	13814
923.55	13917
923.659	13826
923.767	13879
923.876	13765
923.984	13860
924.092	13776
924.201	13670
924.309	13700
924.417	13719
924.525	13639
924.633	13712
924.741	14473
924.849	13495
924.956	13613
925.064	13464
925.172	13343
925.279	13388
925.387	13521
925.494	13499
925.602	13563
925.709	13453
925.816	13278
925.924	13415
926.031	13476
926.138	13346
926.245	13346
926.352	13335
926.459	13369
926.566	13358
926.673	13270
926.779	13133
926.886	13164
926.993	12989
927.099	12947
927.206	12890
927.312	12943
927.419	12996
927.525	12970
927.631	13019
927.737	12852
927.843	12833
927.95	12711
928.056	12753
928.162	12745
928.267	12897
928.373	13377
928.479	12791
928.585	12597
928.69	12734
928.796	12779
928.901	12642
929.007	12536
929.112	12597
929.218	12604
929.323	12589
929.428	12475
929.533	12601
929.638	12418
929.743	12483
929.848	12460
929.953	12456
930.058	12422
930.163	12190
930.267	12254
930.372	12247
930.477	12190
930.581	12357
930.685	12243
930.79	12114
930.894	12148
930.998	12053
931.103	12129
931.207	11840
931.311	11775
931.415	11627
931.519	11528
931.623	11505
