Data from test_V78500241_759.txt Node
Date: Fri Mar 25 15:47:03 CST 2022
User: usil
Spectrometer: V785-0024
Trigger mode: 0
Integration Time (sec): 4.000000E-1
Scans to average: 1
Nonlinearity correction enabled: false
Boxcar width: 0
Storing dark spectrum: false
XAxis mode: Wavelengths
Number of Pixels in Spectrum: 1024
>>>>>Begin Spectral Data<<<<<
801.071	28131
801.214	27937
801.356	27751
801.499	27724
801.641	27568
801.783	27504
801.926	27568
802.068	27603
802.211	27363
802.353	27393
802.496	27260
802.638	27233
802.78	27116
802.923	27199
803.065	27062
803.208	27131
803.35	27233
803.492	27268
803.635	27462
803.777	27367
803.919	27538
804.061	27686
804.204	27393
804.346	27268
804.488	27302
804.63	27325
804.773	27302
804.915	27500
805.057	27587
805.199	27351
805.341	27534
805.483	27648
805.626	27511
805.768	27416
805.91	27492
806.052	27542
806.194	27530
806.336	27861
806.478	27462
806.62	27728
806.762	27694
806.904	27850
807.046	28002
807.188	27991
807.33	27949
807.472	27941
807.614	27857
807.756	27964
807.898	27895
808.04	27701
808.182	27751
808.324	27895
808.465	27972
808.607	28048
808.749	28219
808.891	28352
809.033	28550
809.174	28238
809.316	28272
809.458	28356
809.6	28238
809.741	28284
809.883	28421
810.025	28470
810.166	28386
810.308	28519
810.45	28417
810.591	28230
810.733	28207
810.875	28234
811.016	28147
811.158	28128
811.299	28295
811.441	28405
811.582	28352
811.724	28306
811.865	28272
812.007	28200
812.148	28135
812.29	28306
812.431	28432
812.573	28618
812.714	28550
812.855	28679
812.997	28733
813.138	28927
813.279	28873
813.421	28790
813.562	28828
813.703	28577
813.845	28360
813.986	28150
814.127	28029
814.268	27797
814.41	27972
814.551	27876
814.692	28097
814.833	27838
814.974	27892
815.115	27914
815.256	27865
815.397	27804
815.539	27899
815.68	27652
815.821	27644
815.962	27724
816.103	27766
816.244	27652
816.385	27587
816.526	27599
816.666	27351
816.807	27184
816.948	27214
817.089	27287
817.23	27348
817.371	27123
817.512	27218
817.653	27199
817.793	27218
817.934	27100
818.075	27192
818.216	27188
818.356	27230
818.497	27032
818.638	26971
818.778	26979
818.919	27036
819.06	27047
819.2	27062
819.341	27207
819.481	27180
819.622	27302
819.762	27606
819.903	27450
820.043	27310
820.184	27481
820.324	27344
820.465	27378
820.605	27249
820.746	27382
820.886	27100
821.026	27348
821.167	27252
821.307	27355
821.447	27203
821.588	27131
821.728	26975
821.868	26842
822.008	26823
822.149	26644
822.289	26545
822.429	26328
822.569	26351
822.709	26332
822.849	26168
822.99	26206
823.13	26168
823.27	26138
823.41	25982
823.55	25932
823.69	26020
823.83	26039
823.97	25989
824.11	25963
824.25	25841
824.389	25932
824.529	25993
824.669	25993
824.809	25966
824.949	25951
825.089	26046
825.228	25966
825.368	25662
825.508	25655
825.648	25719
825.787	25704
825.927	25856
826.067	25719
826.206	25529
826.346	25799
826.485	25658
826.625	25681
826.765	25788
826.904	25708
827.044	25609
827.183	25445
827.323	25373
827.462	25472
827.601	25327
827.741	25358
827.88	25441
828.02	25358
828.159	25457
828.298	25422
828.437	25457
828.577	25225
828.716	25426
828.855	25312
828.994	25046
829.134	25168
829.273	25263
829.412	25179
829.551	25012
829.69	25069
829.829	25183
829.968	25141
830.107	25179
830.246	25076
830.385	25099
830.524	25004
830.663	24859
830.802	24901
830.941	24768
831.08	24654
831.219	24787
831.357	24859
831.496	24958
831.635	24711
831.774	24707
831.913	24578
832.051	24582
832.19	24483
832.329	24570
832.467	24452
832.606	24311
832.744	24422
832.883	24498
833.022	24365
833.16	24330
833.299	24357
833.437	24604
833.576	24517
833.714	24525
833.852	24525
833.991	24445
834.129	24593
834.267	24540
834.406	24437
834.544	24551
834.682	24475
834.821	24445
834.959	24593
835.097	24422
835.235	24513
835.373	24407
835.511	24365
835.65	24338
835.788	24350
835.926	24224
836.064	24114
836.202	24159
836.34	24281
836.478	24308
836.615	24235
836.753	24285
836.891	24475
837.029	24129
837.167	24262
837.305	24270
837.443	24068
837.58	24087
837.718	24144
837.856	24155
837.993	24079
838.131	24026
838.269	24079
838.406	24049
838.544	23935
838.681	23802
838.819	23783
838.956	23661
839.094	23490
839.231	23623
839.369	23874
839.506	23920
839.643	23836
839.781	23539
839.918	23497
840.055	23452
840.193	23558
840.33	23467
840.467	23577
840.604	23497
840.742	23748
840.879	23429
841.016	23471
841.153	23505
841.29	23600
841.427	23474
841.564	23455
841.701	23436
841.838	23452
841.975	23410
842.112	23589
842.249	23414
842.385	23235
842.522	23368
842.659	23303
842.796	23235
842.933	23250
843.069	23155
843.206	23102
843.343	23303
843.479	23265
843.616	23288
843.752	23105
843.889	23037
844.025	23162
844.162	23147
844.298	23147
844.435	22972
844.571	22930
844.708	23155
844.844	23098
844.98	23170
845.117	23170
845.253	23056
845.389	22831
845.525	22919
845.661	22824
845.798	22740
845.934	22930
846.07	22843
846.206	22915
846.342	22820
846.478	22866
846.614	22485
846.75	22432
846.886	22447
847.022	22440
847.158	22462
847.294	22557
847.429	22535
847.565	22371
847.701	22698
847.837	22185
847.972	22322
848.108	22192
848.244	22276
848.379	22078
848.515	22067
848.65	22055
848.786	22139
848.921	22158
849.057	22112
849.192	22109
849.328	22105
849.463	22029
849.598	22059
849.734	22013
849.869	21987
850.004	21907
850.14	21812
850.275	21922
850.41	21823
850.545	21823
850.68	21854
850.815	22013
850.95	21926
851.085	21956
851.22	21842
851.355	21842
851.49	21899
851.625	21903
851.76	21785
851.895	21755
852.03	21766
852.165	21835
852.299	21880
852.434	21926
852.569	21876
852.703	21861
852.838	21835
852.973	21994
853.107	21964
853.242	21793
853.376	21705
853.511	21564
853.645	21610
853.78	21800
853.914	21564
854.048	21667
854.183	21701
854.317	21720
854.451	21823
854.585	21667
854.72	21564
854.854	21656
854.988	21553
855.122	21778
855.256	21458
855.39	21603
855.524	21686
855.658	21682
855.792	21671
855.926	21648
856.06	21759
856.194	21732
856.327	21698
856.461	21496
856.595	21625
856.729	21705
856.862	21884
856.996	21625
857.13	21774
857.263	21850
857.397	21778
857.53	21660
857.664	21732
857.797	21637
857.931	21698
858.064	21713
858.197	21827
858.331	21656
858.464	21720
858.597	21644
858.731	21667
858.864	21663
858.997	21675
859.13	21682
859.263	21644
859.396	21663
859.529	21747
859.662	21705
859.795	21591
859.928	21713
860.061	21785
860.194	21823
860.327	21751
860.46	21637
860.592	21759
860.725	21793
860.858	21705
860.99	21610
861.123	21599
861.256	21545
861.388	21770
861.521	22246
861.653	21515
861.786	21492
861.918	21447
862.05	21583
862.183	21587
862.315	21606
862.447	21660
862.58	21641
862.712	21325
862.844	21393
862.976	21488
863.108	21359
863.24	21983
863.372	21393
863.504	21306
863.636	21359
863.768	21447
863.9	21321
864.032	21310
864.164	21306
864.296	21306
864.428	21481
864.559	21382
864.691	21443
864.823	21313
864.954	21188
865.086	21386
865.217	21287
865.349	21226
865.48	21252
865.612	21252
865.743	21458
865.875	21374
866.006	21142
866.137	21287
866.269	21199
866.4	21279
866.531	21218
866.662	21233
866.793	21176
866.924	21154
867.055	21294
867.186	21104
867.317	21237
867.448	21039
867.579	21173
867.71	21131
867.841	21074
867.972	21245
868.103	21161
868.233	21195
868.364	21344
868.495	21382
868.625	21454
868.756	21526
868.886	21401
869.017	21462
869.147	21523
869.278	21511
869.408	21454
869.539	21431
869.669	21576
869.799	21485
869.929	21614
870.06	21568
870.19	21648
870.32	21656
870.45	21895
870.58	21876
870.71	21972
870.84	21975
870.97	21842
871.1	21888
871.23	22082
871.36	22067
871.489	21888
871.619	21983
871.749	21915
871.879	22074
872.008	22017
872.138	21907
872.267	22025
872.397	21865
872.526	21808
872.656	21762
872.785	21808
872.915	22002
873.044	22086
873.173	21979
873.303	22090
873.432	22112
873.561	22207
873.69	22086
873.819	22070
873.948	22086
874.077	22025
874.206	22032
874.335	22124
874.464	22101
874.593	22253
874.722	22230
874.851	22329
874.979	22280
875.108	22348
875.237	22211
875.365	22223
875.494	22139
875.623	22310
875.751	22329
875.88	22261
876.008	22436
876.136	22573
876.265	22607
876.393	22790
876.521	22599
876.65	22710
876.778	22634
876.906	22580
877.034	22694
877.162	22660
877.29	22596
877.418	22592
877.546	22725
877.674	22611
877.802	22691
877.93	22580
878.058	22584
878.185	22466
878.313	22394
878.441	22588
878.568	22424
878.696	22493
878.824	22672
878.951	22854
879.079	22736
879.206	22782
879.333	22755
879.461	22580
879.588	22706
879.715	22793
879.842	22934
879.97	22626
880.097	22523
880.224	22481
880.351	22432
880.478	22508
880.605	22360
880.732	22417
880.859	22527
880.986	22554
881.112	22360
881.239	22341
881.366	22128
881.493	22124
881.619	22074
881.746	21968
881.872	22055
881.999	21934
882.125	21888
882.252	22044
882.378	21937
882.505	22147
882.631	21842
882.757	21797
882.883	21747
883.01	21774
883.136	21675
883.262	21488
883.388	21519
883.514	21648
883.64	21751
883.766	21614
883.892	21523
884.018	21515
884.143	21614
884.269	21816
884.395	21450
884.52	21386
884.646	21424
884.772	21291
884.897	21283
885.023	21287
885.148	21393
885.274	21500
885.399	21492
885.524	21378
885.65	21348
885.775	21321
885.9	21241
886.025	21351
886.15	21466
886.275	21321
886.4	21222
886.525	21389
886.65	21348
886.775	21218
886.9	21439
887.025	21542
887.149	21408
887.274	21108
887.399	21104
887.523	21199
887.648	21024
887.773	21074
887.897	21146
888.021	21184
888.146	21093
888.27	21169
888.395	21116
888.519	21112
888.643	21123
888.767	21222
888.891	20975
889.015	20895
889.139	21070
889.263	20929
889.387	20990
889.511	21001
889.635	21017
889.759	20849
889.883	20796
890.006	20834
890.13	21013
890.254	20929
890.377	20758
890.501	20564
890.624	20686
890.748	20629
890.871	20583
890.995	20476
891.118	20446
891.241	20556
891.364	20659
891.488	20651
891.611	20495
891.734	20324
891.857	20526
891.98	20385
892.103	20469
892.226	20499
892.349	20366
892.471	20263
892.594	20469
892.717	20457
892.839	20366
892.962	20377
893.085	20442
893.207	20355
893.33	20252
893.452	20366
893.575	20294
893.697	20336
893.819	20495
893.941	20549
894.064	20507
894.186	20176
894.308	20336
894.43	20492
894.552	20476
894.674	20465
894.796	20294
894.918	20286
895.04	20377
895.161	20400
895.283	20473
895.405	20275
895.526	20389
895.648	20282
895.769	20370
895.891	20419
896.012	20484
896.134	20408
896.255	20423
896.376	20446
896.498	20339
896.619	20393
896.74	20358
896.861	20518
896.982	20636
897.103	20826
897.224	20663
897.345	20693
897.466	20518
897.587	20518
897.708	20773
897.828	20655
897.949	20568
898.07	20408
898.19	20461
898.311	20579
898.431	20431
898.552	20552
898.672	20708
898.792	20583
898.913	20648
899.033	20495
899.153	20389
899.273	20244
899.393	20347
899.513	20503
899.633	20400
899.753	20476
899.873	20202
899.993	20278
900.113	20328
900.232	20377
900.352	20183
900.472	20214
900.591	20111
900.711	20020
900.83	20092
900.95	20267
901.069	20259
901.189	20031
901.308	19791
901.427	19708
901.546	19681
901.665	19746
901.784	19693
901.904	19480
902.023	19449
902.141	19316
902.26	19217
902.379	19324
902.498	19217
902.617	19152
902.735	19228
902.854	19145
902.973	19053
903.091	18848
903.21	18779
903.328	18875
903.446	18817
903.565	18715
903.683	18749
903.801	18601
903.919	18642
904.038	18597
904.156	18528
904.274	18460
904.392	18414
904.51	18270
904.627	18380
904.745	18426
904.863	18547
904.981	18311
905.098	18106
905.216	18117
905.334	18110
905.451	18072
905.569	18220
905.686	18174
905.803	18060
905.921	17882
906.038	18034
906.155	17942
906.272	17779
906.389	17748
906.506	17604
906.623	17722
906.74	17604
906.857	17505
906.974	17532
907.091	17592
907.208	17718
907.324	17604
907.441	17455
907.557	17364
907.674	17429
907.79	17318
907.907	17151
908.023	17337
908.139	17341
908.256	17353
908.372	17307
908.488	17124
908.604	17048
908.72	17037
908.836	17079
908.952	17128
909.068	17143
909.184	17208
909.3	16995
909.415	17098
909.531	17022
909.647	16908
909.762	16763
909.878	16687
909.993	16713
910.108	16759
910.224	16683
910.339	16748
910.454	16675
910.57	16584
910.685	16470
910.8	16717
910.915	16752
911.03	16558
911.145	16386
911.259	16443
911.374	16325
911.489	16276
911.604	16303
911.718	16128
911.833	16082
911.947	15945
912.062	16010
912.176	16135
912.291	16211
912.405	16143
912.519	16287
912.633	16265
912.748	16181
912.862	16101
912.976	15987
913.09	15842
913.204	15945
913.318	15937
913.431	15964
913.545	15998
913.659	15998
913.772	15895
913.886	15717
914	15774
914.113	15865
914.226	15835
914.34	15778
914.453	15496
914.566	15698
914.68	15682
914.793	15557
914.906	15485
915.019	15416
915.132	15226
915.245	15325
915.358	15317
915.47	15287
915.583	15302
915.696	15420
915.809	15359
915.921	15443
916.034	15283
916.146	15173
916.259	15264
916.371	15233
916.483	15184
916.595	15192
916.708	15150
916.82	15138
916.932	15176
917.044	15142
917.156	15020
917.268	15020
917.38	15028
917.491	14899
917.603	14906
917.715	14971
917.826	14986
917.938	14906
918.049	14796
918.161	14925
918.272	14986
918.384	15077
918.495	14895
918.606	14762
918.717	14670
918.828	14678
918.939	14746
919.05	14636
919.161	14777
919.272	14537
919.383	14533
919.494	14758
919.604	14910
919.715	14667
919.826	14621
919.936	14583
920.047	14769
920.157	14594
920.267	14891
920.378	14617
920.488	14571
920.598	14845
920.708	14986
920.818	14811
920.928	14796
921.038	14895
921.148	14883
921.258	14644
921.368	14602
921.477	14419
921.587	14393
921.697	14358
921.806	14313
921.916	14256
922.025	14062
922.134	14096
922.244	14024
922.353	14111
922.462	13963
922.571	13879
922.68	13803
922.789	13696
922.898	13662
923.007	13685
923.116	13742
923.224	13639
923.333	13609
923.442	13502
923.55	13453
923.659	13571
923.767	13609
923.876	13499
923.984	13502
924.092	13392
924.201	13354
924.309	13468
924.417	13506
924.525	13373
924.633	13343
924.741	14221
924.849	13122
924.956	13266
925.064	13110
925.172	13110
925.279	13099
925.387	13000
925.494	13145
925.602	13137
925.709	13137
925.816	12996
925.924	13107
926.031	13084
926.138	13050
926.245	13053
926.352	12833
926.459	13099
926.566	13084
926.673	12920
926.779	12932
926.886	12859
926.993	12650
927.099	12757
927.206	12498
927.312	12646
927.419	12677
927.525	12608
927.631	12673
927.737	12517
927.843	12410
927.95	12475
928.056	12426
928.162	12540
928.267	12521
928.373	12947
928.479	12551
928.585	12300
928.69	12391
928.796	12494
928.901	12311
929.007	12197
929.112	12403
929.218	12247
929.323	12258
929.428	12186
929.533	12445
929.638	12117
929.743	12292
929.848	12182
929.953	12106
930.058	12148
930.163	11794
930.267	11840
930.372	12003
930.477	11847
930.581	12057
930.685	11920
930.79	11726
930.894	11821
930.998	11661
931.103	11805
931.207	11532
931.311	11417
931.415	11364
931.519	11239
931.623	11143
