Data from test_V78500241_575.txt Node
Date: Fri Mar 25 15:45:47 CST 2022
User: usil
Spectrometer: V785-0024
Trigger mode: 0
Integration Time (sec): 4.000000E-1
Scans to average: 1
Nonlinearity correction enabled: false
Boxcar width: 0
Storing dark spectrum: false
XAxis mode: Wavelengths
Number of Pixels in Spectrum: 1024
>>>>>Begin Spectral Data<<<<<
801.071	27766
801.214	27564
801.356	27447
801.499	27393
801.641	27344
801.783	27184
801.926	27268
802.068	27192
802.211	27096
802.353	27024
802.496	26990
802.638	26899
802.78	26857
802.923	26807
803.065	26971
803.208	26807
803.35	26895
803.492	26994
803.635	27089
803.777	27036
803.919	27100
804.061	27420
804.204	27089
804.346	27066
804.488	26948
804.63	27070
804.773	26982
804.915	27108
805.057	27214
805.199	27116
805.341	27116
805.483	27150
805.626	27233
805.768	27214
805.91	27142
806.052	27260
806.194	27230
806.336	27435
806.478	27306
806.62	27268
806.762	27344
806.904	27488
807.046	27854
807.188	27614
807.33	27580
807.472	27618
807.614	27663
807.756	27500
807.898	27443
808.04	27393
808.182	27397
808.324	27466
808.465	27526
808.607	27606
808.749	27831
808.891	27968
809.033	28010
809.174	27998
809.316	27770
809.458	27816
809.6	27911
809.741	27960
809.883	27983
810.025	28105
810.166	28147
810.308	28124
810.45	28135
810.591	28051
810.733	27922
810.875	27846
811.016	27709
811.158	27739
811.299	27930
811.441	28040
811.582	27991
811.724	27759
811.865	27770
812.007	27705
812.148	27774
812.29	27892
812.431	27956
812.573	28090
812.714	28207
812.855	28371
812.997	28481
813.138	28588
813.279	28519
813.421	28497
813.562	28242
813.703	28173
813.845	28025
813.986	27770
814.127	27462
814.268	27564
814.41	27625
814.551	27553
814.692	27599
814.833	27272
814.974	27458
815.115	27648
815.256	27374
815.397	27374
815.539	27469
815.68	27279
815.821	27230
815.962	27363
816.103	27317
816.244	27074
816.385	27036
816.526	27028
816.666	26845
816.807	26636
816.948	26956
817.089	26918
817.23	26807
817.371	26731
817.512	26838
817.653	26731
817.793	26819
817.934	26712
818.075	26845
818.216	26762
818.356	26716
818.497	26556
818.638	26549
818.778	26575
818.919	26594
819.06	26659
819.2	26777
819.341	26925
819.481	26678
819.622	26914
819.762	26986
819.903	27001
820.043	26880
820.184	26914
820.324	26826
820.465	26990
820.605	26944
820.746	26853
820.886	26861
821.026	26979
821.167	26994
821.307	26998
821.447	26819
821.588	26724
821.728	26480
821.868	26446
822.008	26347
822.149	26412
822.289	26286
822.429	26001
822.569	25936
822.709	25913
822.849	25860
822.99	25795
823.13	25575
823.27	25643
823.41	25681
823.55	25457
823.69	25578
823.83	25578
823.97	25502
824.11	25533
824.25	25392
824.389	25396
824.529	25426
824.669	25388
824.809	25571
824.949	25441
825.089	25582
825.228	25453
825.368	25396
825.508	25297
825.648	25392
825.787	25285
825.927	25289
826.067	25308
826.206	25343
826.346	25339
826.485	25343
826.625	25377
826.765	25403
826.904	25327
827.044	25042
827.183	25057
827.323	24833
827.462	25076
827.601	24970
827.741	24981
827.88	25114
828.02	24897
828.159	25072
828.298	24992
828.437	25095
828.577	25004
828.716	25069
828.855	24909
828.994	24650
829.134	24745
829.273	24840
829.412	24700
829.551	24684
829.69	24707
829.829	24768
829.968	24825
830.107	24783
830.246	24623
830.385	24604
830.524	24555
830.663	24532
830.802	24418
830.941	24209
831.08	24216
831.219	24388
831.357	24464
831.496	24627
831.635	24380
831.774	24300
831.913	24148
832.051	24030
832.19	24007
832.329	24167
832.467	24007
832.606	24053
832.744	23965
832.883	23901
833.022	23984
833.16	23931
833.299	23897
833.437	24098
833.576	24155
833.714	23935
833.852	24213
833.991	24129
834.129	24201
834.267	24060
834.406	24018
834.544	24026
834.682	23965
834.821	24064
834.959	24140
835.097	24034
835.235	24133
835.373	23980
835.511	24041
835.65	23885
835.788	23977
835.926	23923
836.064	23638
836.202	23649
836.34	23840
836.478	24068
836.615	23977
836.753	23779
836.891	23977
837.029	23863
837.167	23722
837.305	23752
837.443	23741
837.58	23771
837.718	23813
837.856	23779
837.993	23573
838.131	23638
838.269	23562
838.406	23642
838.544	23539
838.681	23227
838.819	23395
838.956	23079
839.094	23250
839.231	23341
839.369	23292
839.506	23459
839.643	23379
839.781	23242
839.918	23090
840.055	23235
840.193	23102
840.33	23113
840.467	23197
840.604	23044
840.742	23410
840.879	23022
841.016	23090
841.153	23044
841.29	23204
841.427	23189
841.564	23189
841.701	23098
841.838	23105
841.975	23041
842.112	22976
842.249	23014
842.385	22938
842.522	23102
842.659	22968
842.796	22767
842.933	22873
843.069	22812
843.206	22824
843.343	22801
843.479	22839
843.616	22767
843.752	22683
843.889	22713
844.025	22717
844.162	22713
844.298	22653
844.435	22531
844.571	22489
844.708	22702
844.844	22767
844.98	22809
845.117	22736
845.253	22611
845.389	22462
845.525	22527
845.661	22440
845.798	22344
845.934	22405
846.07	22390
846.206	22421
846.342	22607
846.478	22253
846.614	22120
846.75	21983
846.886	22059
847.022	22131
847.158	22196
847.294	22166
847.429	22097
847.565	22078
847.701	22325
847.837	21732
847.972	21869
848.108	21797
848.244	21918
848.379	21717
848.515	21819
848.65	21751
848.786	21701
848.921	21690
849.057	21873
849.192	21648
849.328	21728
849.463	21778
849.598	21671
849.734	21519
849.869	21633
850.004	21488
850.14	21469
850.275	21443
850.41	21397
850.545	21408
850.68	21439
850.815	21496
850.95	21447
851.085	21603
851.22	21534
851.355	21428
851.49	21393
851.625	21488
851.76	21359
851.895	21553
852.03	21412
852.165	21466
852.299	21515
852.434	21625
852.569	21454
852.703	21389
852.838	21568
852.973	21454
853.107	21485
853.242	21485
853.376	21233
853.511	21154
853.645	21329
853.78	21492
853.914	21279
854.048	21332
854.183	21252
854.317	21230
854.451	21420
854.585	21275
854.72	21317
854.854	21199
854.988	21157
855.122	21203
855.256	21085
855.39	21222
855.524	21363
855.658	21241
855.792	21096
855.926	21317
856.06	21310
856.194	21408
856.327	21275
856.461	21264
856.595	21230
856.729	21245
856.862	21469
856.996	21310
857.13	21370
857.263	21545
857.397	21431
857.53	21203
857.664	21370
857.797	21367
857.931	21454
858.064	21222
858.197	21386
858.331	21199
858.464	21291
858.597	21123
858.731	21279
858.864	21249
858.997	21116
859.13	21199
859.263	21249
859.396	21374
859.529	21218
859.662	21233
859.795	21287
859.928	21260
860.061	21355
860.194	21378
860.327	21420
860.46	21332
860.592	21317
860.725	21462
860.858	21412
860.99	21287
861.123	21230
861.256	21218
861.388	21359
861.521	21770
861.653	21043
861.786	21165
861.918	21142
862.05	21138
862.183	21173
862.315	21211
862.447	21249
862.58	21123
862.712	20944
862.844	21077
862.976	21009
863.108	21138
863.24	21458
863.372	20986
863.504	20990
863.636	20948
863.768	21009
863.9	21001
864.032	20914
864.164	20948
864.296	21028
864.428	21055
864.559	21043
864.691	20982
864.823	21039
864.954	20895
865.086	20998
865.217	20918
865.349	20796
865.48	20910
865.612	20895
865.743	20963
865.875	20899
866.006	20815
866.137	20861
866.269	20845
866.4	20956
866.531	20765
866.662	20731
866.793	20815
866.924	20746
867.055	20815
867.186	20731
867.317	20701
867.448	20705
867.579	20769
867.71	20796
867.841	20781
867.972	20788
868.103	20754
868.233	20785
868.364	20975
868.495	20800
868.625	21058
868.756	21230
868.886	21001
869.017	21024
869.147	21211
869.278	21070
869.408	21112
869.539	21100
869.669	21077
869.799	20971
869.929	21169
870.06	21165
870.19	21412
870.32	21397
870.45	21310
870.58	21374
870.71	21580
870.84	21393
870.97	21408
871.1	21526
871.23	21713
871.36	21534
871.489	21633
871.619	21572
871.749	21633
871.879	21755
872.008	21869
872.138	21675
872.267	21614
872.397	21561
872.526	21530
872.656	21477
872.785	21401
872.915	21542
873.044	21679
873.173	21587
873.303	21656
873.432	21759
873.561	21698
873.69	21648
873.819	21606
873.948	21663
874.077	21610
874.206	21519
874.335	21591
874.464	21762
874.593	22010
874.722	21884
874.851	21895
874.979	21922
875.108	21956
875.237	21876
875.365	21705
875.494	21857
875.623	21934
875.751	21922
875.88	21918
876.008	22074
876.136	21964
876.265	22333
876.393	22413
876.521	22459
876.65	22360
876.778	22291
876.906	22363
877.034	22242
877.162	22295
877.29	22303
877.418	22181
877.546	22246
877.674	22211
877.802	22291
877.93	22158
878.058	22185
878.185	22105
878.313	22268
878.441	22150
878.568	22048
878.696	22173
878.824	22363
878.951	22265
879.079	22390
879.206	22478
879.333	22360
879.461	22390
879.588	22314
879.715	22367
879.842	22523
879.97	22306
880.097	22055
880.224	22097
880.351	22074
880.478	22048
880.605	22086
880.732	22070
880.859	22150
880.986	22185
881.112	22101
881.239	21968
881.366	21751
881.493	21675
881.619	21606
881.746	21705
881.872	21663
881.999	21515
882.125	21587
882.252	21663
882.378	21622
882.505	21732
882.631	21523
882.757	21443
882.883	21382
883.01	21477
883.136	21283
883.262	21256
883.388	21188
883.514	21408
883.64	21287
883.766	21363
883.892	21192
884.018	21104
884.143	21329
884.269	21344
884.395	20998
884.52	20986
884.646	21055
884.772	20914
884.897	20895
885.023	20998
885.148	21032
885.274	21051
885.399	21104
885.524	21047
885.65	20941
885.775	20979
885.9	21001
886.025	21192
886.15	21039
886.275	21036
886.4	20902
886.525	20979
886.65	20902
886.775	20887
886.9	21131
887.025	21180
887.149	21032
887.274	20815
887.399	20773
887.523	20834
887.648	20716
887.773	20609
887.897	20861
888.021	20762
888.146	20648
888.27	20762
888.395	20864
888.519	20735
888.643	20796
888.767	20819
888.891	20731
889.015	20530
889.139	20663
889.263	20632
889.387	20617
889.511	20735
889.635	20754
889.759	20655
889.883	20609
890.006	20689
890.13	20617
890.254	20514
890.377	20434
890.501	20278
890.624	20218
890.748	20339
890.871	20282
890.995	20122
891.118	20088
891.241	20119
891.364	20161
891.488	20214
891.611	20035
891.734	20130
891.857	20210
891.98	20237
892.103	20225
892.226	20145
892.349	19955
892.471	19879
892.594	20111
892.717	20039
892.839	20035
892.962	20077
893.085	19940
893.207	20035
893.33	19849
893.452	20031
893.575	20176
893.697	19944
893.819	20145
893.941	20221
894.064	20286
894.186	19970
894.308	19928
894.43	20046
894.552	20134
894.674	20065
894.796	19833
894.918	19970
895.04	19925
895.161	20024
895.283	20081
895.405	19978
895.526	20031
895.648	20039
895.769	20062
895.891	20088
896.012	20077
896.134	20046
896.255	20081
896.376	20107
896.498	20062
896.619	20084
896.74	19970
896.861	20138
896.982	20438
897.103	20492
897.224	20298
897.345	20206
897.466	20225
897.587	20286
897.708	20434
897.828	20210
897.949	20195
898.07	20031
898.19	20214
898.311	20374
898.431	20225
898.552	20240
898.672	20218
898.792	20313
898.913	20305
899.033	20107
899.153	20054
899.273	20012
899.393	20039
899.513	20016
899.633	20008
899.753	19993
899.873	19917
899.993	20050
900.113	19890
900.232	19947
900.352	19856
900.472	19833
900.591	19738
900.711	19822
900.83	19719
900.95	19761
901.069	19841
901.189	19830
901.308	19510
901.427	19331
901.546	19335
901.665	19384
901.784	19438
901.904	19255
902.023	19057
902.141	18970
902.26	18810
902.379	18973
902.498	18882
902.617	18856
902.735	18905
902.854	18970
902.973	18722
903.091	18464
903.21	18467
903.328	18665
903.446	18437
903.565	18490
903.683	18403
903.801	18251
903.919	18224
904.038	18334
904.156	18205
904.274	18220
904.392	18159
904.51	18117
904.627	18140
904.745	18076
904.863	18091
904.981	17840
905.098	17775
905.216	17783
905.334	17817
905.451	17745
905.569	17741
905.686	17954
905.803	17764
905.921	17589
906.038	17604
906.155	17627
906.272	17627
906.389	17642
906.506	17265
906.623	17360
906.74	17455
906.857	17162
906.974	17349
907.091	17444
907.208	17383
907.324	17368
907.441	17261
907.557	17045
907.674	17151
907.79	17022
907.907	16953
908.023	17136
908.139	17105
908.256	16980
908.372	16892
908.488	16965
908.604	16816
908.72	16767
908.836	16649
908.952	16744
909.068	16755
909.184	16854
909.3	16828
909.415	16843
909.531	16774
909.647	16462
909.762	16497
909.878	16504
909.993	16478
910.108	16421
910.224	16363
910.339	16474
910.454	16306
910.57	16196
910.685	16219
910.8	16478
910.915	16531
911.03	16196
911.145	16143
911.259	16112
911.374	16082
911.489	15975
911.604	16048
911.718	15800
911.833	15812
911.947	15667
912.062	15690
912.176	15732
912.291	15983
912.405	15857
912.519	16044
912.633	15903
912.748	15831
912.862	15797
912.976	15660
913.09	15576
913.204	15622
913.318	15580
913.431	15751
913.545	15667
913.659	15751
913.772	15637
913.886	15462
914	15408
914.113	15469
914.226	15599
914.34	15564
914.453	15405
914.566	15386
914.68	15233
914.793	15287
914.906	15051
915.019	15058
915.132	15131
915.245	15077
915.358	15039
915.47	15036
915.583	15066
915.696	15066
915.809	15165
915.921	15123
916.034	14937
916.146	14998
916.259	14941
916.371	14944
916.483	14948
916.595	15017
916.708	14876
916.82	14883
916.932	14800
917.044	14815
917.156	14811
917.268	14670
917.38	14606
917.491	14792
917.603	14701
917.715	14758
917.826	14708
917.938	14712
918.049	14526
918.161	14629
918.272	14804
918.384	14697
918.495	14560
918.606	14473
918.717	14434
918.828	14492
918.939	14526
919.05	14518
919.161	14446
919.272	14221
919.383	14396
919.494	14514
919.604	14750
919.715	14495
919.826	14347
919.936	14320
920.047	14480
920.157	14389
920.267	14571
920.378	14427
920.488	14370
920.598	14568
920.708	14701
920.818	14530
920.928	14495
921.038	14762
921.148	14765
921.258	14450
921.368	14271
921.477	14191
921.587	14157
921.697	14081
921.806	14210
921.916	14039
922.025	13906
922.134	13906
922.244	13658
922.353	13833
922.462	13700
922.571	13632
922.68	13457
922.789	13502
922.898	13460
923.007	13411
923.116	13483
923.224	13453
923.333	13438
923.442	13331
923.55	13266
923.659	13251
923.767	13324
923.876	13327
923.984	13304
924.092	13187
924.201	13274
924.309	13259
924.417	13255
924.525	13129
924.633	13133
924.741	14073
924.849	12939
924.956	13061
925.064	12962
925.172	12878
925.279	12852
925.387	12901
925.494	12817
925.602	13012
925.709	12993
925.816	12760
925.924	12878
926.031	12894
926.138	12916
926.245	12840
926.352	12703
926.459	12821
926.566	12871
926.673	12696
926.779	12749
926.886	12604
926.993	12551
927.099	12502
927.206	12315
927.312	12399
927.419	12513
927.525	12460
927.631	12426
927.737	12418
927.843	12330
927.95	12224
928.056	12258
928.162	12228
928.267	12292
928.373	12913
928.479	12361
928.585	12182
928.69	12224
928.796	12224
928.901	12209
929.007	11958
929.112	12186
929.218	12091
929.323	12045
929.428	11935
929.533	12072
929.638	11931
929.743	11889
929.848	11961
929.953	11992
930.058	11817
930.163	11707
930.267	11657
930.372	11741
930.477	11623
930.581	11893
930.685	11684
930.79	11615
930.894	11600
930.998	11642
931.103	11596
931.207	11345
931.311	11288
931.415	11216
931.519	10919
931.623	10957
