Data from test_V78500241_3668.txt Node
Date: Fri Mar 25 16:07:12 CST 2022
User: usil
Spectrometer: V785-0024
Trigger mode: 0
Integration Time (sec): 4.000000E-1
Scans to average: 1
Nonlinearity correction enabled: false
Boxcar width: 0
Storing dark spectrum: false
XAxis mode: Wavelengths
Number of Pixels in Spectrum: 1024
>>>>>Begin Spectral Data<<<<<
801.071	28344
801.214	28462
801.356	28139
801.499	27930
801.641	27823
801.783	27869
801.926	28006
802.068	27922
802.211	27903
802.353	27781
802.496	27675
802.638	27576
802.78	27606
802.923	27515
803.065	27466
803.208	27473
803.35	27469
803.492	27705
803.635	27789
803.777	27720
803.919	27899
804.061	28093
804.204	27918
804.346	27694
804.488	27781
804.63	27892
804.773	27705
804.915	27819
805.057	28040
805.199	27812
805.341	27983
805.483	27911
805.626	27907
805.768	27842
805.91	27922
806.052	27960
806.194	27888
806.336	28051
806.478	27953
806.62	27869
806.762	28128
806.904	28329
807.046	28546
807.188	28246
807.33	28322
807.472	28447
807.614	28314
807.756	28325
807.898	28291
808.04	28112
808.182	28120
808.324	28329
808.465	28447
808.607	28455
808.749	28721
808.891	28786
809.033	28744
809.174	28641
809.316	28542
809.458	28634
809.6	28447
809.741	28805
809.883	28820
810.025	28949
810.166	28854
810.308	28946
810.45	28831
810.591	28873
810.733	28752
810.875	28649
811.016	28561
811.158	28584
811.299	28824
811.441	28748
811.582	28866
811.724	28850
811.865	28713
812.007	28710
812.148	28672
812.29	28755
812.431	28923
812.573	28930
812.714	28976
812.855	29197
812.997	29193
813.138	29265
813.279	29296
813.421	29265
813.562	29083
813.703	28976
813.845	28888
813.986	28641
814.127	28470
814.268	28398
814.41	28386
814.551	28299
814.692	28497
814.833	28333
814.974	28299
815.115	28447
815.256	28363
815.397	28109
815.539	28166
815.68	28200
815.821	28063
815.962	28090
816.103	28101
816.244	28173
816.385	28036
816.526	27937
816.666	27751
816.807	27698
816.948	27698
817.089	27766
817.23	27515
817.371	27686
817.512	27671
817.653	27652
817.793	27603
817.934	27568
818.075	27667
818.216	27641
818.356	27679
818.497	27492
818.638	27363
818.778	27469
818.919	27450
819.06	27401
819.2	27644
819.341	27736
819.481	27530
819.622	27797
819.762	28036
819.903	27994
820.043	27850
820.184	27888
820.324	27793
820.465	27903
820.605	27751
820.746	27781
820.886	27705
821.026	27759
821.167	27724
821.307	27922
821.447	27728
821.588	27644
821.728	27424
821.868	27260
822.008	27226
822.149	27233
822.289	27211
822.429	26921
822.569	26830
822.709	26773
822.849	26667
822.99	26609
823.13	26640
823.27	26545
823.41	26450
823.55	26412
823.69	26575
823.83	26507
823.97	26408
824.11	26244
824.25	26221
824.389	26298
824.529	26400
824.669	26237
824.809	26396
824.949	26469
825.089	26389
825.228	26328
825.368	26195
825.508	26119
825.648	26119
825.787	26324
825.927	26218
826.067	26073
826.206	26077
826.346	26210
826.485	26107
826.625	26161
826.765	26282
826.904	26191
827.044	25868
827.183	25951
827.323	25879
827.462	26062
827.601	25860
827.741	25917
827.88	26001
828.02	25761
828.159	25868
828.298	25795
828.437	25978
828.577	25887
828.716	26035
828.855	25799
828.994	25655
829.134	25632
829.273	25495
829.412	25563
829.551	25540
829.69	25472
829.829	25601
829.968	25537
830.107	25651
830.246	25620
830.385	25594
830.524	25445
830.663	25552
830.802	25331
830.941	25175
831.08	25118
831.219	25148
831.357	25251
831.496	25453
831.635	25183
831.774	25107
831.913	25012
832.051	25126
832.19	25000
832.329	24989
832.467	25008
832.606	24764
832.744	24764
832.883	24825
833.022	24810
833.16	24947
833.299	24913
833.437	24909
833.576	25088
833.714	24825
833.852	24894
833.991	24920
834.129	25023
834.267	25023
834.406	24924
834.544	24962
834.682	25027
834.821	24848
834.959	25061
835.097	24890
835.235	25027
835.373	24886
835.511	24901
835.65	24878
835.788	24806
835.926	24585
836.064	24536
836.202	24620
836.34	24791
836.478	24829
836.615	24825
836.753	24760
836.891	24894
837.029	24673
837.167	24654
837.305	24601
837.443	24601
837.58	24555
837.718	24665
837.856	24601
837.993	24570
838.131	24684
838.269	24357
838.406	24399
838.544	24350
838.681	24232
838.819	24174
838.956	24022
839.094	24110
839.231	24087
839.369	24178
839.506	24388
839.643	24300
839.781	24110
839.918	23946
840.055	23935
840.193	23965
840.33	23958
840.467	23969
840.604	23980
840.742	24270
840.879	23866
841.016	23908
841.153	23779
841.29	23988
841.427	24041
841.564	23901
841.701	23920
841.838	23775
841.975	23756
842.112	23882
842.249	23863
842.385	23737
842.522	23863
842.659	23619
842.796	23676
842.933	23547
843.069	23649
843.206	23756
843.343	23748
843.479	23805
843.616	23718
843.752	23566
843.889	23497
844.025	23668
844.162	23512
844.298	23551
844.435	23391
844.571	23486
844.708	23611
844.844	23573
844.98	23638
845.117	23463
845.253	23376
845.389	23330
845.525	23372
845.661	23398
845.798	23250
845.934	23364
846.07	23208
846.206	23208
846.342	23406
846.478	23227
846.614	22949
846.75	22911
846.886	22953
847.022	23098
847.158	22972
847.294	22927
847.429	22953
847.565	22949
847.701	23292
847.837	22672
847.972	22733
848.108	22839
848.244	22801
848.379	22489
848.515	22542
848.65	22580
848.786	22402
848.921	22535
849.057	22664
849.192	22641
849.328	22531
849.463	22580
849.598	22466
849.734	22459
849.869	22398
850.004	22310
850.14	22344
850.275	22405
850.41	22276
850.545	22287
850.68	22200
850.815	22333
850.95	22192
851.085	22375
851.22	22402
851.355	22394
851.49	22306
851.625	22306
851.76	22234
851.895	22131
852.03	22310
852.165	22226
852.299	22299
852.434	22466
852.569	22291
852.703	22318
852.838	22284
852.973	22447
853.107	22481
853.242	22238
853.376	22120
853.511	22051
853.645	22131
853.78	22280
853.914	22207
854.048	22078
854.183	22086
854.317	22158
854.451	22409
854.585	22143
854.72	22192
854.854	22268
854.988	22109
855.122	22116
855.256	22048
855.39	22090
855.524	22314
855.658	22177
855.792	22154
855.926	22246
856.06	22093
856.194	22268
856.327	22139
856.461	22086
856.595	22048
856.729	22169
856.862	22337
856.996	22135
857.13	22109
857.263	22215
857.397	22181
857.53	22036
857.664	22257
857.797	22135
857.931	22253
858.064	22101
858.197	22246
858.331	22147
858.464	22036
858.597	22017
858.731	22147
858.864	22040
858.997	22120
859.13	22181
859.263	22211
859.396	22272
859.529	22070
859.662	21953
859.795	21953
859.928	22051
860.061	22257
860.194	22314
860.327	22078
860.46	22120
860.592	22169
860.725	22261
860.858	22234
860.99	22139
861.123	22021
861.256	22025
861.388	22036
861.521	22961
861.653	21964
861.786	21884
861.918	21994
862.05	22147
862.183	22143
862.315	22086
862.447	22036
862.58	22063
862.712	21918
862.844	21827
862.976	21953
863.108	21899
863.24	22379
863.372	21880
863.504	21793
863.636	21861
863.768	21922
863.9	21918
864.032	21770
864.164	21865
864.296	21911
864.428	22010
864.559	21770
864.691	21789
864.823	21907
864.954	21876
865.086	21899
865.217	21751
865.349	21694
865.48	21759
865.612	21709
865.743	21880
865.875	21835
866.006	21713
866.137	21774
866.269	21869
866.4	21751
866.531	21686
866.662	21663
866.793	21774
866.924	21610
867.055	21819
867.186	21724
867.317	21587
867.448	21595
867.579	21633
867.71	21595
867.841	21614
867.972	21732
868.103	21762
868.233	21679
868.364	21705
868.495	21774
868.625	21876
868.756	21953
868.886	21812
869.017	21968
869.147	22036
869.278	22013
869.408	22010
869.539	22029
869.669	21972
869.799	21983
869.929	21991
870.06	22082
870.19	22306
870.32	22219
870.45	22337
870.58	22325
870.71	22310
870.84	22569
870.97	22421
871.1	22402
871.23	22432
871.36	22447
871.489	22417
871.619	22405
871.749	22531
871.879	22637
872.008	22744
872.138	22516
872.267	22565
872.397	22432
872.526	22303
872.656	22390
872.785	22363
872.915	22615
873.044	22596
873.173	22493
873.303	22717
873.432	22660
873.561	22580
873.69	22607
873.819	22580
873.948	22641
874.077	22584
874.206	22527
874.335	22557
874.464	22660
874.593	22729
874.722	22679
874.851	22892
874.979	22942
875.108	22816
875.237	22763
875.365	22816
875.494	22835
875.623	22752
875.751	22679
875.88	22797
876.008	22991
876.136	23006
876.265	23155
876.393	23322
876.521	23273
876.65	23318
876.778	23212
876.906	23128
877.034	23250
877.162	23079
877.29	23155
877.418	23064
877.546	23132
877.674	23136
877.802	23128
877.93	23014
878.058	23075
878.185	23121
878.313	23105
878.441	22995
878.568	22854
878.696	22999
878.824	23147
878.951	23204
879.079	23341
879.206	23497
879.333	23368
879.461	23037
879.588	23288
879.715	23406
879.842	23463
879.97	23311
880.097	22972
880.224	22949
880.351	22949
880.478	22946
880.605	22904
880.732	22831
880.859	23269
880.986	22862
881.112	22904
881.239	22786
881.366	22626
881.493	22497
881.619	22500
881.746	22512
881.872	22512
881.999	22402
882.125	22489
882.252	22485
882.378	22527
882.505	22508
882.631	22398
882.757	22287
882.883	22219
883.01	22154
883.136	22139
883.262	22082
883.388	22101
883.514	22158
883.64	22131
883.766	22078
883.892	22044
884.018	21945
884.143	22169
884.269	22207
884.395	21926
884.52	21804
884.646	21812
884.772	21698
884.897	21739
885.023	21747
885.148	21873
885.274	21869
885.399	21979
885.524	21831
885.65	21934
885.775	21892
885.9	21736
886.025	21876
886.15	22002
886.275	21774
886.4	21720
886.525	21804
886.65	21804
886.775	21865
886.9	21918
887.025	22067
887.149	21850
887.274	21736
887.399	21587
887.523	21564
887.648	21610
887.773	21481
887.897	21770
888.021	21759
888.146	21538
888.27	21762
888.395	21629
888.519	21724
888.643	21614
888.767	21591
888.891	21447
889.015	21348
889.139	21473
889.263	21382
889.387	21519
889.511	21500
889.635	21496
889.759	21367
889.883	21348
890.006	21428
890.13	21515
890.254	21287
890.377	21317
890.501	21233
890.624	21131
890.748	21112
890.871	21096
890.995	20982
891.118	20773
891.241	20921
891.364	20986
891.488	21043
891.611	21043
891.734	20933
891.857	21066
891.98	20971
892.103	21104
892.226	20975
892.349	20842
892.471	20609
892.594	20853
892.717	20906
892.839	20819
892.962	20864
893.085	21024
893.207	20838
893.33	20746
893.452	20686
893.575	20849
893.697	20682
893.819	20891
893.941	21081
894.064	21009
894.186	20712
894.308	20849
894.43	20899
894.552	20864
894.674	20952
894.796	20617
894.918	20731
895.04	20861
895.161	20918
895.283	20826
895.405	20750
895.526	20807
895.648	20933
895.769	20845
895.891	20777
896.012	20788
896.134	20910
896.255	20781
896.376	20735
896.498	20781
896.619	20853
896.74	20819
896.861	20891
896.982	21119
897.103	21306
897.224	21013
897.345	21039
897.466	20895
897.587	20864
897.708	21062
897.828	21043
897.949	20941
898.07	20876
898.19	21001
898.311	21093
898.431	20990
898.552	21009
898.672	21085
898.792	21096
898.913	21013
899.033	20921
899.153	20864
899.273	20590
899.393	20705
899.513	20845
899.633	20800
899.753	20925
899.873	20598
899.993	20754
900.113	20629
900.232	20807
900.352	20636
900.472	20609
900.591	20514
900.711	20526
900.83	20492
900.95	20530
901.069	20575
901.189	20473
901.308	20248
901.427	20073
901.546	20103
901.665	20039
901.784	20168
901.904	19879
902.023	19928
902.141	19639
902.26	19616
902.379	19723
902.498	19647
902.617	19575
902.735	19594
902.854	19605
902.973	19578
903.091	19434
903.21	19339
903.328	19168
903.446	19164
903.565	19080
903.683	19175
903.801	18966
903.919	19091
904.038	18932
904.156	18859
904.274	18947
904.392	18734
904.51	18821
904.627	18764
904.745	18920
904.863	18875
904.981	18639
905.098	18395
905.216	18540
905.334	18544
905.451	18631
905.569	18475
905.686	18540
905.803	18566
905.921	18247
906.038	18403
906.155	18247
906.272	18205
906.389	18194
906.506	18072
906.623	18019
906.74	18049
906.857	17855
906.974	17897
907.091	18079
907.208	18117
907.324	17969
907.441	17897
907.557	17802
907.674	17798
907.79	17699
907.907	17756
908.023	17817
908.139	17771
908.256	17691
908.372	17573
908.488	17562
908.604	17444
908.72	17391
908.836	17482
908.952	17543
909.068	17459
909.184	17478
909.3	17406
909.415	17417
909.531	17455
909.647	17284
909.762	17113
909.878	17098
909.993	17212
910.108	17155
910.224	17060
910.339	17178
910.454	16984
910.57	16915
910.685	16710
910.8	17235
910.915	17079
911.03	17025
911.145	16790
911.259	16744
911.374	16759
911.489	16637
911.604	16626
911.718	16462
911.833	16516
911.947	16280
912.062	16287
912.176	16523
912.291	16474
912.405	16447
912.519	16733
912.633	16683
912.748	16466
912.862	16405
912.976	16249
913.09	16173
913.204	16192
913.318	16299
913.431	16348
913.545	16390
913.659	16253
913.772	16238
913.886	16097
914	15998
914.113	16109
914.226	16192
914.34	16063
914.453	16059
914.566	16242
914.68	15953
914.793	16006
914.906	15857
915.019	15690
915.132	15580
915.245	15622
915.358	15709
915.47	15644
915.583	15618
915.696	15778
915.809	15656
915.921	15759
916.034	15625
916.146	15614
916.259	15633
916.371	15610
916.483	15660
916.595	15454
916.708	15538
916.82	15469
916.932	15435
917.044	15405
917.156	15374
917.268	15222
917.38	15393
917.491	15367
917.603	15298
917.715	15447
917.826	15439
917.938	15252
918.049	15138
918.161	15165
918.272	15420
918.384	15340
918.495	15272
918.606	15142
918.717	15005
918.828	14971
918.939	15028
919.05	14979
919.161	15058
919.272	14830
919.383	14857
919.494	15074
919.604	15226
919.715	14963
919.826	14899
919.936	14963
920.047	14990
920.157	14960
920.267	15127
920.378	14952
920.488	14952
920.598	15165
920.708	15287
920.818	15116
920.928	15081
921.038	15256
921.148	15211
921.258	15001
921.368	14819
921.477	14636
921.587	14754
921.697	14590
921.806	14670
921.916	14602
922.025	14362
922.134	14450
922.244	14271
922.353	14358
922.462	14259
922.571	14221
922.68	13997
922.789	13997
922.898	13997
923.007	13944
923.116	13989
923.224	14081
923.333	13925
923.442	13837
923.55	13852
923.659	13864
923.767	13913
923.876	13727
923.984	13776
924.092	13723
924.201	13822
924.309	13651
924.417	13708
924.525	13632
924.633	13681
924.741	14552
924.849	13487
924.956	13609
925.064	13464
925.172	13289
925.279	13419
925.387	13407
925.494	13407
925.602	13540
925.709	13411
925.816	13339
925.924	13270
926.031	13430
926.138	13312
926.245	13392
926.352	13171
926.459	13358
926.566	13419
926.673	13251
926.779	13107
926.886	13137
926.993	12970
927.099	12905
927.206	12928
927.312	12871
927.419	12905
927.525	12962
927.631	12928
927.737	12753
927.843	12795
927.95	12642
928.056	12806
928.162	12757
928.267	12863
928.373	13438
928.479	12890
928.585	12566
928.69	12711
928.796	12696
928.901	12544
929.007	12441
929.112	12623
929.218	12593
929.323	12429
929.428	12403
929.533	12604
929.638	12388
929.743	12426
929.848	12350
929.953	12467
930.058	12262
930.163	12076
930.267	12209
930.372	12243
930.477	12121
930.581	12277
930.685	12224
930.79	12011
930.894	12049
930.998	12026
931.103	12171
931.207	11764
931.311	11767
931.415	11630
931.519	11376
931.623	11425
