Data from test_V78500241_2569.txt Node
Date: Fri Mar 25 15:59:35 CST 2022
User: usil
Spectrometer: V785-0024
Trigger mode: 0
Integration Time (sec): 4.000000E-1
Scans to average: 1
Nonlinearity correction enabled: false
Boxcar width: 0
Storing dark spectrum: false
XAxis mode: Wavelengths
Number of Pixels in Spectrum: 1024
>>>>>Begin Spectral Data<<<<<
801.071	28733
801.214	28721
801.356	28580
801.499	28352
801.641	28531
801.783	28485
801.926	28459
802.068	28405
802.211	28504
802.353	28276
802.496	28211
802.638	28128
802.78	28173
802.923	28070
803.065	28166
803.208	28082
803.35	28090
803.492	28447
803.635	28447
803.777	28276
803.919	28344
804.061	28694
804.204	28462
804.346	28379
804.488	28386
804.63	28459
804.773	28344
804.915	28367
805.057	28531
805.199	28382
805.341	28474
805.483	28432
805.626	28519
805.768	28493
805.91	28630
806.052	28565
806.194	28367
806.336	28592
806.478	28596
806.62	28535
806.762	28660
806.904	28824
807.046	28949
807.188	29128
807.33	28953
807.472	29102
807.614	28984
807.756	28949
807.898	28835
808.04	28748
808.182	28888
808.324	28869
808.465	28858
808.607	29048
808.749	29402
808.891	29524
809.033	29417
809.174	29307
809.316	29345
809.458	29284
809.6	29075
809.741	29360
809.883	29463
810.025	29562
810.166	29467
810.308	29646
810.45	29566
810.591	29387
810.733	29372
810.875	29258
811.016	29174
811.158	29311
811.299	29406
811.441	29436
811.582	29330
811.724	29265
811.865	29086
812.007	29220
812.148	29341
812.29	29265
812.431	29459
812.573	29566
812.714	29577
812.855	29767
812.997	29973
813.138	30083
813.279	29855
813.421	29855
813.562	29760
813.703	29585
813.845	29330
813.986	29296
814.127	29075
814.268	28888
814.41	29056
814.551	28965
814.692	29041
814.833	28850
814.974	28900
815.115	28987
815.256	28793
815.397	28892
815.539	28782
815.68	28611
815.821	28831
815.962	28847
816.103	28615
816.244	28615
816.385	28512
816.526	28550
816.666	28424
816.807	28371
816.948	28238
817.089	28474
817.23	28185
817.371	28413
817.512	28177
817.653	28211
817.793	28333
817.934	28329
818.075	28310
818.216	28474
818.356	28287
818.497	28154
818.638	28135
818.778	28059
818.919	28078
819.06	28181
819.2	28200
819.341	28367
819.481	28211
819.622	28394
819.762	28645
819.903	28546
820.043	28474
820.184	28554
820.324	28447
820.465	28443
820.605	28523
820.746	28352
820.886	28390
821.026	28485
821.167	28325
821.307	28405
821.447	28367
821.588	28177
821.728	28112
821.868	27979
822.008	27808
822.149	27732
822.289	27804
822.429	27557
822.569	27424
822.709	27382
822.849	27275
822.99	27370
823.13	27272
823.27	27252
823.41	27207
823.55	27081
823.69	27150
823.83	27207
823.97	27154
824.11	26925
824.25	26826
824.389	26929
824.529	27070
824.669	27096
824.809	26902
824.949	27077
825.089	27055
825.228	26891
825.368	26731
825.508	26788
825.648	26868
825.787	26975
825.927	26895
826.067	26914
826.206	26754
826.346	26880
826.485	26868
826.625	26750
826.765	26857
826.904	26864
827.044	26571
827.183	26682
827.323	26385
827.462	26651
827.601	26518
827.741	26609
827.88	26465
828.02	26393
828.159	26545
828.298	26507
828.437	26712
828.577	26389
828.716	26667
828.855	26385
828.994	26237
829.134	26149
829.273	26290
829.412	26153
829.551	26103
829.69	26275
829.829	26290
829.968	26358
830.107	26301
830.246	26358
830.385	26111
830.524	26096
830.663	25997
830.802	25951
830.941	25856
831.08	25780
831.219	25925
831.357	25879
831.496	26187
831.635	25852
831.774	25807
831.913	25647
832.051	25613
832.19	25597
832.329	25875
832.467	25533
832.606	25647
832.744	25529
832.883	25453
833.022	25407
833.16	25449
833.299	25491
833.437	25453
833.576	25632
833.714	25495
833.852	25776
833.991	25586
834.129	25609
834.267	25647
834.406	25590
834.544	25556
834.682	25575
834.821	25457
834.959	25628
835.097	25479
835.235	25723
835.373	25590
835.511	25609
835.65	25259
835.788	25369
835.926	25244
836.064	25202
836.202	25228
836.34	25354
836.478	25419
836.615	25434
836.753	25407
836.891	25533
837.029	25339
837.167	25304
837.305	25285
837.443	25282
837.58	25141
837.718	25278
837.856	25225
837.993	25164
838.131	25217
838.269	25133
838.406	25053
838.544	25084
838.681	24833
838.819	24871
838.956	24597
839.094	24741
839.231	24555
839.369	24913
839.506	25000
839.643	24932
839.781	24623
839.918	24642
840.055	24566
840.193	24635
840.33	24563
840.467	24597
840.604	24597
840.742	24962
840.879	24437
841.016	24502
841.153	24532
841.29	24620
841.427	24582
841.564	24505
841.701	24547
841.838	24597
841.975	24380
842.112	24490
842.249	24380
842.385	24258
842.522	24570
842.659	24460
842.796	24296
842.933	24315
843.069	24201
843.206	24243
843.343	24448
843.479	24273
843.616	24388
843.752	24015
843.889	24148
844.025	24273
844.162	23992
844.298	24167
844.435	24228
844.571	24155
844.708	24174
844.844	24338
844.98	24247
845.117	24171
845.253	23958
845.389	24007
845.525	23912
845.661	24007
845.798	23920
845.934	23984
846.07	23828
846.206	23961
846.342	23984
846.478	23760
846.614	23619
846.75	23516
846.886	23566
847.022	23604
847.158	23619
847.294	23703
847.429	23570
847.565	23516
847.701	23691
847.837	23216
847.972	23322
848.108	23414
848.244	23345
848.379	23166
848.515	23136
848.65	23048
848.786	23200
848.921	23018
849.057	23181
849.192	23330
849.328	23155
849.463	23143
849.598	23121
849.734	22980
849.869	22915
850.004	22843
850.14	22976
850.275	22980
850.41	22896
850.545	22850
850.68	22828
850.815	22835
850.95	22835
851.085	23174
851.22	23132
851.355	22999
851.49	22881
851.625	22854
851.76	22869
851.895	22854
852.03	22816
852.165	22915
852.299	22976
852.434	23014
852.569	22911
852.703	22812
852.838	22889
852.973	23102
853.107	22965
853.242	22782
853.376	22736
853.511	22637
853.645	22626
853.78	22873
853.914	22877
854.048	22763
854.183	22698
854.317	22759
854.451	22797
854.585	22599
854.72	22698
854.854	22805
854.988	22763
855.122	22786
855.256	22599
855.39	22580
855.524	22733
855.658	22733
855.792	22656
855.926	22664
856.06	22710
856.194	22744
856.327	22755
856.461	22649
856.595	22592
856.729	22759
856.862	22767
856.996	22790
857.13	22831
857.263	22877
857.397	22831
857.53	22748
857.664	22809
857.797	22729
857.931	23014
858.064	22767
858.197	22820
858.331	22786
858.464	22626
858.597	22691
858.731	22713
858.864	22729
858.997	22725
859.13	22668
859.263	22778
859.396	22778
859.529	22580
859.662	22687
859.795	22641
859.928	22774
860.061	22885
860.194	22896
860.327	22782
860.46	22729
860.592	22809
860.725	22949
860.858	23003
860.99	22763
861.123	22645
861.256	22607
861.388	22687
861.521	23303
861.653	22584
861.786	22603
861.918	22428
862.05	22561
862.183	22713
862.315	22687
862.447	22615
862.58	22675
862.712	22382
862.844	22500
862.976	22447
863.108	22470
863.24	23025
863.372	22394
863.504	22485
863.636	22390
863.768	22466
863.9	22561
864.032	22192
864.164	22360
864.296	22470
864.428	22519
864.559	22436
864.691	22386
864.823	22447
864.954	22390
865.086	22443
865.217	22295
865.349	22272
865.48	22261
865.612	22341
865.743	22474
865.875	22379
866.006	22166
866.137	22367
866.269	22276
866.4	22299
866.531	22215
866.662	22147
866.793	22139
866.924	22257
867.055	22314
867.186	22185
867.317	22169
867.448	22253
867.579	22276
867.71	22219
867.841	22101
867.972	22230
868.103	22303
868.233	22173
868.364	22299
868.495	22329
868.625	22478
868.756	22630
868.886	22413
869.017	22390
869.147	22603
869.278	22546
869.408	22485
869.539	22481
869.669	22432
869.799	22531
869.929	22542
870.06	22523
870.19	22809
870.32	22713
870.45	22809
870.58	22820
870.71	22949
870.84	22949
870.97	22923
871.1	22740
871.23	23128
871.36	23102
871.489	23124
871.619	23044
871.749	23159
871.879	23162
872.008	23143
872.138	23105
872.267	23025
872.397	22869
872.526	22938
872.656	22896
872.785	23014
872.915	23185
873.044	23117
873.173	23113
873.303	23147
873.432	23170
873.561	23227
873.69	23083
873.819	23033
873.948	23124
874.077	23048
874.206	23022
874.335	23090
874.464	23280
874.593	23307
874.722	23250
874.851	23326
874.979	23326
875.108	23265
875.237	23288
875.365	23216
875.494	23273
875.623	23341
875.751	23166
875.88	23223
876.008	23440
876.136	23486
876.265	23680
876.393	23741
876.521	23821
876.65	23840
876.778	23771
876.906	23596
877.034	23649
877.162	23668
877.29	23581
877.418	23600
877.546	23741
877.674	23680
877.802	23657
877.93	23710
878.058	23615
878.185	23566
878.313	23554
878.441	23623
878.568	23364
878.696	23512
878.824	23733
878.951	23840
879.079	23855
879.206	23870
879.333	23699
879.461	23646
879.588	23790
879.715	23779
879.842	23889
879.97	23657
880.097	23558
880.224	23417
880.351	23452
880.478	23516
880.605	23307
880.732	23341
880.859	23619
880.986	23459
881.112	23463
881.239	23356
881.366	23162
881.493	23132
881.619	22965
881.746	22938
881.872	23067
881.999	23136
882.125	22942
882.252	22953
882.378	23006
882.505	23147
882.631	22934
882.757	22702
882.883	22668
883.01	22615
883.136	22675
883.262	22512
883.388	22485
883.514	22752
883.64	22577
883.766	22584
883.892	22481
884.018	22436
884.143	22664
884.269	22729
884.395	22352
884.52	22299
884.646	22398
884.772	22325
884.897	22169
885.023	22329
885.148	22409
885.274	22424
885.399	22432
885.524	22344
885.65	22299
885.775	22272
885.9	22284
886.025	22489
886.15	22409
886.275	22253
886.4	22196
886.525	22200
886.65	22238
886.775	22215
886.9	22375
887.025	22512
887.149	22196
887.274	22017
887.399	22032
887.523	22006
887.648	22067
887.773	21998
887.897	22207
888.021	22074
888.146	22067
888.27	22109
888.395	22048
888.519	22093
888.643	22025
888.767	22120
888.891	21861
889.015	21808
889.139	21888
889.263	21793
889.387	21941
889.511	22036
889.635	22013
889.759	21899
889.883	21739
890.006	21880
890.13	21960
890.254	21793
890.377	21759
890.501	21580
890.624	21603
890.748	21663
890.871	21526
890.995	21382
891.118	21420
891.241	21393
891.364	21336
891.488	21526
891.611	21408
891.734	21393
891.857	21443
891.98	21424
892.103	21428
892.226	21408
892.349	21401
892.471	21211
892.594	21226
892.717	21310
892.839	21260
892.962	21298
893.085	21412
893.207	21287
893.33	21180
893.452	21355
893.575	21245
893.697	21275
893.819	21424
893.941	21466
894.064	21492
894.186	21169
894.308	21233
894.43	21329
894.552	21408
894.674	21332
894.796	21131
894.918	21298
895.04	21256
895.161	21329
895.283	21203
895.405	21184
895.526	21176
895.648	21211
895.769	21340
895.891	21252
896.012	21336
896.134	21199
896.255	21245
896.376	21089
896.498	21233
896.619	21245
896.74	21287
896.861	21351
896.982	21564
897.103	21717
897.224	21534
897.345	21481
897.466	21534
897.587	21477
897.708	21519
897.828	21401
897.949	21454
898.07	21264
898.19	21469
898.311	21523
898.431	21450
898.552	21393
898.672	21545
898.792	21614
898.913	21485
899.033	21401
899.153	21207
899.273	21146
899.393	21214
899.513	21222
899.633	21192
899.753	21169
899.873	21066
899.993	21249
900.113	21192
900.232	21142
900.352	21161
900.472	21028
900.591	21005
900.711	20994
900.83	20842
900.95	21028
901.069	20960
901.189	20754
901.308	20644
901.427	20579
901.546	20518
901.665	20530
901.784	20655
901.904	20347
902.023	20366
902.141	20161
902.26	20027
902.379	20134
902.498	19989
902.617	19928
902.735	19993
902.854	20077
902.973	19913
903.091	19693
903.21	19769
903.328	19647
903.446	19533
903.565	19510
903.683	19438
903.801	19384
903.919	19472
904.038	19540
904.156	19232
904.274	19304
904.392	19301
904.51	19175
904.627	19308
904.745	19304
904.863	19350
904.981	19008
905.098	18867
905.216	18981
905.334	19057
905.451	18924
905.569	18890
905.686	19038
905.803	18981
905.921	18688
906.038	18867
906.155	18768
906.272	18631
906.389	18608
906.506	18483
906.623	18589
906.74	18445
906.857	18304
906.974	18433
907.091	18525
907.208	18601
907.324	18483
907.441	18426
907.557	18201
907.674	18186
907.79	18155
907.907	18228
908.023	18106
908.139	18228
908.256	18053
908.372	18053
908.488	17996
908.604	17878
908.72	17809
908.836	17901
908.952	17832
909.068	17874
909.184	17980
909.3	17958
909.415	17843
909.531	17843
909.647	17634
909.762	17611
909.878	17592
909.993	17634
910.108	17539
910.224	17524
910.339	17611
910.454	17368
910.57	17372
910.685	17231
910.8	17524
910.915	17535
911.03	17414
911.145	17189
911.259	17124
911.374	17064
911.489	17060
911.604	16968
911.718	16980
911.833	16896
911.947	16759
912.062	16713
912.176	16980
912.291	16957
912.405	16930
912.519	17102
912.633	17060
912.748	16877
912.862	16946
912.976	16733
913.09	16687
913.204	16649
913.318	16668
913.431	16672
913.545	16755
913.659	16782
913.772	16656
913.886	16531
914	16363
914.113	16588
914.226	16527
914.34	16504
914.453	16447
914.566	16466
914.68	16375
914.793	16360
914.906	16090
915.019	16055
915.132	15964
915.245	16086
915.358	16074
915.47	16002
915.583	16025
915.696	16112
915.809	16181
915.921	16211
916.034	15934
916.146	15888
916.259	15953
916.371	16051
916.483	15972
916.595	15774
916.708	15949
916.82	15907
916.932	15915
917.044	15736
917.156	15800
917.268	15728
917.38	15717
917.491	15603
917.603	15690
917.715	15736
917.826	15736
917.938	15553
918.049	15511
918.161	15549
918.272	15713
918.384	15797
918.495	15545
918.606	15488
918.717	15313
918.828	15496
918.939	15485
919.05	15348
919.161	15374
919.272	15218
919.383	15252
919.494	15447
919.604	15515
919.715	15435
919.826	15336
919.936	15397
920.047	15477
920.157	15344
920.267	15603
920.378	15370
920.488	15279
920.598	15515
920.708	15656
920.818	15504
920.928	15504
921.038	15622
921.148	15542
921.258	15382
921.368	15275
921.477	15066
921.587	15100
921.697	14982
921.806	15097
921.916	14921
922.025	14811
922.134	14667
922.244	14602
922.353	14769
922.462	14621
922.571	14587
922.68	14461
922.789	14381
922.898	14324
923.007	14339
923.116	14465
923.224	14271
923.333	14278
923.442	14081
923.55	14168
923.659	14172
923.767	14191
923.876	14100
923.984	14088
924.092	14123
924.201	14035
924.309	14157
924.417	14062
924.525	13997
924.633	14020
924.741	14944
924.849	13746
924.956	13902
925.064	13780
925.172	13605
925.279	13696
925.387	13761
925.494	13750
925.602	13769
925.709	13746
925.816	13567
925.924	13567
926.031	13693
926.138	13620
926.245	13704
926.352	13521
926.459	13700
926.566	13651
926.673	13540
926.779	13377
926.886	13468
926.993	13320
927.099	13247
927.206	13168
927.312	13137
927.419	13297
927.525	13209
927.631	13217
927.737	13114
927.843	13152
927.95	13012
928.056	12993
928.162	13057
928.267	13122
928.373	13666
928.479	13160
928.585	12920
928.69	12966
928.796	12951
928.901	12913
929.007	12817
929.112	12897
929.218	12833
929.323	12791
929.428	12715
929.533	12951
929.638	12749
929.743	12749
929.848	12783
929.953	12715
930.058	12639
930.163	12429
930.267	12395
930.372	12582
930.477	12357
930.581	12642
930.685	12498
930.79	12251
930.894	12464
930.998	12220
931.103	12380
931.207	12064
931.311	11965
931.415	11885
931.519	11707
931.623	11570
