Data from test_V78500241_2484.txt Node
Date: Fri Mar 25 15:59:00 CST 2022
User: usil
Spectrometer: V785-0024
Trigger mode: 0
Integration Time (sec): 4.000000E-1
Scans to average: 1
Nonlinearity correction enabled: false
Boxcar width: 0
Storing dark spectrum: false
XAxis mode: Wavelengths
Number of Pixels in Spectrum: 1024
>>>>>Begin Spectral Data<<<<<
801.071	28379
801.214	28276
801.356	28147
801.499	27987
801.641	27903
801.783	27873
801.926	27922
802.068	27994
802.211	27759
802.353	27857
802.496	27717
802.638	27648
802.78	27663
802.923	27450
803.065	27500
803.208	27466
803.35	27576
803.492	27736
803.635	27797
803.777	27663
803.919	27884
804.061	28162
804.204	27732
804.346	27804
804.488	27652
804.63	27804
804.773	27766
804.915	27960
805.057	27945
805.199	27720
805.341	27838
805.483	27903
805.626	27972
805.768	27918
805.91	27994
806.052	28051
806.194	27907
806.336	28048
806.478	27983
806.62	27914
806.762	28124
806.904	28303
807.046	28516
807.188	28356
807.33	28394
807.472	28428
807.614	28371
807.756	28474
807.898	28341
808.04	28238
808.182	28242
808.324	28078
808.465	28299
808.607	28466
808.749	28542
808.891	28641
809.033	28866
809.174	28736
809.316	28694
809.458	28596
809.6	28519
809.741	28653
809.883	28767
810.025	28953
810.166	28953
810.308	28820
810.45	28881
810.591	28717
810.733	28649
810.875	28691
811.016	28573
811.158	28451
811.299	28641
811.441	28702
811.582	28820
811.724	28584
811.865	28660
812.007	28702
812.148	28618
812.29	28653
812.431	28790
812.573	28850
812.714	28869
812.855	29178
812.997	29261
813.138	29345
813.279	29166
813.421	29227
813.562	29060
813.703	28866
813.845	28691
813.986	28634
814.127	28459
814.268	28303
814.41	28272
814.551	28276
814.692	28394
814.833	28284
814.974	28169
815.115	28344
815.256	28265
815.397	28207
815.539	28215
815.68	28284
815.821	28112
815.962	28215
816.103	28128
816.244	27968
816.385	27907
816.526	27857
816.666	27667
816.807	27633
816.948	27618
817.089	27705
817.23	27660
817.371	27629
817.512	27656
817.653	27564
817.793	27606
817.934	27587
818.075	27633
818.216	27709
818.356	27633
818.497	27481
818.638	27264
818.778	27405
818.919	27424
819.06	27412
819.2	27557
819.341	27614
819.481	27682
819.622	27846
819.762	27918
819.903	27975
820.043	27819
820.184	27747
820.324	27755
820.465	27785
820.605	27770
820.746	27759
820.886	27542
821.026	27812
821.167	27694
821.307	27701
821.447	27671
821.588	27679
821.728	27454
821.868	27218
822.008	27123
822.149	27077
822.289	27100
822.429	26712
822.569	26606
822.709	26861
822.849	26667
822.99	26606
823.13	26522
823.27	26503
823.41	26370
823.55	26381
823.69	26537
823.83	26351
823.97	26256
824.11	26149
824.25	26176
824.389	26240
824.529	26301
824.669	26271
824.809	26263
824.949	26172
825.089	26282
825.228	26286
825.368	26145
825.508	26065
825.648	26122
825.787	26172
825.927	26096
826.067	26039
826.206	26218
826.346	26073
826.485	26202
826.625	26084
826.765	26161
826.904	26050
827.044	25860
827.183	25913
827.323	25841
827.462	25978
827.601	25898
827.741	25830
827.88	25894
828.02	25689
828.159	25864
828.298	25883
828.437	25818
828.577	25753
828.716	25871
828.855	25719
828.994	25533
829.134	25422
829.273	25525
829.412	25430
829.551	25468
829.69	25400
829.829	25453
829.968	25575
830.107	25556
830.246	25571
830.385	25407
830.524	25240
830.663	25320
830.802	25335
830.941	25103
831.08	25046
831.219	25194
831.357	25285
831.496	25362
831.635	25000
831.774	25050
831.913	25069
832.051	24901
832.19	25000
832.329	24844
832.467	24878
832.606	24722
832.744	24730
832.883	24719
833.022	24764
833.16	24787
833.299	24985
833.437	24753
833.576	24840
833.714	24715
833.852	24859
833.991	24890
834.129	24856
834.267	24833
834.406	24856
834.544	24859
834.682	24787
834.821	24856
834.959	25023
835.097	24730
835.235	24779
835.373	24700
835.511	24840
835.65	24730
835.788	24795
835.926	24597
836.064	24464
836.202	24502
836.34	24669
836.478	24722
836.615	24635
836.753	24654
836.891	24661
837.029	24494
837.167	24669
837.305	24502
837.443	24502
837.58	24559
837.718	24601
837.856	24483
837.993	24540
838.131	24521
838.269	24330
838.406	24464
838.544	24338
838.681	24064
838.819	24087
838.956	23980
839.094	23996
839.231	24079
839.369	24232
839.506	24388
839.643	24186
839.781	23923
839.918	23927
840.055	23927
840.193	24018
840.33	23840
840.467	23866
840.604	23847
840.742	24095
840.879	23832
841.016	23767
841.153	23718
841.29	23969
841.427	23870
841.564	23958
841.701	23783
841.838	23695
841.975	23680
842.112	23707
842.249	23729
842.385	23684
842.522	23893
842.659	23638
842.796	23661
842.933	23520
843.069	23516
843.206	23592
843.343	23661
843.479	23551
843.616	23585
843.752	23395
843.889	23383
844.025	23581
844.162	23379
844.298	23474
844.435	23410
844.571	23433
844.708	23299
844.844	23459
844.98	23554
845.117	23429
845.253	23212
845.389	23174
845.525	23216
845.661	23128
845.798	23109
845.934	23204
846.07	23223
846.206	23102
846.342	23292
846.478	23018
846.614	22934
846.75	22748
846.886	22824
847.022	22843
847.158	22934
847.294	22843
847.429	22900
847.565	22831
847.701	23170
847.837	22782
847.972	22679
848.108	22733
848.244	22546
848.379	22504
848.515	22432
848.65	22356
848.786	22459
848.921	22497
849.057	22527
849.192	22470
849.328	22531
849.463	22455
849.598	22325
849.734	22325
849.869	22131
850.004	22192
850.14	22322
850.275	22105
850.41	22147
850.545	22063
850.68	22265
850.815	22234
850.95	22242
851.085	22284
851.22	22386
851.355	22280
851.49	22337
851.625	22230
851.76	22287
851.895	22143
852.03	22105
852.165	22234
852.299	22192
852.434	22238
852.569	22265
852.703	22287
852.838	22268
852.973	22329
853.107	22272
853.242	22158
853.376	21953
853.511	22112
853.645	22051
853.78	22120
853.914	21949
854.048	22078
854.183	22006
854.317	22070
854.451	22173
854.585	22036
854.72	21960
854.854	22143
854.988	21922
855.122	22013
855.256	21895
855.39	22082
855.524	22006
855.658	22097
855.792	22070
855.926	22051
856.06	22032
856.194	22097
856.327	21956
856.461	22059
856.595	21949
856.729	22013
856.862	22158
856.996	21991
857.13	22128
857.263	22143
857.397	22112
857.53	22006
857.664	22139
857.797	22135
857.931	22124
858.064	22177
858.197	22169
858.331	22116
858.464	21873
858.597	21987
858.731	21907
858.864	21964
858.997	22013
859.13	21975
859.263	22173
859.396	22067
859.529	21949
859.662	22059
859.795	22086
859.928	22021
860.061	22166
860.194	22246
860.327	22120
860.46	22067
860.592	22059
860.725	22158
860.858	22173
860.99	21991
861.123	21934
861.256	21983
861.388	22097
861.521	22809
861.653	21846
861.786	21922
861.918	21888
862.05	21842
862.183	22097
862.315	21998
862.447	22010
862.58	21934
862.712	21656
862.844	21766
862.976	21861
863.108	21694
863.24	22166
863.372	21720
863.504	21637
863.636	21717
863.768	21770
863.9	21720
864.032	21648
864.164	21644
864.296	21732
864.428	21755
864.559	21812
864.691	21766
864.823	21690
864.954	21770
865.086	21709
865.217	21701
865.349	21606
865.48	21644
865.612	21637
865.743	21736
865.875	21732
866.006	21641
866.137	21549
866.269	21572
866.4	21583
866.531	21618
866.662	21462
866.793	21561
866.924	21644
867.055	21488
867.186	21500
867.317	21469
867.448	21519
867.579	21599
867.71	21393
867.841	21405
867.972	21637
868.103	21580
868.233	21504
868.364	21568
868.495	21625
868.625	21800
868.756	21838
868.886	21781
869.017	21743
869.147	21861
869.278	21880
869.408	21831
869.539	21888
869.669	21903
869.799	21797
869.929	21945
870.06	21918
870.19	21987
870.32	22143
870.45	22211
870.58	22230
870.71	22333
870.84	22204
870.97	22257
871.1	22242
871.23	22253
871.36	22409
871.489	22402
871.619	22398
871.749	22428
871.879	22318
872.008	22455
872.138	22390
872.267	22428
872.397	22200
872.526	22013
872.656	22268
872.785	22291
872.915	22485
873.044	22485
873.173	22447
873.303	22497
873.432	22394
873.561	22557
873.69	22535
873.819	22470
873.948	22405
874.077	22394
874.206	22375
874.335	22341
874.464	22584
874.593	22577
874.722	22565
874.851	22531
874.979	22755
875.108	22702
875.237	22500
875.365	22637
875.494	22531
875.623	22634
875.751	22531
875.88	22596
876.008	22923
876.136	22805
876.265	22961
876.393	23037
876.521	23041
876.65	23086
876.778	23022
876.906	22972
877.034	22946
877.162	23014
877.29	22904
877.418	23113
877.546	22946
877.674	22877
877.802	23102
877.93	22968
878.058	22923
878.185	22854
878.313	22831
878.441	22957
878.568	22824
878.696	22885
878.824	22908
878.951	23124
879.079	23166
879.206	23178
879.333	23113
879.461	22976
879.588	22999
879.715	23109
879.842	23315
879.97	23083
880.097	22812
880.224	22873
880.351	22915
880.478	22778
880.605	22702
880.732	22869
880.859	23086
880.986	22820
881.112	22820
881.239	22679
881.366	22538
881.493	22535
881.619	22455
881.746	22417
881.872	22394
881.999	22303
882.125	22306
882.252	22291
882.378	22371
882.505	22367
882.631	22158
882.757	22105
882.883	22109
883.01	22021
883.136	21903
883.262	21857
883.388	21895
883.514	22147
883.64	22158
883.766	21873
883.892	21835
884.018	21850
884.143	21922
884.269	22070
884.395	21759
884.52	21572
884.646	21823
884.772	21618
884.897	21576
885.023	21690
885.148	21766
885.274	21857
885.399	21781
885.524	21747
885.65	21766
885.775	21663
885.9	21660
886.025	21732
886.15	21675
886.275	21637
886.4	21766
886.525	21618
886.65	21603
886.775	21652
886.9	21800
887.025	21823
887.149	21671
887.274	21572
887.399	21424
887.523	21534
887.648	21332
887.773	21313
887.897	21553
888.021	21557
888.146	21428
888.27	21545
888.395	21500
888.519	21500
888.643	21435
888.767	21443
888.891	21370
889.015	21237
889.139	21313
889.263	21093
889.387	21264
889.511	21447
889.635	21355
889.759	21268
889.883	21218
890.006	21313
890.13	21283
890.254	21199
890.377	21100
890.501	20952
890.624	20918
890.748	21009
890.871	20880
890.995	20689
891.118	20632
891.241	20899
891.364	20838
891.488	20921
891.611	20769
891.734	20925
891.857	20857
891.98	20758
892.103	20906
892.226	20785
892.349	20678
892.471	20530
892.594	20697
892.717	20644
892.839	20762
892.962	20541
893.085	20777
893.207	20762
893.33	20651
893.452	20716
893.575	20629
893.697	20648
893.819	20724
893.941	20849
894.064	20880
894.186	20689
894.308	20594
894.43	20693
894.552	20899
894.674	20826
894.796	20461
894.918	20575
895.04	20697
895.161	20788
895.283	20739
895.405	20667
895.526	20659
895.648	20629
895.769	20686
895.891	20708
896.012	20750
896.134	20826
896.255	20621
896.376	20579
896.498	20731
896.619	20727
896.74	20663
896.861	20853
896.982	20925
897.103	21055
897.224	20876
897.345	20891
897.466	20792
897.587	20906
897.708	21005
897.828	21017
897.949	20769
898.07	20792
898.19	20804
898.311	20921
898.431	20872
898.552	20857
898.672	20880
898.792	20994
898.913	20956
899.033	20762
899.153	20777
899.273	20606
899.393	20629
899.513	20651
899.633	20533
899.753	20545
899.873	20602
899.993	20785
900.113	20545
900.232	20663
900.352	20556
900.472	20465
900.591	20423
900.711	20476
900.83	20393
900.95	20408
901.069	20461
901.189	20370
901.308	20157
901.427	20031
901.546	19890
901.665	20043
901.784	20073
901.904	19841
902.023	19818
902.141	19685
902.26	19514
902.379	19525
902.498	19453
902.617	19434
902.735	19567
902.854	19514
902.973	19358
903.091	19164
903.21	19145
903.328	19042
903.446	19084
903.565	18913
903.683	18973
903.801	18932
903.919	18958
904.038	18966
904.156	18810
904.274	18791
904.392	18696
904.51	18681
904.627	18547
904.745	18719
904.863	18711
904.981	18460
905.098	18395
905.216	18350
905.334	18388
905.451	18357
905.569	18323
905.686	18388
905.803	18441
905.921	18095
906.038	18197
906.155	18251
906.272	18045
906.389	18022
906.506	17916
906.623	17923
906.74	17847
906.857	17714
906.974	17733
907.091	18030
907.208	18053
907.324	17889
907.441	17657
907.557	17687
907.674	17668
907.79	17570
907.907	17589
908.023	17585
908.139	17573
908.256	17634
908.372	17558
908.488	17467
908.604	17311
908.72	17303
908.836	17429
908.952	17250
909.068	17265
909.184	17387
909.3	17356
909.415	17341
909.531	17387
909.647	17086
909.762	17010
909.878	17033
909.993	17041
910.108	17109
910.224	16923
910.339	16850
910.454	16873
910.57	16908
910.685	16763
910.8	17022
910.915	16965
911.03	16831
911.145	16561
911.259	16531
911.374	16603
911.489	16577
911.604	16493
911.718	16341
911.833	16436
911.947	16261
912.062	16215
912.176	16409
912.291	16287
912.405	16356
912.519	16508
912.633	16584
912.748	16352
912.862	16352
912.976	16196
913.09	15994
913.204	16101
913.318	16223
913.431	16207
913.545	16249
913.659	16147
913.772	16082
913.886	16025
914	15991
914.113	15941
914.226	16109
914.34	16090
914.453	15857
914.566	15991
914.68	15831
914.793	15880
914.906	15739
915.019	15545
915.132	15488
915.245	15542
915.358	15519
915.47	15568
915.583	15530
915.696	15500
915.809	15644
915.921	15629
916.034	15450
916.146	15420
916.259	15549
916.371	15523
916.483	15447
916.595	15408
916.708	15435
916.82	15351
916.932	15367
917.044	15386
917.156	15306
917.268	15241
917.38	15222
917.491	15249
917.603	15268
917.715	15275
917.826	15329
917.938	15203
918.049	14971
918.161	15032
918.272	15321
918.384	15135
918.495	15100
918.606	14990
918.717	14876
918.828	15024
918.939	14982
919.05	14842
919.161	14910
919.272	14701
919.383	14777
919.494	14937
919.604	15116
919.715	14914
919.826	14769
919.936	14864
920.047	14853
920.157	14868
920.267	15062
920.378	14838
920.488	14804
920.598	14975
920.708	15195
920.818	15013
920.928	15024
921.038	15211
921.148	15188
921.258	14857
921.368	14720
921.477	14720
921.587	14625
921.697	14545
921.806	14663
921.916	14473
922.025	14336
922.134	14168
922.244	14157
922.353	14271
922.462	14145
922.571	14123
922.68	13879
922.789	13932
922.898	13978
923.007	13860
923.116	13890
923.224	13967
923.333	13795
923.442	13704
923.55	13651
923.659	13746
923.767	13818
923.876	13769
923.984	13647
924.092	13571
924.201	13689
924.309	13605
924.417	13620
924.525	13457
924.633	13525
924.741	14400
924.849	13297
924.956	13483
925.064	13331
925.172	13316
925.279	13259
925.387	13324
925.494	13316
925.602	13453
925.709	13274
925.816	13213
925.924	13217
926.031	13263
926.138	13103
926.245	13225
926.352	13221
926.459	13278
926.566	13301
926.673	13194
926.779	13076
926.886	12985
926.993	12901
927.099	12844
927.206	12829
927.312	12757
927.419	12856
927.525	12844
927.631	12825
927.737	12745
927.843	12684
927.95	12612
928.056	12711
928.162	12658
928.267	12700
928.373	13251
928.479	12681
928.585	12502
928.69	12563
928.796	12623
928.901	12544
929.007	12407
929.112	12654
929.218	12467
929.323	12460
929.428	12391
929.533	12528
929.638	12311
929.743	12296
929.848	12330
929.953	12266
930.058	12243
930.163	12022
930.267	12026
930.372	12216
930.477	12064
930.581	12197
930.685	12110
930.79	12098
930.894	11954
930.998	11912
931.103	12068
931.207	11691
931.311	11558
931.415	11429
931.519	11292
931.623	11292
