Data from test_V78500241_1734.txt Node
Date: Fri Mar 25 15:53:48 CST 2022
User: usil
Spectrometer: V785-0024
Trigger mode: 0
Integration Time (sec): 4.000000E-1
Scans to average: 1
Nonlinearity correction enabled: false
Boxcar width: 0
Storing dark spectrum: false
XAxis mode: Wavelengths
Number of Pixels in Spectrum: 1024
>>>>>Begin Spectral Data<<<<<
801.071	28128
801.214	28090
801.356	27835
801.499	27869
801.641	27690
801.783	27785
801.926	27895
802.068	27789
802.211	27641
802.353	27603
802.496	27412
802.638	27363
802.78	27241
802.923	27226
803.065	27252
803.208	27161
803.35	27351
803.492	27587
803.635	27614
803.777	27530
803.919	27610
804.061	27926
804.204	27663
804.346	27644
804.488	27610
804.63	27557
804.773	27435
804.915	27599
805.057	27800
805.199	27606
805.341	27610
805.483	27739
805.626	27694
805.768	27599
805.91	27720
806.052	27785
806.194	27743
806.336	27861
806.478	27789
806.62	27880
806.762	27873
806.904	28067
807.046	28379
807.188	28131
807.33	28310
807.472	28352
807.614	28261
807.756	28215
807.898	28048
808.04	27926
808.182	28013
808.324	28048
808.465	28143
808.607	28360
808.749	28485
808.891	28512
809.033	28592
809.174	28432
809.316	28375
809.458	28443
809.6	28287
809.741	28542
809.883	28474
810.025	28660
810.166	28839
810.308	28717
810.45	28641
810.591	28615
810.733	28291
810.875	28280
811.016	28188
811.158	28253
811.299	28611
811.441	28626
811.582	28489
811.724	28325
811.865	28379
812.007	28409
812.148	28451
812.29	28447
812.431	28573
812.573	28706
812.714	28888
812.855	28892
812.997	29018
813.138	29189
813.279	29136
813.421	28869
813.562	28828
813.703	28835
813.845	28557
813.986	28344
814.127	28150
814.268	28166
814.41	28204
814.551	27953
814.692	28051
814.833	28013
814.974	28013
815.115	28101
815.256	27949
815.397	27972
815.539	27934
815.68	27892
815.821	27846
815.962	27884
816.103	27823
816.244	27747
816.385	27774
816.526	27606
816.666	27454
816.807	27241
816.948	27587
817.089	27492
817.23	27313
817.371	27275
817.512	27485
817.653	27340
817.793	27279
817.934	27580
818.075	27389
818.216	27466
818.356	27298
818.497	27241
818.638	27039
818.778	27218
818.919	27169
819.06	27180
819.2	27161
819.341	27332
819.481	27351
819.622	27424
819.762	27728
819.903	27694
820.043	27553
820.184	27511
820.324	27553
820.465	27618
820.605	27629
820.746	27622
820.886	27401
821.026	27488
821.167	27523
821.307	27496
821.447	27401
821.588	27154
821.728	27287
821.868	27013
822.008	26921
822.149	26986
822.289	26921
822.429	26495
822.569	26552
822.709	26549
822.849	26347
822.99	26343
823.13	26309
823.27	26396
823.41	26153
823.55	26119
823.69	26347
823.83	26244
823.97	26168
824.11	25860
824.25	26035
824.389	25978
824.529	26073
824.669	26016
824.809	26073
824.949	26191
825.089	26195
825.228	26050
825.368	25890
825.508	25898
825.648	25959
825.787	25993
825.927	25822
826.067	25738
826.206	25944
826.346	25993
826.485	25765
826.625	25993
826.765	25993
826.904	26031
827.044	25559
827.183	25628
827.323	25601
827.462	25757
827.601	25639
827.741	25651
827.88	25639
828.02	25476
828.159	25529
828.298	25681
828.437	25647
828.577	25605
828.716	25601
828.855	25377
828.994	25381
829.134	25213
829.273	25282
829.412	25103
829.551	25274
829.69	25198
829.829	25316
829.968	25381
830.107	25282
830.246	25346
830.385	25228
830.524	25160
830.663	25080
830.802	25008
830.941	24943
831.08	24840
831.219	24939
831.357	24962
831.496	25118
831.635	24810
831.774	24863
831.913	24673
832.051	24840
832.19	24696
832.329	24692
832.467	24669
832.606	24521
832.744	24604
832.883	24445
833.022	24536
833.16	24673
833.299	24604
833.437	24681
833.576	24540
833.714	24559
833.852	24627
833.991	24681
834.129	24802
834.267	24612
834.406	24696
834.544	24677
834.682	24669
834.821	24608
834.959	24760
835.097	24566
835.235	24783
835.373	24540
835.511	24517
835.65	24528
835.788	24479
835.926	24384
836.064	24285
836.202	24353
836.34	24574
836.478	24604
836.615	24597
836.753	24464
836.891	24604
837.029	24388
837.167	24395
837.305	24270
837.443	24395
837.58	24171
837.718	24327
837.856	24292
837.993	24140
838.131	24209
838.269	24163
838.406	24243
838.544	24171
838.681	23977
838.819	23885
838.956	23703
839.094	23790
839.231	23855
839.369	23733
839.506	24045
839.643	24026
839.781	23680
839.918	23619
840.055	23828
840.193	23756
840.33	23619
840.467	23562
840.604	23809
840.742	24026
840.879	23471
841.016	23577
841.153	23543
841.29	23684
841.427	23718
841.564	23665
841.701	23661
841.838	23665
841.975	23585
842.112	23619
842.249	23528
842.385	23440
842.522	23604
842.659	23414
842.796	23356
842.933	23486
843.069	23254
843.206	23379
843.343	23322
843.479	23330
843.616	23448
843.752	23185
843.889	23166
844.025	23288
844.162	23189
844.298	23353
844.435	23178
844.571	23052
844.708	23147
844.844	23235
844.98	23337
845.117	23246
845.253	23117
845.389	23094
845.525	23140
845.661	23079
845.798	22938
845.934	22976
846.07	22965
846.206	22896
846.342	23075
846.478	22972
846.614	22778
846.75	22577
846.886	22603
847.022	22675
847.158	22729
847.294	22622
847.429	22634
847.565	22618
847.701	22850
847.837	22451
847.972	22474
848.108	22481
848.244	22493
848.379	22291
848.515	22230
848.65	22143
848.786	22207
848.921	22150
849.057	22348
849.192	22299
849.328	22162
849.463	22219
849.598	22188
849.734	22063
849.869	22143
850.004	21937
850.14	22036
850.275	22032
850.41	21922
850.545	21972
850.68	22029
850.815	21926
850.95	21903
851.085	22067
851.22	22059
851.355	22093
851.49	22036
851.625	21899
851.76	22082
851.895	22044
852.03	21983
852.165	22002
852.299	22090
852.434	22070
852.569	22044
852.703	22010
852.838	22029
852.973	22158
853.107	22219
853.242	21911
853.376	21785
853.511	21869
853.645	21892
853.78	22036
853.914	21717
854.048	21728
854.183	21797
854.317	21762
854.451	22067
854.585	21880
854.72	21937
854.854	21956
854.988	21747
855.122	21762
855.256	21724
855.39	21770
855.524	21911
855.658	21911
855.792	21865
855.926	21930
856.06	21880
856.194	22040
856.327	21846
856.461	21789
856.595	21732
856.729	21857
856.862	22021
856.996	21808
857.13	22006
857.263	21884
857.397	21975
857.53	21698
857.664	21911
857.797	21956
857.931	21994
858.064	21842
858.197	21983
858.331	21934
858.464	21717
858.597	21755
858.731	21922
858.864	21873
858.997	21736
859.13	21751
859.263	21736
859.396	21873
859.529	21838
859.662	21698
859.795	21823
859.928	21728
860.061	21941
860.194	21949
860.327	21793
860.46	21854
860.592	22002
860.725	22002
860.858	21991
860.99	21846
861.123	21701
861.256	21667
861.388	21876
861.521	22721
861.653	21641
861.786	21656
861.918	21698
862.05	21743
862.183	21736
862.315	21587
862.447	21823
862.58	21717
862.712	21553
862.844	21458
862.976	21629
863.108	21557
863.24	21857
863.372	21355
863.504	21564
863.636	21538
863.768	21595
863.9	21614
864.032	21519
864.164	21561
864.296	21500
864.428	21690
864.559	21648
864.691	21504
864.823	21443
864.954	21629
865.086	21485
865.217	21408
865.349	21370
865.48	21431
865.612	21416
865.743	21580
865.875	21523
866.006	21275
866.137	21310
866.269	21348
866.4	21500
866.531	21317
866.662	21336
866.793	21355
866.924	21306
867.055	21462
867.186	21431
867.317	21367
867.448	21294
867.579	21450
867.71	21230
867.841	21245
867.972	21291
868.103	21386
868.233	21420
868.364	21317
868.495	21447
868.625	21564
868.756	21755
868.886	21511
869.017	21511
869.147	21675
869.278	21682
869.408	21641
869.539	21682
869.669	21637
869.799	21732
869.929	21709
870.06	21713
870.19	21854
870.32	21880
870.45	21915
870.58	22010
870.71	22131
870.84	22078
870.97	21960
871.1	21937
871.23	22211
871.36	22177
871.489	22021
871.619	22101
871.749	22181
871.879	22268
872.008	22371
872.138	22135
872.267	22230
872.397	22055
872.526	21998
872.656	21960
872.785	22135
872.915	22211
873.044	22268
873.173	22177
873.303	22257
873.432	22265
873.561	22322
873.69	22272
873.819	22291
873.948	22322
874.077	22109
874.206	22196
874.335	22234
874.464	22329
874.593	22462
874.722	22382
874.851	22398
874.979	22493
875.108	22542
875.237	22440
875.365	22226
875.494	22432
875.623	22573
875.751	22295
875.88	22459
876.008	22637
876.136	22649
876.265	22839
876.393	23010
876.521	22934
876.65	22869
876.778	22782
876.906	22759
877.034	22774
877.162	22683
877.29	22752
877.418	22797
877.546	22790
877.674	22793
877.802	22713
877.93	22755
878.058	22668
878.185	22763
878.313	22649
878.441	22721
878.568	22649
878.696	22653
878.824	22911
878.951	22908
879.079	22949
879.206	23067
879.333	22957
879.461	22858
879.588	22752
879.715	23014
879.842	23102
879.97	22847
880.097	22592
880.224	22542
880.351	22592
880.478	22599
880.605	22630
880.732	22565
880.859	22885
880.986	22584
881.112	22717
881.239	22440
881.366	22242
881.493	22215
881.619	22181
881.746	22284
881.872	22154
881.999	22147
882.125	22124
882.252	22150
882.378	22082
882.505	22276
882.631	22078
882.757	21861
882.883	21960
883.01	21808
883.136	21865
883.262	21736
883.388	21724
883.514	21869
883.64	21751
883.766	21698
883.892	21618
884.018	21641
884.143	21720
884.269	21876
884.395	21694
884.52	21428
884.646	21515
884.772	21450
884.897	21233
885.023	21534
885.148	21557
885.274	21622
885.399	21583
885.524	21576
885.65	21599
885.775	21485
885.9	21542
886.025	21599
886.15	21599
886.275	21435
886.4	21329
886.525	21454
886.65	21370
886.775	21393
886.9	21553
887.025	21701
887.149	21401
887.274	21275
887.399	21233
887.523	21081
887.648	21260
887.773	21173
887.897	21317
888.021	21283
888.146	21024
888.27	21294
888.395	21370
888.519	21294
888.643	21241
888.767	21325
888.891	21157
889.015	20994
889.139	21104
889.263	20883
889.387	21146
889.511	21192
889.635	21245
889.759	21081
889.883	21028
890.006	21074
890.13	21150
890.254	21032
890.377	20929
890.501	20777
890.624	20788
890.748	20804
890.871	20682
890.995	20636
891.118	20575
891.241	20697
891.364	20712
891.488	20750
891.611	20613
891.734	20686
891.857	20613
891.98	20571
892.103	20686
892.226	20720
892.349	20526
892.471	20377
892.594	20492
892.717	20667
892.839	20511
892.962	20655
893.085	20590
893.207	20457
893.33	20434
893.452	20473
893.575	20514
893.697	20518
893.819	20629
893.941	20686
894.064	20590
894.186	20415
894.308	20381
894.43	20667
894.552	20712
894.674	20670
894.796	20400
894.918	20518
895.04	20438
895.161	20549
895.283	20507
895.405	20423
895.526	20438
895.648	20602
895.769	20541
895.891	20454
896.012	20674
896.134	20533
896.255	20537
896.376	20583
896.498	20454
896.619	20495
896.74	20552
896.861	20541
896.982	20887
897.103	20906
897.224	20842
897.345	20796
897.466	20621
897.587	20640
897.708	20868
897.828	20762
897.949	20724
898.07	20549
898.19	20731
898.311	20705
898.431	20598
898.552	20674
898.672	20804
898.792	20731
898.913	20918
899.033	20537
899.153	20511
899.273	20355
899.393	20488
899.513	20503
899.633	20488
899.753	20480
899.873	20362
899.993	20545
900.113	20461
900.232	20537
900.352	20423
900.472	20385
900.591	20339
900.711	20282
900.83	20145
900.95	20415
901.069	20377
901.189	20107
901.308	19913
901.427	19757
901.546	19833
901.665	19875
901.784	19833
901.904	19715
902.023	19632
902.141	19362
902.26	19320
902.379	19476
902.498	19381
902.617	19228
902.735	19415
902.854	19335
902.973	19240
903.091	19118
903.21	18943
903.328	19015
903.446	18863
903.565	18760
903.683	18806
903.801	18658
903.919	18738
904.038	18684
904.156	18551
904.274	18578
904.392	18471
904.51	18551
904.627	18574
904.745	18540
904.863	18608
904.981	18300
905.098	18251
905.216	18247
905.334	18327
905.451	18285
905.569	18144
905.686	18323
905.803	18106
905.921	17927
906.038	18140
906.155	18003
906.272	17840
906.389	18095
906.506	17882
906.623	17729
906.74	17775
906.857	17615
906.974	17691
907.091	17874
907.208	17897
907.324	17657
907.441	17714
907.557	17577
907.674	17421
907.79	17288
907.907	17474
908.023	17448
908.139	17493
908.256	17440
908.372	17444
908.488	17337
908.604	17178
908.72	17147
908.836	17200
908.952	17140
909.068	17216
909.184	17254
909.3	17212
909.415	17185
909.531	17014
909.647	16968
909.762	16824
909.878	16987
909.993	16824
910.108	16889
910.224	16835
910.339	16816
910.454	16744
910.57	16710
910.685	16611
910.8	16927
910.915	16839
911.03	16755
911.145	16565
911.259	16493
911.374	16481
911.489	16459
911.604	16329
911.718	16211
911.833	16188
911.947	16067
912.062	16147
912.176	16169
912.291	16173
912.405	16299
912.519	16428
912.633	16409
912.748	16215
912.862	16139
912.976	15937
913.09	15975
913.204	16002
913.318	16025
913.431	16147
913.545	15960
913.659	16173
913.772	15998
913.886	15899
914	15823
914.113	15930
914.226	15983
914.34	15793
914.453	15831
914.566	15846
914.68	15717
914.793	15701
914.906	15519
915.019	15428
915.132	15298
915.245	15424
915.358	15405
915.47	15382
915.583	15382
915.696	15469
915.809	15496
915.921	15515
916.034	15298
916.146	15386
916.259	15287
916.371	15374
916.483	15393
916.595	15226
916.708	15268
916.82	15302
916.932	15173
917.044	15173
917.156	15127
917.268	15001
917.38	15154
917.491	15017
917.603	15085
917.715	15195
917.826	15192
917.938	14994
918.049	14887
918.161	14944
918.272	15138
918.384	15135
918.495	15104
918.606	14804
918.717	14746
918.828	14811
918.939	14845
919.05	14785
919.161	14853
919.272	14518
919.383	14640
919.494	14819
919.604	14994
919.715	14788
919.826	14769
919.936	14663
920.047	14792
920.157	14727
920.267	14918
920.378	14823
920.488	14705
920.598	14963
920.708	15085
920.818	14963
920.928	14925
921.038	14998
921.148	15047
921.258	14765
921.368	14663
921.477	14610
921.587	14476
921.697	14404
921.806	14476
921.916	14385
922.025	14278
922.134	14187
922.244	14103
922.353	14130
922.462	13989
922.571	13997
922.68	13898
922.789	13784
922.898	13799
923.007	13674
923.116	13864
923.224	13742
923.333	13700
923.442	13639
923.55	13518
923.659	13594
923.767	13666
923.876	13556
923.984	13643
924.092	13537
924.201	13460
924.309	13460
924.417	13483
924.525	13514
924.633	13381
924.741	14134
924.849	13251
924.956	13381
925.064	13209
925.172	13137
925.279	13278
925.387	13171
925.494	13225
925.602	13263
925.709	13247
925.816	13103
925.924	13103
926.031	13110
926.138	13156
926.245	13149
926.352	13084
926.459	13164
926.566	13198
926.673	13084
926.779	12985
926.886	12901
926.993	12745
927.099	12738
927.206	12669
927.312	12711
927.419	12821
927.525	12601
927.631	12806
927.737	12677
927.843	12582
927.95	12475
928.056	12433
928.162	12589
928.267	12555
928.373	13171
928.479	12673
928.585	12391
928.69	12498
928.796	12525
928.901	12445
929.007	12323
929.112	12471
929.218	12361
929.323	12243
929.428	12262
929.533	12410
929.638	12266
929.743	12285
929.848	12311
929.953	12205
930.058	12030
930.163	11961
930.267	11931
930.372	12163
930.477	11931
930.581	12106
930.685	12015
930.79	11851
930.894	11916
930.998	11790
931.103	11973
931.207	11596
931.311	11535
931.415	11398
931.519	11235
931.623	11201
