Data from test_V78500241_2487.txt Node
Date: Fri Mar 25 15:59:01 CST 2022
User: usil
Spectrometer: V785-0024
Trigger mode: 0
Integration Time (sec): 4.000000E-1
Scans to average: 1
Nonlinearity correction enabled: false
Boxcar width: 0
Storing dark spectrum: false
XAxis mode: Wavelengths
Number of Pixels in Spectrum: 1024
>>>>>Begin Spectral Data<<<<<
801.071	28234
801.214	28188
801.356	28185
801.499	27926
801.641	27739
801.783	27876
801.926	27888
802.068	27880
802.211	27819
802.353	27667
802.496	27682
802.638	27648
802.78	27447
802.923	27500
803.065	27336
803.208	27431
803.35	27618
803.492	27717
803.635	27854
803.777	27496
803.919	27793
804.061	28036
804.204	27774
804.346	27652
804.488	27625
804.63	27762
804.773	27553
804.915	27736
805.057	27888
805.199	27724
805.341	27679
805.483	27835
805.626	27903
805.768	27759
805.91	27846
806.052	28002
806.194	27682
806.336	28055
806.478	27846
806.62	27892
806.762	28082
806.904	28021
807.046	28310
807.188	28276
807.33	28363
807.472	28538
807.614	28230
807.756	28287
807.898	28112
808.04	28051
808.182	28131
808.324	28280
808.465	28272
808.607	28527
808.749	28500
808.891	28588
809.033	28630
809.174	28653
809.316	28554
809.458	28455
809.6	28436
809.741	28561
809.883	28603
810.025	28831
810.166	28721
810.308	28790
810.45	28664
810.591	28618
810.733	28603
810.875	28417
811.016	28451
811.158	28352
811.299	28569
811.441	28630
811.582	28706
811.724	28538
811.865	28390
812.007	28504
812.148	28474
812.29	28440
812.431	28592
812.573	28896
812.714	28892
812.855	28934
812.997	29056
813.138	29159
813.279	29166
813.421	29162
813.562	28949
813.703	28892
813.845	28835
813.986	28462
814.127	28314
814.268	28291
814.41	28219
814.551	28238
814.692	28215
814.833	28158
814.974	28074
815.115	28276
815.256	27991
815.397	28173
815.539	28067
815.68	27994
815.821	27953
815.962	28036
816.103	27926
816.244	27835
816.385	27819
816.526	27812
816.666	27713
816.807	27496
816.948	27637
817.089	27576
817.23	27462
817.371	27458
817.512	27443
817.653	27523
817.793	27348
817.934	27614
818.075	27492
818.216	27469
818.356	27454
818.497	27302
818.638	27252
818.778	27203
818.919	27310
819.06	27439
819.2	27382
819.341	27606
819.481	27496
819.622	27511
819.762	27732
819.903	27869
820.043	27918
820.184	27667
820.324	27709
820.465	27736
820.605	27614
820.746	27694
820.886	27526
821.026	27538
821.167	27534
821.307	27720
821.447	27450
821.588	27412
821.728	27291
821.868	27165
822.008	27001
822.149	26952
822.289	26872
822.429	26811
822.569	26674
822.709	26648
822.849	26583
822.99	26461
823.13	26419
823.27	26530
823.41	26320
823.55	26267
823.69	26298
823.83	26294
823.97	26366
824.11	26058
824.25	26092
824.389	26157
824.529	26282
824.669	26035
824.809	26259
824.949	26191
825.089	26164
825.228	26176
825.368	25913
825.508	25986
825.648	26024
825.787	26065
825.927	26027
826.067	25860
826.206	25936
826.346	26020
826.485	25989
826.625	26031
826.765	26130
826.904	25966
827.044	25677
827.183	25852
827.323	25643
827.462	25833
827.601	25712
827.741	25552
827.88	25788
828.02	25537
828.159	25666
828.298	25616
828.437	25685
828.577	25586
828.716	25750
828.855	25624
828.994	25381
829.134	25540
829.273	25525
829.412	25308
829.551	25308
829.69	25285
829.829	25457
829.968	25578
830.107	25426
830.246	25479
830.385	25350
830.524	25346
830.663	25206
830.802	25228
830.941	25000
831.08	25015
831.219	24977
831.357	25019
831.496	25308
831.635	24935
831.774	24947
831.913	24905
832.051	24810
832.19	24814
832.329	24795
832.467	24684
832.606	24639
832.744	24601
832.883	24681
833.022	24665
833.16	24639
833.299	24635
833.437	24650
833.576	24738
833.714	24677
833.852	24745
833.991	24776
834.129	24829
834.267	24719
834.406	24810
834.544	24745
834.682	24829
834.821	24623
834.959	24856
835.097	24734
835.235	24642
835.373	24684
835.511	24825
835.65	24623
835.788	24490
835.926	24422
836.064	24448
836.202	24346
836.34	24536
836.478	24623
836.615	24399
836.753	24559
836.891	24677
837.029	24582
837.167	24445
837.305	24532
837.443	24460
837.58	24357
837.718	24505
837.856	24384
837.993	24353
838.131	24350
838.269	24270
838.406	24323
838.544	24174
838.681	24026
838.819	23984
838.956	24015
839.094	23870
839.231	23893
839.369	24018
839.506	24277
839.643	24076
839.781	23889
839.918	23817
840.055	23866
840.193	23889
840.33	23824
840.467	23958
840.604	23676
840.742	24030
840.879	23714
841.016	23676
841.153	23600
841.29	23836
841.427	23718
841.564	23764
841.701	23764
841.838	23634
841.975	23718
842.112	23729
842.249	23512
842.385	23577
842.522	23657
842.659	23642
842.796	23467
842.933	23551
843.069	23486
843.206	23433
843.343	23608
843.479	23501
843.616	23551
843.752	23280
843.889	23265
844.025	23482
844.162	23307
844.298	23448
844.435	23353
844.571	23273
844.708	23296
844.844	23467
844.98	23387
845.117	23452
845.253	23269
845.389	23113
845.525	23178
845.661	23086
845.798	23052
845.934	23105
846.07	23056
846.206	23041
846.342	23166
846.478	22968
846.614	22748
846.75	22782
846.886	22793
847.022	22923
847.158	22771
847.294	22862
847.429	22900
847.565	22611
847.701	22934
847.837	22672
847.972	22542
848.108	22565
848.244	22649
848.379	22363
848.515	22390
848.65	22238
848.786	22413
848.921	22249
849.057	22493
849.192	22497
849.328	22394
849.463	22291
849.598	22303
849.734	22318
849.869	22196
850.004	22074
850.14	22135
850.275	22036
850.41	21994
850.545	21991
850.68	22048
850.815	22143
850.95	22124
851.085	22329
851.22	22238
851.355	22177
851.49	22029
851.625	22120
851.76	22120
851.895	22112
852.03	22082
852.165	22276
852.299	22131
852.434	22211
852.569	22112
852.703	22162
852.838	22173
852.973	22147
853.107	22131
853.242	22093
853.376	21880
853.511	21835
853.645	21899
853.78	22002
853.914	22025
854.048	21865
854.183	21915
854.317	22010
854.451	22078
854.585	21964
854.72	21945
854.854	22067
854.988	21854
855.122	21945
855.256	21869
855.39	21960
855.524	22032
855.658	21987
855.792	21945
855.926	21926
856.06	22013
856.194	21979
856.327	21854
856.461	21873
856.595	21953
856.729	22021
856.862	22002
856.996	21956
857.13	21949
857.263	22074
857.397	22086
857.53	21991
857.664	22002
857.797	21998
857.931	22101
858.064	21918
858.197	22006
858.331	21937
858.464	21797
858.597	21911
858.731	21979
858.864	21888
858.997	21850
859.13	21899
859.263	21842
859.396	22120
859.529	21869
859.662	21918
859.795	21926
859.928	21964
860.061	22116
860.194	22086
860.327	22013
860.46	22006
860.592	22086
860.725	22017
860.858	22029
860.99	22013
861.123	21728
861.256	21857
861.388	21926
861.521	22523
861.653	21739
861.786	21644
861.918	21682
862.05	21804
862.183	21903
862.315	21873
862.447	21915
862.58	21724
862.712	21686
862.844	21690
862.976	21816
863.108	21762
863.24	22021
863.372	21583
863.504	21481
863.636	21526
863.768	21618
863.9	21679
864.032	21534
864.164	21492
864.296	21743
864.428	21804
864.559	21812
864.691	21679
864.823	21610
864.954	21705
865.086	21637
865.217	21599
865.349	21469
865.48	21519
865.612	21618
865.743	21629
865.875	21519
866.006	21439
866.137	21538
866.269	21568
866.4	21568
866.531	21488
866.662	21450
866.793	21507
866.924	21511
867.055	21542
867.186	21496
867.317	21370
867.448	21405
867.579	21466
867.71	21386
867.841	21424
867.972	21443
868.103	21458
868.233	21454
868.364	21428
868.495	21538
868.625	21743
868.756	21789
868.886	21610
869.017	21751
869.147	21766
869.278	21823
869.408	21724
869.539	21743
869.669	21816
869.799	21812
869.929	21903
870.06	21812
870.19	22082
870.32	21987
870.45	22063
870.58	22029
870.71	22063
870.84	22265
870.97	22025
871.1	22154
871.23	22276
871.36	22440
871.489	22238
871.619	22394
871.749	22375
871.879	22409
872.008	22367
872.138	22333
872.267	22322
872.397	22242
872.526	22063
872.656	22112
872.785	22070
872.915	22223
873.044	22519
873.173	22356
873.303	22360
873.432	22421
873.561	22390
873.69	22386
873.819	22363
873.948	22455
874.077	22284
874.206	22219
874.335	22348
874.464	22470
874.593	22470
874.722	22424
874.851	22447
874.979	22516
875.108	22599
875.237	22497
875.365	22485
875.494	22493
875.623	22577
875.751	22481
875.88	22519
876.008	22588
876.136	22721
876.265	22885
876.393	23056
876.521	23067
876.65	23071
876.778	22946
876.906	22942
877.034	22896
877.162	22824
877.29	22782
877.418	22862
877.546	22934
877.674	22911
877.802	22843
877.93	22809
878.058	22744
878.185	22668
878.313	22828
878.441	23022
878.568	22797
878.696	22820
878.824	23044
878.951	23037
879.079	23029
879.206	23143
879.333	23094
879.461	22877
879.588	22949
879.715	23098
879.842	23254
879.97	23022
880.097	22755
880.224	22774
880.351	22679
880.478	22675
880.605	22691
880.732	22691
880.859	22953
880.986	22706
881.112	22668
881.239	22561
881.366	22500
881.493	22432
881.619	22261
881.746	22318
881.872	22375
881.999	22280
882.125	22261
882.252	22417
882.378	22363
882.505	22257
882.631	22162
882.757	21975
882.883	22029
883.01	21991
883.136	21968
883.262	21857
883.388	21762
883.514	22032
883.64	22055
883.766	21835
883.892	21690
884.018	21884
884.143	21960
884.269	21918
884.395	21553
884.52	21641
884.646	21633
884.772	21545
884.897	21561
885.023	21637
885.148	21629
885.274	21629
885.399	21717
885.524	21603
885.65	21629
885.775	21633
885.9	21625
886.025	21739
886.15	21732
886.275	21629
886.4	21545
886.525	21549
886.65	21515
886.775	21507
886.9	21743
887.025	21835
887.149	21698
887.274	21416
887.399	21431
887.523	21321
887.648	21401
887.773	21249
887.897	21454
888.021	21378
888.146	21142
888.27	21515
888.395	21378
888.519	21291
888.643	21412
888.767	21420
888.891	21256
889.015	21279
889.139	21355
889.263	21131
889.387	21222
889.511	21408
889.635	21218
889.759	21310
889.883	21157
890.006	21154
890.13	21310
890.254	21135
890.377	21028
890.501	20921
890.624	20925
890.748	20971
890.871	20861
890.995	20746
891.118	20746
891.241	20834
891.364	20674
891.488	20785
891.611	20693
891.734	20739
891.857	20724
891.98	20640
892.103	20864
892.226	20716
892.349	20617
892.471	20499
892.594	20762
892.717	20587
892.839	20594
892.962	20663
893.085	20640
893.207	20663
893.33	20560
893.452	20571
893.575	20678
893.697	20476
893.819	20731
893.941	20849
894.064	20849
894.186	20606
894.308	20552
894.43	20686
894.552	20686
894.674	20648
894.796	20507
894.918	20629
895.04	20609
895.161	20594
895.283	20560
895.405	20545
895.526	20606
895.648	20575
895.769	20602
895.891	20674
896.012	20648
896.134	20636
896.255	20545
896.376	20579
896.498	20545
896.619	20617
896.74	20571
896.861	20701
896.982	20887
897.103	21116
897.224	20823
897.345	20796
897.466	20834
897.587	20849
897.708	20941
897.828	20743
897.949	20838
898.07	20682
898.19	20739
898.311	20941
898.431	20769
898.552	20861
898.672	20880
898.792	20910
898.913	20750
899.033	20823
899.153	20583
899.273	20499
899.393	20518
899.513	20636
899.633	20590
899.753	20537
899.873	20454
899.993	20670
900.113	20450
900.232	20499
900.352	20484
900.472	20366
900.591	20336
900.711	20355
900.83	20263
900.95	20438
901.069	20457
901.189	20271
901.308	20069
901.427	19902
901.546	19860
901.665	19890
901.784	19997
901.904	19769
902.023	19734
902.141	19518
902.26	19388
902.379	19464
902.498	19480
902.617	19358
902.735	19426
902.854	19510
902.973	19304
903.091	19217
903.21	19179
903.328	19065
903.446	19034
903.565	18932
903.683	18776
903.801	18711
903.919	18829
904.038	18745
904.156	18658
904.274	18707
904.392	18745
904.51	18696
904.627	18639
904.745	18791
904.863	18616
904.981	18418
905.098	18342
905.216	18281
905.334	18300
905.451	18292
905.569	18296
905.686	18407
905.803	18330
905.921	18068
906.038	18186
906.155	18152
906.272	17980
906.389	18144
906.506	17805
906.623	17889
906.74	17923
906.857	17741
906.974	17786
907.091	17885
907.208	17973
907.324	17836
907.441	17695
907.557	17623
907.674	17554
907.79	17539
907.907	17554
908.023	17611
908.139	17509
908.256	17471
908.372	17414
908.488	17448
908.604	17387
908.72	17227
908.836	17307
908.952	17220
909.068	17315
909.184	17417
909.3	17227
909.415	17220
909.531	17212
909.647	17014
909.762	16995
909.878	16953
909.993	16968
910.108	16972
910.224	16942
910.339	16881
910.454	16911
910.57	16782
910.685	16694
910.8	16904
910.915	16915
911.03	16782
911.145	16634
911.259	16599
911.374	16618
911.489	16417
911.604	16417
911.718	16352
911.833	16348
911.947	16215
912.062	16207
912.176	16303
912.291	16318
912.405	16367
912.519	16554
912.633	16523
912.748	16344
912.862	16188
912.976	16246
913.09	16006
913.204	16036
913.318	16192
913.431	16219
913.545	16207
913.659	16238
913.772	16044
913.886	15842
914	16025
914.113	16021
914.226	16055
914.34	15895
914.453	15857
914.566	16063
914.68	15808
914.793	15743
914.906	15564
915.019	15595
915.132	15466
915.245	15412
915.358	15564
915.47	15450
915.583	15439
915.696	15542
915.809	15557
915.921	15671
916.034	15363
916.146	15515
916.259	15348
916.371	15515
916.483	15469
916.595	15367
916.708	15370
916.82	15272
916.932	15359
917.044	15275
917.156	15188
917.268	15097
917.38	15188
917.491	15066
917.603	15192
917.715	15237
917.826	15211
917.938	15165
918.049	14963
918.161	15032
918.272	15249
918.384	15119
918.495	15085
918.606	14975
918.717	14750
918.828	14967
918.939	14883
919.05	14754
919.161	14849
919.272	14754
919.383	14765
919.494	14826
919.604	15013
919.715	14880
919.826	14746
919.936	14785
920.047	14887
920.157	14895
920.267	15001
920.378	14834
920.488	14861
920.598	14986
920.708	15180
920.818	14963
920.928	15013
921.038	15077
921.148	15112
921.258	14788
921.368	14648
921.477	14541
921.587	14610
921.697	14381
921.806	14533
921.916	14396
922.025	14214
922.134	14161
922.244	14119
922.353	14256
922.462	14206
922.571	13997
922.68	13826
922.789	13803
922.898	13890
923.007	13803
923.116	13845
923.224	13845
923.333	13750
923.442	13742
923.55	13544
923.659	13681
923.767	13772
923.876	13609
923.984	13582
924.092	13674
924.201	13556
924.309	13647
924.417	13506
924.525	13506
924.633	13563
924.741	14385
924.849	13308
924.956	13396
925.064	13274
925.172	13217
925.279	13099
925.387	13247
925.494	13293
925.602	13468
925.709	13331
925.816	13107
925.924	13206
926.031	13282
926.138	13209
926.245	13236
926.352	13141
926.459	13270
926.566	13236
926.673	13084
926.779	13046
926.886	12970
926.993	12924
927.099	12722
927.206	12692
927.312	12745
927.419	12920
927.525	12795
927.631	12837
927.737	12627
927.843	12734
927.95	12506
928.056	12646
928.162	12681
928.267	12650
928.373	13289
928.479	12608
928.585	12502
928.69	12555
928.796	12563
928.901	12456
929.007	12410
929.112	12608
929.218	12361
929.323	12311
929.428	12330
929.533	12471
929.638	12235
929.743	12330
929.848	12266
929.953	12285
930.058	12125
930.163	12045
930.267	11973
930.372	12129
930.477	12011
930.581	12258
930.685	12102
930.79	11794
930.894	11908
930.998	11859
931.103	12026
931.207	11630
931.311	11604
931.415	11486
931.519	11250
931.623	11356
