Data from test_V78500241_644.txt Node
Date: Fri Mar 25 15:46:15 CST 2022
User: usil
Spectrometer: V785-0024
Trigger mode: 0
Integration Time (sec): 4.000000E-1
Scans to average: 1
Nonlinearity correction enabled: false
Boxcar width: 0
Storing dark spectrum: false
XAxis mode: Wavelengths
Number of Pixels in Spectrum: 1024
>>>>>Begin Spectral Data<<<<<
801.071	27789
801.214	27644
801.356	27370
801.499	27416
801.641	27317
801.783	27367
801.926	27363
802.068	27142
802.211	27211
802.353	27009
802.496	26819
802.638	26861
802.78	26902
802.923	26845
803.065	26746
803.208	26746
803.35	26883
803.492	26975
803.635	27017
803.777	26963
803.919	27116
804.061	27351
804.204	27119
804.346	26956
804.488	26929
804.63	27001
804.773	26880
804.915	27020
805.057	27138
805.199	27161
805.341	27051
805.483	27157
805.626	27154
805.768	27249
805.91	27112
806.052	27100
806.194	27093
806.336	27447
806.478	27188
806.62	27199
806.762	27256
806.904	27629
807.046	27701
807.188	27568
807.33	27614
807.472	27648
807.614	27568
807.756	27644
807.898	27610
808.04	27469
808.182	27302
808.324	27485
808.465	27405
808.607	27709
808.749	27842
808.891	27812
809.033	28006
809.174	27876
809.316	27736
809.458	27911
809.6	27869
809.741	27903
809.883	27964
810.025	28032
810.166	28017
810.308	28181
810.45	28021
810.591	28131
810.733	27873
810.875	27743
811.016	27743
811.158	27755
811.299	27922
811.441	27949
811.582	28059
811.724	27682
811.865	27770
812.007	27998
812.148	27800
812.29	27937
812.431	28032
812.573	28105
812.714	28234
812.855	28318
812.997	28489
813.138	28577
813.279	28569
813.421	28386
813.562	28299
813.703	28158
813.845	28131
813.986	27766
814.127	27679
814.268	27393
814.41	27618
814.551	27538
814.692	27591
814.833	27473
814.974	27519
815.115	27492
815.256	27401
815.397	27245
815.539	27386
815.68	27329
815.821	27348
815.962	27355
816.103	27207
816.244	27173
816.385	27116
816.526	27108
816.666	26857
816.807	26811
816.948	26933
817.089	27028
817.23	26864
817.371	26845
817.512	26781
817.653	26750
817.793	26727
817.934	26823
818.075	26880
818.216	26807
818.356	26781
818.497	26663
818.638	26522
818.778	26568
818.919	26640
819.06	26644
819.2	26594
819.341	26861
819.481	26769
819.622	27017
819.762	27119
819.903	27005
820.043	27039
820.184	26796
820.324	26925
820.465	26975
820.605	26853
820.746	26906
820.886	26811
821.026	26845
821.167	26948
821.307	26933
821.447	26758
821.588	26670
821.728	26575
821.868	26393
822.008	26263
822.149	26240
822.289	26271
822.429	26039
822.569	25871
822.709	25986
822.849	25849
822.99	25807
823.13	25769
823.27	25647
823.41	25479
823.55	25521
823.69	25601
823.83	25510
823.97	25495
824.11	25441
824.25	25419
824.389	25400
824.529	25445
824.669	25381
824.809	25411
824.949	25464
825.089	25624
825.228	25365
825.368	25232
825.508	25266
825.648	25339
825.787	25441
825.927	25312
826.067	25255
826.206	25156
826.346	25331
826.485	25247
826.625	25225
826.765	25316
826.904	25297
827.044	25088
827.183	25084
827.323	24913
827.462	25038
827.601	25031
827.741	25008
827.88	24890
828.02	24802
828.159	24901
828.298	24901
828.437	25080
828.577	24787
828.716	25027
828.855	24859
828.994	24741
829.134	24696
829.273	24753
829.412	24566
829.551	24631
829.69	24760
829.829	24635
829.968	24745
830.107	24825
830.246	24726
830.385	24570
830.524	24486
830.663	24536
830.802	24391
830.941	24403
831.08	24270
831.219	24273
831.357	24369
831.496	24479
831.635	24338
831.774	24254
831.913	24072
832.051	24053
832.19	24038
832.329	24155
832.467	23950
832.606	23988
832.744	23828
832.883	23836
833.022	23923
833.16	23946
833.299	23954
833.437	23863
833.576	24091
833.714	24015
833.852	24178
833.991	24083
834.129	24106
834.267	24178
834.406	23988
834.544	24095
834.682	23847
834.821	23973
834.959	24079
835.097	23950
835.235	23927
835.373	23916
835.511	23863
835.65	23832
835.788	23802
835.926	23729
836.064	23581
836.202	23661
836.34	23893
836.478	23927
836.615	23710
836.753	23813
836.891	23927
837.029	23874
837.167	23714
837.305	23737
837.443	23828
837.58	23695
837.718	23592
837.856	23718
837.993	23687
838.131	23619
838.269	23554
838.406	23474
838.544	23547
838.681	23341
838.819	23296
838.956	23265
839.094	23143
839.231	23151
839.369	23337
839.506	23467
839.643	23398
839.781	23113
839.918	23060
840.055	23162
840.193	23094
840.33	23010
840.467	23265
840.604	23147
840.742	23258
840.879	22991
841.016	23014
841.153	23086
841.29	23178
841.427	23121
841.564	23006
841.701	23033
841.838	23090
841.975	22991
842.112	22930
842.249	22900
842.385	22877
842.522	23071
842.659	22900
842.796	22774
842.933	22820
843.069	22706
843.206	22740
843.343	22892
843.479	22736
843.616	22786
843.752	22588
843.889	22599
844.025	22691
844.162	22462
844.298	22649
844.435	22512
844.571	22424
844.708	22603
844.844	22706
844.98	22858
845.117	22557
845.253	22523
845.389	22557
845.525	22428
845.661	22561
845.798	22211
845.934	22379
846.07	22325
846.206	22276
846.342	22413
846.478	22314
846.614	22158
846.75	22067
846.886	22051
847.022	22207
847.158	22040
847.294	22147
847.429	22044
847.565	21994
847.701	22314
847.837	21728
847.972	21812
848.108	21819
848.244	21922
848.379	21713
848.515	21682
848.65	21603
848.786	21625
848.921	21713
849.057	21873
849.192	21743
849.328	21591
849.463	21739
849.598	21671
849.734	21580
849.869	21511
850.004	21420
850.14	21416
850.275	21329
850.41	21310
850.545	21545
850.68	21473
850.815	21359
850.95	21408
851.085	21496
851.22	21348
851.355	21431
851.49	21321
851.625	21344
851.76	21462
851.895	21340
852.03	21317
852.165	21393
852.299	21515
852.434	21469
852.569	21382
852.703	21386
852.838	21545
852.973	21568
853.107	21538
853.242	21374
853.376	21283
853.511	21119
853.645	21192
853.78	21370
853.914	21237
854.048	21313
854.183	21218
854.317	21317
854.451	21408
854.585	21256
854.72	21264
854.854	21462
854.988	21184
855.122	21302
855.256	21017
855.39	21336
855.524	21321
855.658	21268
855.792	21207
855.926	21199
856.06	21336
856.194	21211
856.327	21226
856.461	21233
856.595	21043
856.729	21207
856.862	21275
856.996	21287
857.13	21321
857.263	21317
857.397	21241
857.53	21268
857.664	21260
857.797	21306
857.931	21355
858.064	21249
858.197	21249
858.331	21302
858.464	21123
858.597	21165
858.731	21188
858.864	21332
858.997	21104
859.13	21184
859.263	21279
859.396	21298
859.529	21237
859.662	21195
859.795	21112
859.928	21226
860.061	21332
860.194	21526
860.327	21264
860.46	21176
860.592	21386
860.725	21420
860.858	21344
860.99	21199
861.123	21100
861.256	21116
861.388	21161
861.521	21922
861.653	21043
861.786	21020
861.918	21013
862.05	21089
862.183	21245
862.315	21195
862.447	21211
862.58	21226
862.712	21028
862.844	20891
862.976	21070
863.108	21009
863.24	21275
863.372	20994
863.504	20994
863.636	21017
863.768	20990
863.9	21013
864.032	20906
864.164	20876
864.296	20845
864.428	20971
864.559	20990
864.691	21051
864.823	20929
864.954	20975
865.086	20937
865.217	20956
865.349	20804
865.48	20823
865.612	20815
865.743	20941
865.875	20914
866.006	20838
866.137	20834
866.269	20872
866.4	20796
866.531	20762
866.662	20629
866.793	20864
866.924	20861
867.055	20682
867.186	20731
867.317	20811
867.448	20663
867.579	20682
867.71	20644
867.841	20765
867.972	20724
868.103	20838
868.233	20823
868.364	20758
868.495	20883
868.625	20956
868.756	21150
868.886	20990
869.017	21066
869.147	21108
869.278	21024
869.408	20971
869.539	21112
869.669	21112
869.799	21001
869.929	21131
870.06	21074
870.19	21272
870.32	21203
870.45	21363
870.58	21393
870.71	21583
870.84	21466
870.97	21408
871.1	21412
871.23	21538
871.36	21625
871.489	21542
871.619	21553
871.749	21549
871.879	21568
872.008	21564
872.138	21462
872.267	21580
872.397	21412
872.526	21374
872.656	21401
872.785	21447
872.915	21629
873.044	21736
873.173	21515
873.303	21766
873.432	21701
873.561	21660
873.69	21709
873.819	21557
873.948	21774
874.077	21717
874.206	21637
874.335	21568
874.464	21766
874.593	21819
874.722	21789
874.851	21747
874.979	21785
875.108	21827
875.237	21850
875.365	21819
875.494	21888
875.623	21873
875.751	21915
875.88	21956
876.008	22029
876.136	22013
876.265	22333
876.393	22329
876.521	22265
876.65	22341
876.778	22226
876.906	22215
877.034	22116
877.162	22200
877.29	22181
877.418	22124
877.546	22204
877.674	22234
877.802	22265
877.93	22234
878.058	22120
878.185	22128
878.313	22204
878.441	22207
878.568	22063
878.696	22162
878.824	22196
878.951	22379
879.079	22398
879.206	22531
879.333	22371
879.461	22310
879.588	22337
879.715	22306
879.842	22577
879.97	22322
880.097	22101
880.224	22128
880.351	22120
880.478	22032
880.605	21960
880.732	21987
880.859	22226
880.986	22086
881.112	22002
881.239	21964
881.366	21865
881.493	21648
881.619	21663
881.746	21675
881.872	21663
881.999	21633
882.125	21530
882.252	21682
882.378	21629
882.505	21686
882.631	21526
882.757	21348
882.883	21462
883.01	21378
883.136	21260
883.262	21207
883.388	21047
883.514	21287
883.64	21348
883.766	21226
883.892	21089
884.018	21028
884.143	21203
884.269	21329
884.395	20982
884.52	21024
884.646	20956
884.772	20921
884.897	20830
885.023	20914
885.148	21043
885.274	21043
885.399	21077
885.524	20902
885.65	20853
885.775	20834
885.9	21020
886.025	21039
886.15	20960
886.275	20921
886.4	20895
886.525	21028
886.65	20864
886.775	20861
886.9	21123
887.025	21203
887.149	20899
887.274	20689
887.399	20670
887.523	20613
887.648	20693
887.773	20663
887.897	20716
888.021	20762
888.146	20678
888.27	20708
888.395	20804
888.519	20739
888.643	20720
888.767	20765
888.891	20568
889.015	20590
889.139	20533
889.263	20442
889.387	20590
889.511	20731
889.635	20564
889.759	20484
889.883	20476
890.006	20648
890.13	20568
890.254	20370
890.377	20518
890.501	20317
890.624	20263
890.748	20385
890.871	20111
890.995	20092
891.118	19997
891.241	20149
891.364	20134
891.488	20210
891.611	20020
891.734	20081
891.857	20081
891.98	20134
892.103	20183
892.226	20050
892.349	20077
892.471	19879
892.594	19986
892.717	20001
892.839	19955
892.962	20073
893.085	20024
893.207	19871
893.33	20005
893.452	19913
893.575	20084
893.697	19936
893.819	20058
893.941	20187
894.064	20180
894.186	19928
894.308	19875
894.43	20058
894.552	20218
894.674	20100
894.796	19940
894.918	20054
895.04	20005
895.161	20103
895.283	19928
895.405	19944
895.526	20062
895.648	19940
895.769	19879
895.891	20130
896.012	19959
896.134	20157
896.255	20008
896.376	19997
896.498	19879
896.619	20122
896.74	19978
896.861	20111
896.982	20320
897.103	20476
897.224	20358
897.345	20218
897.466	20206
897.587	20122
897.708	20393
897.828	20237
897.949	20126
898.07	19982
898.19	20035
898.311	20362
898.431	20183
898.552	20221
898.672	20313
898.792	20263
898.913	20355
899.033	20035
899.153	19944
899.273	19803
899.393	19909
899.513	20092
899.633	20050
899.753	20031
899.873	19947
899.993	20031
900.113	19875
900.232	19932
900.352	19856
900.472	19811
900.591	19803
900.711	19791
900.83	19651
900.95	19887
901.069	19902
901.189	19578
901.308	19430
901.427	19293
901.546	19308
901.665	19362
901.784	19373
901.904	19297
902.023	19099
902.141	18951
902.26	18943
902.379	18928
902.498	18821
902.617	18844
902.735	18951
902.854	18810
902.973	18837
903.091	18551
903.21	18551
903.328	18528
903.446	18410
903.565	18372
903.683	18384
903.801	18224
903.919	18266
904.038	18194
904.156	18110
904.274	18209
904.392	18102
904.51	18167
904.627	18091
904.745	18197
904.863	18091
904.981	17874
905.098	17703
905.216	17760
905.334	17726
905.451	17714
905.569	17756
905.686	17733
905.803	17703
905.921	17661
906.038	17665
906.155	17573
906.272	17558
906.389	17589
906.506	17318
906.623	17471
906.74	17296
906.857	17231
906.974	17265
907.091	17353
907.208	17444
907.324	17421
907.441	17166
907.557	16976
907.674	17045
907.79	16889
907.907	16999
908.023	17094
908.139	17014
908.256	16915
908.372	16915
908.488	16854
908.604	16869
908.72	16679
908.836	16721
908.952	16820
909.068	16786
909.184	16790
909.3	16748
909.415	16771
909.531	16752
909.647	16527
909.762	16402
909.878	16413
909.993	16478
910.108	16462
910.224	16474
910.339	16436
910.454	16390
910.57	16284
910.685	16246
910.8	16493
910.915	16470
911.03	16230
911.145	16086
911.259	16063
911.374	15998
911.489	16032
911.604	15888
911.718	15819
911.833	15838
911.947	15671
912.062	15572
912.176	15899
912.291	15876
912.405	15865
912.519	15911
912.633	15975
912.748	15846
912.862	15876
912.976	15595
913.09	15507
913.204	15584
913.318	15720
913.431	15618
913.545	15667
913.659	15739
913.772	15549
913.886	15424
914	15340
914.113	15454
914.226	15553
914.34	15595
914.453	15294
914.566	15462
914.68	15408
914.793	15256
914.906	15104
915.019	15017
915.132	14823
915.245	15058
915.358	14982
915.47	15051
915.583	15104
915.696	15024
915.809	15214
915.921	15104
916.034	14925
916.146	14849
916.259	14982
916.371	15009
916.483	15020
916.595	14941
916.708	14781
916.82	14899
916.932	14834
917.044	14826
917.156	14815
917.268	14705
917.38	14735
917.491	14667
917.603	14727
917.715	14754
917.826	14743
917.938	14659
918.049	14530
918.161	14610
918.272	14788
918.384	14674
918.495	14579
918.606	14454
918.717	14332
918.828	14412
918.939	14480
919.05	14320
919.161	14419
919.272	14195
919.383	14218
919.494	14450
919.604	14625
919.715	14317
919.826	14362
919.936	14461
920.047	14294
920.157	14374
920.267	14636
920.378	14389
920.488	14465
920.598	14522
920.708	14670
920.818	14476
920.928	14533
921.038	14701
921.148	14629
921.258	14400
921.368	14339
921.477	14229
921.587	14161
921.697	14058
921.806	14073
921.916	13917
922.025	13849
922.134	13788
922.244	13818
922.353	13776
922.462	13651
922.571	13616
922.68	13430
922.789	13438
922.898	13495
923.007	13270
923.116	13460
923.224	13377
923.333	13365
923.442	13308
923.55	13278
923.659	13369
923.767	13270
923.876	13164
923.984	13339
924.092	13114
924.201	13183
924.309	13149
924.417	13183
924.525	13084
924.633	13156
924.741	13822
924.849	12947
924.956	13126
925.064	12909
925.172	12920
925.279	12871
925.387	12894
925.494	12833
925.602	13000
925.709	12920
925.816	12810
925.924	12760
926.031	12935
926.138	12852
926.245	12932
926.352	12703
926.459	12867
926.566	12783
926.673	12779
926.779	12612
926.886	12597
926.993	12513
927.099	12475
927.206	12433
927.312	12380
927.419	12448
927.525	12441
927.631	12456
927.737	12369
927.843	12251
927.95	12106
928.056	12262
928.162	12243
928.267	12285
928.373	12958
928.479	12486
928.585	12110
928.69	12258
928.796	12243
928.901	12148
929.007	12041
929.112	12197
929.218	12163
929.323	12019
929.428	11946
929.533	12117
929.638	11950
929.743	11992
929.848	11916
929.953	11901
930.058	11866
930.163	11665
930.267	11729
930.372	11817
930.477	11657
930.581	11855
930.685	11688
930.79	11558
930.894	11611
930.998	11486
931.103	11661
931.207	11280
931.311	11254
931.415	11147
931.519	11041
931.623	10957
