Data from test_V78500241_2118.txt Node
Date: Fri Mar 25 15:56:28 CST 2022
User: usil
Spectrometer: V785-0024
Trigger mode: 0
Integration Time (sec): 4.000000E-1
Scans to average: 1
Nonlinearity correction enabled: false
Boxcar width: 0
Storing dark spectrum: false
XAxis mode: Wavelengths
Number of Pixels in Spectrum: 1024
>>>>>Begin Spectral Data<<<<<
801.071	28999
801.214	28885
801.356	28649
801.499	28664
801.641	28489
801.783	28565
801.926	28565
802.068	28592
802.211	28565
802.353	28356
802.496	28291
802.638	28291
802.78	28280
802.923	28268
803.065	28280
803.208	28166
803.35	28276
803.492	28325
803.635	28390
803.777	28360
803.919	28508
804.061	28721
804.204	28607
804.346	28459
804.488	28440
804.63	28508
804.773	28466
804.915	28531
805.057	28691
805.199	28466
805.341	28508
805.483	28584
805.626	28630
805.768	28584
805.91	28698
806.052	28679
806.194	28637
806.336	28759
806.478	28733
806.62	28733
806.762	28885
806.904	29102
807.046	29315
807.188	29105
807.33	29166
807.472	29128
807.614	29128
807.756	29083
807.898	28972
808.04	28885
808.182	28900
808.324	29200
808.465	29037
808.607	29174
808.749	29372
808.891	29303
809.033	29566
809.174	29467
809.316	29383
809.458	29246
809.6	29258
809.741	29448
809.883	29501
810.025	29608
810.166	29627
810.308	29764
810.45	29589
810.591	29410
810.733	29493
810.875	29273
811.016	29315
811.158	29197
811.299	29452
811.441	29493
811.582	29573
811.724	29379
811.865	29311
812.007	29356
812.148	29387
812.29	29417
812.431	29539
812.573	29843
812.714	29756
812.855	30038
812.997	29874
813.138	29999
813.279	30091
813.421	29920
813.562	30007
813.703	29779
813.845	29615
813.986	29280
814.127	29124
814.268	29216
814.41	29083
814.551	29071
814.692	29094
814.833	29113
814.974	28980
815.115	29086
815.256	29037
815.397	29033
815.539	29052
815.68	28729
815.821	28881
815.962	28949
816.103	28919
816.244	28706
816.385	28713
816.526	28755
816.666	28500
816.807	28382
816.948	28637
817.089	28626
817.23	28497
817.371	28375
817.512	28375
817.653	28382
817.793	28348
817.934	28523
818.075	28459
818.216	28348
818.356	28485
818.497	28276
818.638	28051
818.778	28139
818.919	28150
819.06	28135
819.2	28379
819.341	28379
819.481	28481
819.622	28622
819.762	28755
819.903	28744
820.043	28478
820.184	28512
820.324	28668
820.465	28611
820.605	28516
820.746	28615
820.886	28367
821.026	28641
821.167	28440
821.307	28630
821.447	28516
821.588	28417
821.728	28253
821.868	28036
822.008	27998
822.149	27899
822.289	27846
822.429	27587
822.569	27576
822.709	27591
822.849	27549
822.99	27386
823.13	27431
823.27	27405
823.41	27252
823.55	27142
823.69	27287
823.83	27256
823.97	27222
824.11	27135
824.25	27020
824.389	27039
824.529	27085
824.669	27047
824.809	27104
824.949	27142
825.089	27104
825.228	27028
825.368	26933
825.508	26838
825.648	26929
825.787	27074
825.927	27062
826.067	26948
826.206	27028
826.346	26960
826.485	26956
826.625	26918
826.765	27047
826.904	26979
827.044	26670
827.183	26731
827.323	26785
827.462	26807
827.601	26655
827.741	26594
827.88	26739
828.02	26594
828.159	26621
828.298	26762
828.437	26724
828.577	26549
828.716	26769
828.855	26636
828.994	26358
829.134	26533
829.273	26408
829.412	26419
829.551	26244
829.69	26374
829.829	26381
829.968	26419
830.107	26377
830.246	26370
830.385	26286
830.524	26290
830.663	26145
830.802	26077
830.941	25993
831.08	25928
831.219	26073
831.357	26039
831.496	26020
831.635	25932
831.774	25837
831.913	25852
832.051	25681
832.19	25712
832.329	25708
832.467	25632
832.606	25658
832.744	25559
832.883	25719
833.022	25567
833.16	25616
833.299	25677
833.437	25635
833.576	25700
833.714	25712
833.852	25670
833.991	25757
834.129	25761
834.267	25742
834.406	25597
834.544	25864
834.682	25769
834.821	25674
834.959	25803
835.097	25632
835.235	25639
835.373	25769
835.511	25639
835.65	25613
835.788	25674
835.926	25468
836.064	25426
836.202	25274
836.34	25529
836.478	25647
836.615	25403
836.753	25563
836.891	25601
837.029	25601
837.167	25339
837.305	25324
837.443	25304
837.58	25506
837.718	25384
837.856	25388
837.993	25175
838.131	25457
838.269	25304
838.406	25228
838.544	25031
838.681	24924
838.819	24913
838.956	24821
839.094	24764
839.231	24878
839.369	24939
839.506	25206
839.643	25126
839.781	24821
839.918	24772
840.055	24878
840.193	24791
840.33	24722
840.467	24734
840.604	24726
840.742	24996
840.879	24509
841.016	24734
841.153	24483
841.29	24817
841.427	24745
841.564	24673
841.701	24658
841.838	24669
841.975	24555
842.112	24669
842.249	24570
842.385	24597
842.522	24715
842.659	24486
842.796	24502
842.933	24384
843.069	24399
843.206	24391
843.343	24525
843.479	24582
843.616	24486
843.752	24300
843.889	24178
844.025	24456
844.162	24232
844.298	24445
844.435	24247
844.571	24186
844.708	24391
844.844	24528
844.98	24365
845.117	24388
845.253	24216
845.389	23992
845.525	24018
845.661	23965
845.798	23916
845.934	23942
846.07	23908
846.206	23980
846.342	24136
846.478	23984
846.614	23832
846.75	23608
846.886	23680
847.022	23665
847.158	23577
847.294	23646
847.429	23783
847.565	23638
847.701	23889
847.837	23406
847.972	23440
848.108	23516
848.244	23337
848.379	23402
848.515	23379
848.65	23220
848.786	23227
848.921	23117
849.057	23379
849.192	23387
849.328	23254
849.463	23204
849.598	23181
849.734	23162
849.869	23102
850.004	22984
850.14	23083
850.275	23060
850.41	23006
850.545	22995
850.68	22984
850.815	23064
850.95	23044
851.085	23132
851.22	23284
851.355	22999
851.49	22991
851.625	23136
851.76	22995
851.895	22847
852.03	23010
852.165	23014
852.299	23052
852.434	23071
852.569	22854
852.703	23022
852.838	23136
852.973	23083
853.107	23124
853.242	22892
853.376	22793
853.511	22672
853.645	22850
853.78	22911
853.914	22801
854.048	22930
854.183	22934
854.317	22797
854.451	23006
854.585	22820
854.72	22752
854.854	22961
854.988	22835
855.122	22885
855.256	22721
855.39	22889
855.524	22968
855.658	22847
855.792	22748
855.926	22828
856.06	22869
856.194	22976
856.327	22854
856.461	22698
856.595	22839
856.729	22957
856.862	22965
856.996	22820
857.13	22911
857.263	22934
857.397	22869
857.53	22816
857.664	22927
857.797	22839
857.931	22961
858.064	22862
858.197	22915
858.331	22824
858.464	22801
858.597	22702
858.731	22736
858.864	22763
858.997	22965
859.13	22858
859.263	22828
859.396	22976
859.529	22858
859.662	22717
859.795	22816
859.928	22809
860.061	23029
860.194	23044
860.327	22927
860.46	22919
860.592	22991
860.725	23014
860.858	22968
860.99	22877
861.123	22774
861.256	22736
861.388	22778
861.521	23490
861.653	22691
861.786	22630
861.918	22630
862.05	22759
862.183	22721
862.315	22862
862.447	22710
862.58	22744
862.712	22573
862.844	22481
862.976	22626
863.108	22569
863.24	23003
863.372	22516
863.504	22573
863.636	22504
863.768	22519
863.9	22508
864.032	22432
864.164	22630
864.296	22580
864.428	22573
864.559	22599
864.691	22721
864.823	22580
864.954	22459
865.086	22588
865.217	22455
865.349	22356
865.48	22379
865.612	22455
865.743	22554
865.875	22508
866.006	22394
866.137	22424
866.269	22356
866.4	22424
866.531	22360
866.662	22219
866.793	22287
866.924	22329
867.055	22333
867.186	22356
867.317	22390
867.448	22223
867.579	22318
867.71	22291
867.841	22204
867.972	22348
868.103	22417
868.233	22329
868.364	22348
868.495	22379
868.625	22504
868.756	22649
868.886	22554
869.017	22577
869.147	22630
869.278	22634
869.408	22580
869.539	22687
869.669	22691
869.799	22588
869.929	22653
870.06	22702
870.19	22858
870.32	22805
870.45	22908
870.58	22949
870.71	22946
870.84	22984
870.97	22972
871.1	22984
871.23	23162
871.36	23204
871.489	23071
871.619	23147
871.749	23094
871.879	23193
872.008	23315
872.138	23181
872.267	23220
872.397	23018
872.526	23071
872.656	22949
872.785	22980
872.915	23132
873.044	23132
873.173	23246
873.303	23277
873.432	23299
873.561	23391
873.69	23159
873.819	23155
873.948	23208
874.077	23273
874.206	23105
874.335	23330
874.464	23193
874.593	23535
874.722	23330
874.851	23459
874.979	23471
875.108	23303
875.237	23410
875.365	23296
875.494	23330
875.623	23482
875.751	23395
875.88	23486
876.008	23444
876.136	23573
876.265	23794
876.393	23908
876.521	23855
876.65	23870
876.778	23863
876.906	23722
877.034	23714
877.162	23840
877.29	23699
877.418	23733
877.546	23779
877.674	23695
877.802	23809
877.93	23634
878.058	23653
878.185	23615
878.313	23748
878.441	23760
878.568	23554
878.696	23741
878.824	23695
878.951	23927
879.079	23893
879.206	24205
879.333	23984
879.461	23851
879.588	23760
879.715	23931
879.842	24098
879.97	23832
880.097	23520
880.224	23547
880.351	23531
880.478	23619
880.605	23429
880.732	23573
880.859	23661
880.986	23554
881.112	23585
881.239	23406
881.366	23337
881.493	23193
881.619	23208
881.746	23227
881.872	23060
881.999	23098
882.125	23003
882.252	23079
882.378	23056
882.505	23094
882.631	23022
882.757	22850
882.883	22831
883.01	22862
883.136	22691
883.262	22599
883.388	22706
883.514	22847
883.64	22782
883.766	22748
883.892	22546
884.018	22611
884.143	22694
884.269	22949
884.395	22428
884.52	22421
884.646	22550
884.772	22242
884.897	22394
885.023	22542
885.148	22561
885.274	22542
885.399	22455
885.524	22382
885.65	22409
885.775	22322
885.9	22466
886.025	22402
886.15	22504
886.275	22489
886.4	22447
886.525	22382
886.65	22356
886.775	22207
886.9	22447
887.025	22577
887.149	22276
887.274	22211
887.399	22192
887.523	22143
887.648	22135
887.773	21911
887.897	22188
888.021	22177
888.146	22097
888.27	22291
888.395	22223
888.519	22249
888.643	22257
888.767	22192
888.891	21994
889.015	21937
889.139	22120
889.263	21892
889.387	22158
889.511	22169
889.635	22124
889.759	21903
889.883	21831
890.006	21895
890.13	22150
890.254	21819
890.377	21846
890.501	21686
890.624	21694
890.748	21739
890.871	21663
890.995	21500
891.118	21553
891.241	21485
891.364	21564
891.488	21610
891.611	21488
891.734	21420
891.857	21542
891.98	21488
892.103	21587
892.226	21496
892.349	21416
892.471	21291
892.594	21408
892.717	21408
892.839	21310
892.962	21397
893.085	21462
893.207	21477
893.33	21294
893.452	21340
893.575	21405
893.697	21302
893.819	21557
893.941	21534
894.064	21477
894.186	21378
894.308	21302
894.43	21439
894.552	21561
894.674	21401
894.796	21283
894.918	21397
895.04	21199
895.161	21348
895.283	21298
895.405	21203
895.526	21332
895.648	21344
895.769	21256
895.891	21408
896.012	21500
896.134	21325
896.255	21340
896.376	21332
896.498	21416
896.619	21408
896.74	21378
896.861	21492
896.982	21637
897.103	21759
897.224	21717
897.345	21553
897.466	21481
897.587	21507
897.708	21679
897.828	21591
897.949	21610
898.07	21332
898.19	21462
898.311	21614
898.431	21370
898.552	21519
898.672	21603
898.792	21572
898.913	21549
899.033	21443
899.153	21386
899.273	21211
899.393	21340
899.513	21249
899.633	21302
899.753	21466
899.873	21135
899.993	21203
900.113	21287
900.232	21260
900.352	21176
900.472	21108
900.591	21096
900.711	21081
900.83	21005
900.95	21173
901.069	21161
901.189	20979
901.308	20712
901.427	20655
901.546	20511
901.665	20648
901.784	20667
901.904	20431
902.023	20446
902.141	20336
902.26	20240
902.379	20256
902.498	20225
902.617	19986
902.735	20191
902.854	20081
902.973	20012
903.091	19822
903.21	19898
903.328	19788
903.446	19761
903.565	19723
903.683	19567
903.801	19434
903.919	19586
904.038	19529
904.156	19373
904.274	19403
904.392	19400
904.51	19365
904.627	19255
904.745	19373
904.863	19270
904.981	19179
905.098	19129
905.216	19114
905.334	19088
905.451	19145
905.569	18973
905.686	19038
905.803	18947
905.921	18696
906.038	18863
906.155	18821
906.272	18646
906.389	18753
906.506	18517
906.623	18589
906.74	18445
906.857	18525
906.974	18486
907.091	18639
907.208	18722
907.324	18734
907.441	18467
907.557	18277
907.674	18247
907.79	18190
907.907	18270
908.023	18281
908.139	18239
908.256	18178
908.372	18060
908.488	18194
908.604	17942
908.72	18022
908.836	18030
908.952	17878
909.068	18038
909.184	18110
909.3	17984
909.415	17950
909.531	17939
909.647	17684
909.762	17672
909.878	17691
909.993	17676
910.108	17585
910.224	17707
910.339	17630
910.454	17551
910.57	17608
910.685	17383
910.8	17676
910.915	17592
911.03	17395
911.145	17208
911.259	17174
911.374	17204
911.489	17067
911.604	17090
911.718	16942
911.833	16896
911.947	16911
912.062	16771
912.176	16908
912.291	17037
912.405	16991
912.519	17124
912.633	17235
912.748	16896
912.862	16946
912.976	16755
913.09	16630
913.204	16721
913.318	16816
913.431	16877
913.545	16873
913.659	16839
913.772	16805
913.886	16596
914	16512
914.113	16641
914.226	16675
914.34	16592
914.453	16497
914.566	16577
914.68	16390
914.793	16375
914.906	16124
915.019	16059
915.132	16044
915.245	16147
915.358	16128
915.47	16059
915.583	16074
915.696	16177
915.809	16265
915.921	16268
916.034	16029
916.146	16040
916.259	16101
916.371	16109
916.483	16105
916.595	15949
916.708	15918
916.82	15983
916.932	15888
917.044	15892
917.156	15880
917.268	15766
917.38	15835
917.491	15808
917.603	15660
917.715	15880
917.826	15720
917.938	15679
918.049	15660
918.161	15751
918.272	15800
918.384	15774
918.495	15644
918.606	15485
918.717	15405
918.828	15500
918.939	15500
919.05	15283
919.161	15447
919.272	15348
919.383	15218
919.494	15519
919.604	15660
919.715	15492
919.826	15287
919.936	15416
920.047	15542
920.157	15393
920.267	15610
920.378	15424
920.488	15389
920.598	15603
920.708	15675
920.818	15519
920.928	15599
921.038	15682
921.148	15660
921.258	15302
921.368	15313
921.477	15104
921.587	15085
921.697	15047
921.806	15062
921.916	14952
922.025	14792
922.134	14705
922.244	14754
922.353	14819
922.462	14667
922.571	14571
922.68	14442
922.789	14507
922.898	14442
923.007	14362
923.116	14457
923.224	14461
923.333	14343
923.442	14259
923.55	14202
923.659	14202
923.767	14210
923.876	14142
923.984	14172
924.092	14123
924.201	14130
924.309	14206
924.417	14153
924.525	14058
924.633	14058
924.741	14811
924.849	13826
924.956	13993
925.064	13807
925.172	13651
925.279	13681
925.387	13776
925.494	13769
925.602	13902
925.709	13841
925.816	13567
925.924	13753
926.031	13833
926.138	13666
926.245	13761
926.352	13636
926.459	13757
926.566	13681
926.673	13636
926.779	13480
926.886	13514
926.993	13384
927.099	13346
927.206	13289
927.312	13168
927.419	13358
927.525	13415
927.631	13362
927.737	13217
927.843	13149
927.95	13050
928.056	13069
928.162	13152
928.267	13183
928.373	13788
928.479	13221
928.585	12913
928.69	13171
928.796	13129
928.901	13000
929.007	12783
929.112	12970
929.218	12913
929.323	12894
929.428	12772
929.533	12989
929.638	12753
929.743	12783
929.848	12772
929.953	12688
930.058	12658
930.163	12547
930.267	12467
930.372	12631
930.477	12395
930.581	12654
930.685	12407
930.79	12391
930.894	12399
930.998	12350
931.103	12471
931.207	12083
931.311	12026
931.415	11874
931.519	11695
931.623	11710
