Data from test_V78500241_1801.txt Node
Date: Fri Mar 25 15:54:16 CST 2022
User: usil
Spectrometer: V785-0024
Trigger mode: 0
Integration Time (sec): 4.000000E-1
Scans to average: 1
Nonlinearity correction enabled: false
Boxcar width: 0
Storing dark spectrum: false
XAxis mode: Wavelengths
Number of Pixels in Spectrum: 1024
>>>>>Begin Spectral Data<<<<<
801.071	28641
801.214	28596
801.356	28344
801.499	28462
801.641	28124
801.783	28314
801.926	28196
802.068	28257
802.211	28135
802.353	28143
802.496	27918
802.638	28029
802.78	27804
802.923	27945
803.065	27880
803.208	27835
803.35	27884
803.492	28048
803.635	28158
803.777	28021
803.919	27956
804.061	28485
804.204	28147
804.346	28086
804.488	28082
804.63	27941
804.773	28120
804.915	28337
805.057	28204
805.199	28116
805.341	28196
805.483	28204
805.626	28333
805.768	28200
805.91	28295
806.052	28284
806.194	28207
806.336	28493
806.478	28261
806.62	28211
806.762	28542
806.904	28516
807.046	28679
807.188	28656
807.33	28672
807.472	28801
807.614	28710
807.756	28702
807.898	28683
808.04	28474
808.182	28527
808.324	28424
808.465	28588
808.607	28858
808.749	28995
808.891	29056
809.033	29109
809.174	29052
809.316	28892
809.458	29003
809.6	29090
809.741	29143
809.883	29155
810.025	29429
810.166	29273
810.308	29501
810.45	29174
810.591	29162
810.733	28995
810.875	28987
811.016	28930
811.158	28927
811.299	29090
811.441	29284
811.582	29098
811.724	28877
811.865	28896
812.007	29006
812.148	29109
812.29	29048
812.431	29102
812.573	29265
812.714	29474
812.855	29482
812.997	29505
813.138	29722
813.279	29737
813.421	29684
813.562	29482
813.703	29372
813.845	29391
813.986	28911
814.127	28862
814.268	28622
814.41	28763
814.551	28679
814.692	28584
814.833	28592
814.974	28702
815.115	28641
815.256	28748
815.397	28577
815.539	28634
815.68	28500
815.821	28390
815.962	28565
816.103	28462
816.244	28386
816.385	28265
816.526	28246
816.666	28238
816.807	28032
816.948	28051
817.089	28147
817.23	28173
817.371	28036
817.512	28070
817.653	27926
817.793	27914
817.934	28036
818.075	28055
818.216	27994
818.356	27968
818.497	27922
818.638	27816
818.778	27739
818.919	27816
819.06	27880
819.2	27979
819.341	27869
819.481	28032
819.622	28268
819.762	28379
819.903	28322
820.043	28040
820.184	28131
820.324	28139
820.465	28128
820.605	28234
820.746	28196
820.886	28082
821.026	28162
821.167	28154
821.307	28204
821.447	28044
821.588	27854
821.728	27827
821.868	27618
822.008	27625
822.149	27500
822.289	27397
822.429	27279
822.569	27256
822.709	27192
822.849	27017
822.99	26986
823.13	27039
823.27	26971
823.41	26872
823.55	26804
823.69	26918
823.83	26979
823.97	26804
824.11	26678
824.25	26712
824.389	26552
824.529	26800
824.669	26667
824.809	26823
824.949	26686
825.089	26678
825.228	26621
825.368	26564
825.508	26518
825.648	26568
825.787	26613
825.927	26568
826.067	26423
826.206	26514
826.346	26575
826.485	26518
826.625	26568
826.765	26686
826.904	26708
827.044	26328
827.183	26324
827.323	26142
827.462	26298
827.601	26214
827.741	26225
827.88	26320
828.02	26199
828.159	26180
828.298	26320
828.437	26263
828.577	26256
828.716	26362
828.855	26153
828.994	25936
829.134	25909
829.273	26058
829.412	26008
829.551	26005
829.69	25986
829.829	25951
829.968	25898
830.107	26122
830.246	26062
830.385	25871
830.524	25951
830.663	25753
830.802	25681
830.941	25670
831.08	25548
831.219	25620
831.357	25567
831.496	25712
831.635	25594
831.774	25403
831.913	25590
832.051	25206
832.19	25392
832.329	25400
832.467	25129
832.606	25270
832.744	25240
832.883	25202
833.022	25202
833.16	25160
833.299	25225
833.437	25274
833.576	25274
833.714	25316
833.852	25285
833.991	25282
834.129	25232
834.267	25419
834.406	25282
834.544	25392
834.682	25160
834.821	25266
834.959	25419
835.097	25187
835.235	25331
835.373	25175
835.511	25278
835.65	25168
835.788	25217
835.926	24947
836.064	24947
836.202	24947
836.34	25084
836.478	25270
836.615	25107
836.753	25069
836.891	25171
837.029	25099
837.167	24951
837.305	24886
837.443	24966
837.58	24932
837.718	24909
837.856	24989
837.993	24783
838.131	24825
838.269	24745
838.406	24707
838.544	24741
838.681	24574
838.819	24604
838.956	24342
839.094	24357
839.231	24380
839.369	24429
839.506	24825
839.643	24673
839.781	24323
839.918	24338
840.055	24445
840.193	24399
840.33	24277
840.467	24369
840.604	24410
840.742	24578
840.879	24262
841.016	24251
841.153	24129
841.29	24334
841.427	24323
841.564	24251
841.701	24365
841.838	24266
841.975	24178
842.112	24239
842.249	24224
842.385	24034
842.522	24327
842.659	24228
842.796	24041
842.933	24106
843.069	24110
843.206	24030
843.343	24133
843.479	24125
843.616	24098
843.752	23824
843.889	23874
844.025	24015
844.162	23954
844.298	23866
844.435	23786
844.571	23813
844.708	23935
844.844	24011
844.98	24079
845.117	24068
845.253	23805
845.389	23821
845.525	23687
845.661	23608
845.798	23581
845.934	23680
846.07	23638
846.206	23592
846.342	23707
846.478	23524
846.614	23261
846.75	23269
846.886	23334
847.022	23326
847.158	23364
847.294	23193
847.429	23410
847.565	23326
847.701	23478
847.837	22965
847.972	23014
848.108	23197
848.244	23117
848.379	22934
848.515	22900
848.65	22710
848.786	22843
848.921	22862
849.057	22869
849.192	22850
849.328	23044
849.463	22793
849.598	22927
849.734	22850
849.869	22653
850.004	22634
850.14	22744
850.275	22748
850.41	22561
850.545	22531
850.68	22626
850.815	22599
850.95	22713
851.085	22755
851.22	22828
851.355	22774
851.49	22599
851.625	22523
851.76	22538
851.895	22561
852.03	22523
852.165	22630
852.299	22774
852.434	22630
852.569	22744
852.703	22607
852.838	22774
852.973	22755
853.107	22713
853.242	22588
853.376	22451
853.511	22451
853.645	22531
853.78	22607
853.914	22462
854.048	22436
854.183	22394
854.317	22512
854.451	22599
854.585	22417
854.72	22440
854.854	22508
854.988	22474
855.122	22554
855.256	22318
855.39	22550
855.524	22577
855.658	22504
855.792	22394
855.926	22489
856.06	22409
856.194	22577
856.327	22310
856.461	22546
856.595	22561
856.729	22337
856.862	22584
856.996	22390
857.13	22683
857.263	22577
857.397	22523
857.53	22352
857.664	22478
857.797	22436
857.931	22668
858.064	22527
858.197	22599
858.331	22466
858.464	22367
858.597	22295
858.731	22352
858.864	22440
858.997	22398
859.13	22474
859.263	22428
859.396	22599
859.529	22417
859.662	22386
859.795	22584
859.928	22394
860.061	22588
860.194	22588
860.327	22580
860.46	22523
860.592	22630
860.725	22660
860.858	22618
860.99	22459
861.123	22295
861.256	22325
861.388	22489
861.521	23010
861.653	22318
861.786	22276
861.918	22211
862.05	22310
862.183	22223
862.315	22352
862.447	22405
862.58	22443
862.712	22196
862.844	22120
862.976	22291
863.108	22306
863.24	22694
863.372	22128
863.504	22223
863.636	22139
863.768	22253
863.9	22177
864.032	22173
864.164	22139
864.296	22295
864.428	22272
864.559	22291
864.691	22204
864.823	22268
864.954	22204
865.086	22032
865.217	22109
865.349	22025
865.48	22109
865.612	22063
865.743	22158
865.875	22124
866.006	21945
866.137	21987
866.269	22040
866.4	22059
866.531	21987
866.662	22029
866.793	22002
866.924	22010
867.055	22063
867.186	21949
867.317	22082
867.448	21861
867.579	21739
867.71	21850
867.841	21964
867.972	22002
868.103	21941
868.233	21987
868.364	22036
868.495	22082
868.625	22249
868.756	22299
868.886	22192
869.017	22204
869.147	22246
869.278	22375
869.408	22139
869.539	22185
869.669	22337
869.799	22265
869.929	22504
870.06	22329
870.19	22588
870.32	22531
870.45	22554
870.58	22660
870.71	22702
870.84	22713
870.97	22698
871.1	22500
871.23	22755
871.36	22767
871.489	22759
871.619	22782
871.749	22771
871.879	22831
872.008	22972
872.138	22782
872.267	22839
872.397	22725
872.526	22664
872.656	22569
872.785	22557
872.915	22885
873.044	22995
873.173	22908
873.303	22828
873.432	22892
873.561	22892
873.69	22934
873.819	22911
873.948	22968
874.077	22919
874.206	22790
874.335	22835
874.464	22968
874.593	23029
874.722	23041
874.851	22995
874.979	22999
875.108	23124
875.237	22953
875.365	22953
875.494	23071
875.623	23102
875.751	23181
875.88	23083
876.008	23242
876.136	23299
876.265	23444
876.393	23562
876.521	23478
876.65	23535
876.778	23421
876.906	23436
877.034	23311
877.162	23368
877.29	23345
877.418	23341
877.546	23368
877.674	23436
877.802	23326
877.93	23387
878.058	23376
878.185	23254
878.313	23429
878.441	23296
878.568	23223
878.696	23387
878.824	23402
878.951	23440
879.079	23596
879.206	23760
879.333	23573
879.461	23376
879.588	23619
879.715	23581
879.842	23649
879.97	23490
880.097	23208
880.224	23162
880.351	23341
880.478	23334
880.605	23113
880.732	23193
880.859	23486
880.986	23292
881.112	23220
881.239	23162
881.366	23060
881.493	22938
881.619	22797
881.746	22771
881.872	22839
881.999	22763
882.125	22847
882.252	22801
882.378	22790
882.505	22911
882.631	22759
882.757	22455
882.883	22656
883.01	22466
883.136	22489
883.262	22360
883.388	22299
883.514	22508
883.64	22519
883.766	22402
883.892	22268
884.018	22284
884.143	22318
884.269	22413
884.395	22166
884.52	22044
884.646	22181
884.772	22002
884.897	21994
885.023	22097
885.148	22101
885.274	22173
885.399	22120
885.524	22048
885.65	22093
885.775	22029
885.9	22112
886.025	22166
886.15	22204
886.275	22044
886.4	21926
886.525	22135
886.65	21983
886.775	22082
886.9	22173
887.025	22234
887.149	21979
887.274	21979
887.399	21861
887.523	21937
887.648	21720
887.773	21713
887.897	21876
888.021	21865
888.146	21682
888.27	21945
888.395	21930
888.519	21857
888.643	21835
888.767	22002
888.891	21854
889.015	21644
889.139	21793
889.263	21637
889.387	21717
889.511	21861
889.635	21739
889.759	21599
889.883	21679
890.006	21644
890.13	21694
890.254	21679
890.377	21663
890.501	21454
890.624	21424
890.748	21397
890.871	21348
890.995	21180
891.118	21081
891.241	21119
891.364	21340
891.488	21370
891.611	21260
891.734	21192
891.857	21169
891.98	21249
892.103	21192
892.226	21131
892.349	21066
892.471	21135
892.594	21085
892.717	21161
892.839	21108
892.962	21135
893.085	21192
893.207	21116
893.33	20914
893.452	21089
893.575	21192
893.697	21211
893.819	21077
893.941	21188
894.064	21180
894.186	20986
894.308	21005
894.43	21036
894.552	21192
894.674	21131
894.796	20986
894.918	21074
895.04	21036
895.161	21154
895.283	21146
895.405	21005
895.526	21081
895.648	20971
895.769	21203
895.891	21081
896.012	21142
896.134	21070
896.255	21028
896.376	21017
896.498	21047
896.619	20982
896.74	21070
896.861	21203
896.982	21378
897.103	21481
897.224	21351
897.345	21321
897.466	21245
897.587	21249
897.708	21443
897.828	21272
897.949	21256
898.07	21218
898.19	21226
898.311	21386
898.431	21203
898.552	21279
898.672	21336
898.792	21367
898.913	21260
899.033	21195
899.153	21028
899.273	20918
899.393	20994
899.513	21024
899.633	21108
899.753	21005
899.873	20891
899.993	21005
900.113	20891
900.232	20941
900.352	20754
900.472	20727
900.591	20739
900.711	20693
900.83	20792
900.95	20788
901.069	20880
901.189	20564
901.308	20476
901.427	20336
901.546	20400
901.665	20343
901.784	20278
901.904	20237
902.023	20149
902.141	19883
902.26	19883
902.379	19833
902.498	19799
902.617	19734
902.735	19826
902.854	19765
902.973	19681
903.091	19544
903.21	19441
903.328	19403
903.446	19384
903.565	19278
903.683	19304
903.801	19232
903.919	19312
904.038	19293
904.156	19012
904.274	19057
904.392	19107
904.51	18989
904.627	18989
904.745	19027
904.863	19103
904.981	18939
905.098	18825
905.216	18623
905.334	18745
905.451	18719
905.569	18681
905.686	18661
905.803	18597
905.921	18528
906.038	18563
906.155	18437
906.272	18315
906.389	18369
906.506	18266
906.623	18300
906.74	18235
906.857	18182
906.974	18186
907.091	18232
907.208	18281
907.324	18319
907.441	18136
907.557	17996
907.674	17980
907.79	17790
907.907	17958
908.023	18060
908.139	17855
908.256	17942
908.372	17859
908.488	17832
908.604	17718
908.72	17627
908.836	17760
908.952	17752
909.068	17672
909.184	17786
909.3	17687
909.415	17661
909.531	17592
909.647	17387
909.762	17414
909.878	17360
909.993	17379
910.108	17273
910.224	17292
910.339	17395
910.454	17322
910.57	17170
910.685	17174
910.8	17330
910.915	17273
911.03	17105
911.145	17029
911.259	16908
911.374	17003
911.489	16999
911.604	16801
911.718	16630
911.833	16668
911.947	16717
912.062	16421
912.176	16725
912.291	16664
912.405	16656
912.519	16839
912.633	16850
912.748	16725
912.862	16599
912.976	16481
913.09	16432
913.204	16443
913.318	16554
913.431	16573
913.545	16550
913.659	16599
913.772	16447
913.886	16367
914	16344
914.113	16356
914.226	16405
914.34	16356
914.453	16230
914.566	16215
914.68	16150
914.793	16036
914.906	16017
915.019	15888
915.132	15857
915.245	15941
915.358	15857
915.47	15884
915.583	15854
915.696	15892
915.809	15983
915.921	16029
916.034	15789
916.146	15800
916.259	15728
916.371	15861
916.483	15835
916.595	15709
916.708	15641
916.82	15610
916.932	15625
917.044	15675
917.156	15580
917.268	15496
917.38	15515
917.491	15439
917.603	15416
917.715	15599
917.826	15523
917.938	15374
918.049	15321
918.161	15511
918.272	15545
918.384	15561
918.495	15439
918.606	15317
918.717	15195
918.828	15268
918.939	15389
919.05	15131
919.161	15188
919.272	14948
919.383	15085
919.494	15256
919.604	15416
919.715	15176
919.826	15173
919.936	15138
920.047	15291
920.157	15241
920.267	15397
920.378	15252
920.488	15085
920.598	15294
920.708	15428
920.818	15256
920.928	15291
921.038	15435
921.148	15500
921.258	15097
921.368	15074
921.477	14807
921.587	14826
921.697	14762
921.806	14804
921.916	14754
922.025	14644
922.134	14518
922.244	14568
922.353	14587
922.462	14533
922.571	14294
922.68	14240
922.789	14145
922.898	14149
923.007	14077
923.116	14123
923.224	14180
923.333	14092
923.442	14035
923.55	13955
923.659	13993
923.767	14084
923.876	13940
923.984	14043
924.092	13769
924.201	13795
924.309	13890
924.417	13951
924.525	13811
924.633	13864
924.741	14606
924.849	13643
924.956	13746
925.064	13616
925.172	13457
925.279	13590
925.387	13601
925.494	13582
925.602	13643
925.709	13586
925.816	13381
925.924	13434
926.031	13563
926.138	13388
926.245	13586
926.352	13350
926.459	13559
926.566	13453
926.673	13396
926.779	13350
926.886	13202
926.993	13122
927.099	13168
927.206	13042
927.312	13088
927.419	13084
927.525	13129
927.631	13114
927.737	12973
927.843	12989
927.95	12837
928.056	12886
928.162	12909
928.267	12962
928.373	13571
928.479	12993
928.585	12764
928.69	12779
928.796	12928
928.901	12662
929.007	12528
929.112	12768
929.218	12627
929.323	12559
929.428	12681
929.533	12840
929.638	12464
929.743	12646
929.848	12544
929.953	12502
930.058	12445
930.163	12285
930.267	12311
930.372	12528
930.477	12296
930.581	12395
930.685	12266
930.79	12053
930.894	12239
930.998	12171
931.103	12304
931.207	11901
931.311	11790
931.415	11748
931.519	11493
931.623	11455
