Data from test_V78500241_2581.txt Node
Date: Fri Mar 25 15:59:40 CST 2022
User: usil
Spectrometer: V785-0024
Trigger mode: 0
Integration Time (sec): 4.000000E-1
Scans to average: 1
Nonlinearity correction enabled: false
Boxcar width: 0
Storing dark spectrum: false
XAxis mode: Wavelengths
Number of Pixels in Spectrum: 1024
>>>>>Begin Spectral Data<<<<<
801.071	28447
801.214	28306
801.356	28154
801.499	28192
801.641	27991
801.783	28074
801.926	28082
802.068	28063
802.211	27964
802.353	27922
802.496	27797
802.638	27660
802.78	27701
802.923	27667
803.065	27576
803.208	27652
803.35	27519
803.492	27804
803.635	27937
803.777	27728
803.919	27914
804.061	28249
804.204	27907
804.346	27812
804.488	27739
804.63	27907
804.773	27739
804.915	27831
805.057	28067
805.199	27876
805.341	28093
805.483	27991
805.626	28013
805.768	27911
805.91	28006
806.052	28173
806.194	27831
806.336	28207
806.478	28002
806.62	28017
806.762	28207
806.904	28318
807.046	28508
807.188	28478
807.33	28428
807.472	28523
807.614	28508
807.756	28440
807.898	28287
808.04	28181
808.182	28360
808.324	28280
808.465	28470
808.607	28611
808.749	28710
808.891	28885
809.033	28843
809.174	28850
809.316	28744
809.458	28717
809.6	28626
809.741	28831
809.883	28717
810.025	29067
810.166	29048
810.308	28984
810.45	28938
810.591	28904
810.733	28683
810.875	28660
811.016	28729
811.158	28500
811.299	28763
811.441	28877
811.582	28740
811.724	28618
811.865	28615
812.007	28824
812.148	28641
812.29	28744
812.431	28759
812.573	28927
812.714	29083
812.855	29364
812.997	29250
813.138	29410
813.279	29387
813.421	29315
813.562	29052
813.703	28991
813.845	28980
813.986	28618
814.127	28611
814.268	28470
814.41	28565
814.551	28375
814.692	28432
814.833	28519
814.974	28291
815.115	28386
815.256	28192
815.397	28230
815.539	28120
815.68	28147
815.821	28135
815.962	28276
816.103	28139
816.244	27964
816.385	28105
816.526	28010
816.666	27846
816.807	27656
816.948	27694
817.089	27857
817.23	27759
817.371	27732
817.512	27583
817.653	27709
817.793	27637
817.934	27701
818.075	27800
818.216	27770
818.356	27561
818.497	27424
818.638	27447
818.778	27355
818.919	27458
819.06	27545
819.2	27500
819.341	27625
819.481	27629
819.622	27907
819.762	28101
819.903	28002
820.043	27895
820.184	27831
820.324	27838
820.465	27876
820.605	27857
820.746	27732
820.886	27724
821.026	27914
821.167	27808
821.307	27762
821.447	27614
821.588	27633
821.728	27542
821.868	27397
822.008	27214
822.149	27165
822.289	27135
822.429	26921
822.569	26921
822.709	26876
822.849	26682
822.99	26777
823.13	26773
823.27	26511
823.41	26473
823.55	26450
823.69	26518
823.83	26533
823.97	26476
824.11	26290
824.25	26206
824.389	26374
824.529	26453
824.669	26511
824.809	26396
824.949	26419
825.089	26434
825.228	26488
825.368	26084
825.508	26256
825.648	26248
825.787	26313
825.927	26298
826.067	26058
826.206	26206
826.346	26298
826.485	26309
826.625	26134
826.765	26305
826.904	26210
827.044	26046
827.183	25974
827.323	25906
827.462	25811
827.601	25944
827.741	25864
827.88	25966
828.02	25887
828.159	25875
828.298	25966
828.437	25906
828.577	25947
828.716	26115
828.855	25947
828.994	25632
829.134	25731
829.273	25666
829.412	25609
829.551	25556
829.69	25628
829.829	25628
829.968	25791
830.107	25609
830.246	25582
830.385	25510
830.524	25571
830.663	25460
830.802	25301
830.941	25274
831.08	25221
831.219	25285
831.357	25308
831.496	25537
831.635	25259
831.774	25069
831.913	25175
832.051	24932
832.19	25053
832.329	25019
832.467	24932
832.606	24844
832.744	24943
832.883	24951
833.022	24958
833.16	24848
833.299	24992
833.437	24943
833.576	24958
833.714	24935
833.852	24920
833.991	25076
834.129	25069
834.267	25069
834.406	25050
834.544	24951
834.682	25023
834.821	25008
834.959	25175
835.097	24916
835.235	24814
835.373	25050
835.511	24882
835.65	24787
835.788	24867
835.926	24673
836.064	24711
836.202	24692
836.34	24719
836.478	24878
836.615	24738
836.753	24817
836.891	24977
837.029	24837
837.167	24738
837.305	24741
837.443	24688
837.58	24650
837.718	24620
837.856	24730
837.993	24715
838.131	24612
838.269	24544
838.406	24407
838.544	24490
838.681	24262
838.819	24254
838.956	24076
839.094	24095
839.231	24152
839.369	24178
839.506	24486
839.643	24304
839.781	24194
839.918	23942
840.055	24095
840.193	23969
840.33	24106
840.467	24026
840.604	24098
840.742	24273
840.879	23855
841.016	23893
841.153	23843
841.29	24030
841.427	23999
841.564	23874
841.701	24026
841.838	23961
841.975	23874
842.112	23958
842.249	23790
842.385	23737
842.522	23965
842.659	23798
842.796	23726
842.933	23760
843.069	23756
843.206	23703
843.343	23710
843.479	23714
843.616	23729
843.752	23505
843.889	23459
844.025	23649
844.162	23444
844.298	23615
844.435	23577
844.571	23467
844.708	23596
844.844	23619
844.98	23741
845.117	23695
845.253	23410
845.389	23356
845.525	23417
845.661	23379
845.798	23231
845.934	23421
846.07	23216
846.206	23223
846.342	23353
846.478	23204
846.614	23128
846.75	22900
846.886	23060
847.022	23014
847.158	22999
847.294	23022
847.429	22972
847.565	23029
847.701	23284
847.837	22767
847.972	22660
848.108	22816
848.244	22881
848.379	22531
848.515	22691
848.65	22573
848.786	22630
848.921	22561
849.057	22706
849.192	22740
849.328	22592
849.463	22691
849.598	22512
849.734	22428
849.869	22402
850.004	22413
850.14	22371
850.275	22424
850.41	22314
850.545	22272
850.68	22318
850.815	22322
850.95	22261
851.085	22508
851.22	22413
851.355	22360
851.49	22363
851.625	22284
851.76	22238
851.895	22280
852.03	22249
852.165	22314
852.299	22443
852.434	22367
852.569	22333
852.703	22398
852.838	22382
852.973	22337
853.107	22356
853.242	22177
853.376	22223
853.511	22021
853.645	22086
853.78	22272
853.914	22086
854.048	22150
854.183	22143
854.317	22211
854.451	22489
854.585	22223
854.72	22185
854.854	22223
854.988	22150
855.122	22143
855.256	21937
855.39	22139
855.524	22310
855.658	22303
855.792	22215
855.926	22070
856.06	22192
856.194	22234
856.327	22204
856.461	22139
856.595	22128
856.729	22185
856.862	22230
856.996	22166
857.13	22215
857.263	22337
857.397	22177
857.53	22143
857.664	22169
857.797	22325
857.931	22147
858.064	22276
858.197	22295
858.331	22139
858.464	22204
858.597	22059
858.731	22059
858.864	22238
858.997	22131
859.13	22097
859.263	22242
859.396	22181
859.529	22105
859.662	22013
859.795	22116
859.928	22223
860.061	22249
860.194	22409
860.327	22242
860.46	22188
860.592	22215
860.725	22249
860.858	22348
860.99	22215
861.123	22074
861.256	22143
861.388	22139
861.521	23003
861.653	22124
861.786	21979
861.918	21922
862.05	22025
862.183	22086
862.315	22086
862.447	22128
862.58	22120
862.712	21968
862.844	21759
862.976	21926
863.108	21873
863.24	22329
863.372	21918
863.504	21850
863.636	21819
863.768	21892
863.9	21785
864.032	21797
864.164	21854
864.296	21850
864.428	22029
864.559	21831
864.691	21960
864.823	21869
864.954	21865
865.086	21854
865.217	21755
865.349	21770
865.48	21774
865.612	21747
865.743	21892
865.875	21812
866.006	21732
866.137	21736
866.269	21671
866.4	21747
866.531	21724
866.662	21663
866.793	21572
866.924	21751
867.055	21709
867.186	21709
867.317	21690
867.448	21481
867.579	21629
867.71	21587
867.841	21701
867.972	21682
868.103	21682
868.233	21595
868.364	21656
868.495	21770
868.625	21842
868.756	21895
868.886	21876
869.017	21850
869.147	22029
869.278	22070
869.408	21880
869.539	21972
869.669	21930
869.799	22036
869.929	22109
870.06	21941
870.19	22284
870.32	22101
870.45	22291
870.58	22310
870.71	22291
870.84	22344
870.97	22257
871.1	22348
871.23	22455
871.36	22459
871.489	22436
871.619	22561
871.749	22561
871.879	22516
872.008	22782
872.138	22527
872.267	22489
872.397	22489
872.526	22379
872.656	22459
872.785	22424
872.915	22428
873.044	22771
873.173	22596
873.303	22653
873.432	22584
873.561	22622
873.69	22584
873.819	22584
873.948	22790
874.077	22542
874.206	22538
874.335	22596
874.464	22603
874.593	22759
874.722	22649
874.851	22729
874.979	22774
875.108	22828
875.237	22729
875.365	22637
875.494	22740
875.623	22911
875.751	22672
875.88	22767
876.008	22786
876.136	22987
876.265	23220
876.393	23273
876.521	23067
876.65	23231
876.778	23094
876.906	22976
877.034	23083
877.162	23052
877.29	23010
877.418	23052
877.546	23003
877.674	22984
877.802	23064
877.93	23124
878.058	23079
878.185	22923
878.313	23102
878.441	23136
878.568	22930
878.696	23048
878.824	23006
878.951	23102
879.079	23261
879.206	23242
879.333	23151
879.461	23151
879.588	23269
879.715	23223
879.842	23341
879.97	23204
880.097	23006
880.224	22934
880.351	22980
880.478	23010
880.605	22896
880.732	22873
880.859	23109
880.986	23003
881.112	22923
881.239	22835
881.366	22675
881.493	22470
881.619	22402
881.746	22599
881.872	22417
881.999	22462
882.125	22390
882.252	22428
882.378	22424
882.505	22523
882.631	22306
882.757	22394
882.883	22238
883.01	22128
883.136	22166
883.262	22006
883.388	22067
883.514	22242
883.64	22131
883.766	22013
883.892	21850
884.018	21941
884.143	22040
884.269	22204
884.395	21930
884.52	21713
884.646	21934
884.772	21755
884.897	21682
885.023	21800
885.148	21846
885.274	21960
885.399	21930
885.524	21785
885.65	21709
885.775	21884
885.9	21785
886.025	21812
886.15	21869
886.275	21755
886.4	21819
886.525	21778
886.65	21793
886.775	21724
886.9	21884
887.025	22048
887.149	21694
887.274	21629
887.399	21526
887.523	21572
887.648	21473
887.773	21492
887.897	21610
888.021	21591
888.146	21462
888.27	21652
888.395	21755
888.519	21488
888.643	21519
888.767	21538
888.891	21496
889.015	21313
889.139	21454
889.263	21287
889.387	21488
889.511	21469
889.635	21473
889.759	21386
889.883	21313
890.006	21336
890.13	21405
890.254	21294
890.377	21264
890.501	21051
890.624	20937
890.748	21256
890.871	20963
890.995	20765
891.118	20838
891.241	20811
891.364	20963
891.488	20952
891.611	20876
891.734	20979
891.857	21013
891.98	20952
892.103	20861
892.226	20857
892.349	20861
892.471	20705
892.594	20887
892.717	20807
892.839	20777
892.962	20815
893.085	20986
893.207	20876
893.33	20716
893.452	20765
893.575	20777
893.697	20899
893.819	20986
893.941	21028
894.064	21089
894.186	20716
894.308	20686
894.43	20811
894.552	20883
894.674	20872
894.796	20716
894.918	20629
895.04	20724
895.161	20838
895.283	20731
895.405	20754
895.526	20716
895.648	20762
895.769	20925
895.891	20743
896.012	20811
896.134	20861
896.255	20781
896.376	20663
896.498	20701
896.619	20921
896.74	20697
896.861	20918
896.982	21070
897.103	21192
897.224	21013
897.345	20990
897.466	20906
897.587	21051
897.708	21127
897.828	21096
897.949	21047
898.07	20701
898.19	20906
898.311	21173
898.431	20899
898.552	21093
898.672	21142
898.792	21070
898.913	21009
899.033	20929
899.153	20796
899.273	20682
899.393	20861
899.513	20781
899.633	20773
899.753	20743
899.873	20659
899.993	20788
900.113	20712
900.232	20606
900.352	20667
900.472	20446
900.591	20507
900.711	20560
900.83	20393
900.95	20499
901.069	20708
901.189	20469
901.308	20142
901.427	19959
901.546	20115
901.665	20081
901.784	20035
901.904	19959
902.023	19791
902.141	19556
902.26	19540
902.379	19689
902.498	19681
902.617	19537
902.735	19491
902.854	19548
902.973	19472
903.091	19198
903.21	19225
903.328	19187
903.446	19194
903.565	19110
903.683	18886
903.801	19000
903.919	18962
904.038	19019
904.156	18829
904.274	18837
904.392	18753
904.51	18802
904.627	18825
904.745	18837
904.863	18920
904.981	18456
905.098	18509
905.216	18544
905.334	18467
905.451	18448
905.569	18471
905.686	18502
905.803	18361
905.921	18228
906.038	18262
906.155	18235
906.272	18083
906.389	18174
906.506	18098
906.623	18011
906.74	18076
906.857	17942
906.974	17821
907.091	18049
907.208	18136
907.324	18091
907.441	17882
907.557	17783
907.674	17630
907.79	17726
907.907	17592
908.023	17611
908.139	17703
908.256	17589
908.372	17661
908.488	17608
908.604	17444
908.72	17417
908.836	17467
908.952	17436
909.068	17383
909.184	17383
909.3	17512
909.415	17501
909.531	17452
909.647	17193
909.762	17071
909.878	17048
909.993	17159
910.108	17056
910.224	17079
910.339	17079
910.454	16999
910.57	16999
910.685	16824
910.8	17250
910.915	16972
911.03	16953
911.145	16664
911.259	16782
911.374	16698
911.489	16584
911.604	16687
911.718	16443
911.833	16538
911.947	16481
912.062	16325
912.176	16375
912.291	16443
912.405	16504
912.519	16637
912.633	16736
912.748	16466
912.862	16447
912.976	16234
913.09	16131
913.204	16306
913.318	16249
913.431	16421
913.545	16249
913.659	16409
913.772	16230
913.886	16074
914	15998
914.113	16116
914.226	16158
914.34	16124
914.453	15975
914.566	16131
914.68	16002
914.793	15880
914.906	15713
915.019	15652
915.132	15530
915.245	15682
915.358	15660
915.47	15690
915.583	15625
915.696	15633
915.809	15759
915.921	15660
916.034	15557
916.146	15469
916.259	15412
916.371	15591
916.483	15606
916.595	15481
916.708	15405
916.82	15458
916.932	15321
917.044	15462
917.156	15393
917.268	15294
917.38	15283
917.491	15188
917.603	15348
917.715	15317
917.826	15424
917.938	15237
918.049	14982
918.161	15237
918.272	15249
918.384	15393
918.495	15192
918.606	14975
918.717	15020
918.828	15009
918.939	14910
919.05	14910
919.161	14971
919.272	14727
919.383	14902
919.494	14994
919.604	15154
919.715	14944
919.826	14891
919.936	14899
920.047	15043
920.157	14937
920.267	15207
920.378	15013
920.488	15009
920.598	15097
920.708	15306
920.818	15211
920.928	15123
921.038	15268
921.148	15218
921.258	15036
921.368	14849
921.477	14674
921.587	14727
921.697	14579
921.806	14693
921.916	14617
922.025	14438
922.134	14286
922.244	14370
922.353	14381
922.462	14176
922.571	14081
922.68	13963
922.789	13978
922.898	14016
923.007	14020
923.116	13967
923.224	13951
923.333	13940
923.442	13845
923.55	13662
923.659	13761
923.767	13795
923.876	13761
923.984	13803
924.092	13727
924.201	13674
924.309	13685
924.417	13757
924.525	13651
924.633	13559
924.741	14731
924.849	13476
924.956	13529
925.064	13407
925.172	13316
925.279	13339
925.387	13384
925.494	13419
925.602	13575
925.709	13419
925.816	13179
925.924	13282
926.031	13365
926.138	13285
926.245	13411
926.352	13213
926.459	13297
926.566	13350
926.673	13255
926.779	13072
926.886	13141
926.993	12993
927.099	12985
927.206	12928
927.312	12901
927.419	12993
927.525	12916
927.631	12996
927.737	12852
927.843	12715
927.95	12589
928.056	12677
928.162	12757
928.267	12795
928.373	13225
928.479	12840
928.585	12525
928.69	12665
928.796	12703
928.901	12532
929.007	12452
929.112	12536
929.218	12536
929.323	12414
929.428	12467
929.533	12631
929.638	12384
929.743	12433
929.848	12391
929.953	12437
930.058	12330
930.163	12121
930.267	12019
930.372	12243
930.477	12121
930.581	12315
930.685	12190
930.79	11969
930.894	11980
930.998	12003
931.103	12049
931.207	11729
931.311	11665
931.415	11592
931.519	11364
931.623	11349
