Data from test_V78500241_3127.txt Node
Date: Fri Mar 25 16:03:27 CST 2022
User: usil
Spectrometer: V785-0024
Trigger mode: 0
Integration Time (sec): 4.000000E-1
Scans to average: 1
Nonlinearity correction enabled: false
Boxcar width: 0
Storing dark spectrum: false
XAxis mode: Wavelengths
Number of Pixels in Spectrum: 1024
>>>>>Begin Spectral Data<<<<<
801.071	28999
801.214	28896
801.356	28618
801.499	28470
801.641	28466
801.783	28527
801.926	28478
802.068	28481
802.211	28417
802.353	28325
802.496	28074
802.638	28188
802.78	28242
802.923	28090
803.065	28055
803.208	28333
803.35	28158
803.492	28379
803.635	28344
803.777	28379
803.919	28432
804.061	28828
804.204	28470
804.346	28394
804.488	28303
804.63	28531
804.773	28428
804.915	28538
805.057	28489
805.199	28390
805.341	28474
805.483	28618
805.626	28390
805.768	28508
805.91	28694
806.052	28717
806.194	28375
806.336	28805
806.478	28618
806.62	28649
806.762	28778
806.904	28934
807.046	29212
807.188	29029
807.33	29140
807.472	29204
807.614	29029
807.756	29083
807.898	28957
808.04	28839
808.182	28873
808.324	28805
808.465	28885
808.607	29079
808.749	29254
808.891	29322
809.033	29448
809.174	29421
809.316	29235
809.458	29433
809.6	29189
809.741	29448
809.883	29326
810.025	29714
810.166	29554
810.308	29684
810.45	29448
810.591	29551
810.733	29486
810.875	29334
811.016	29269
811.158	29273
811.299	29520
811.441	29551
811.582	29493
811.724	29406
811.865	29258
812.007	29337
812.148	29516
812.29	29406
812.431	29653
812.573	29646
812.714	29939
812.855	29882
812.997	29866
813.138	30117
813.279	30018
813.421	29935
813.562	29809
813.703	29710
813.845	29535
813.986	29284
814.127	29208
814.268	29212
814.41	29090
814.551	29048
814.692	29185
814.833	28991
814.974	28991
815.115	29060
815.256	29014
815.397	29071
815.539	28828
815.68	28877
815.821	28694
815.962	28968
816.103	28892
816.244	28721
816.385	28778
816.526	28550
816.666	28413
816.807	28417
816.948	28394
817.089	28523
817.23	28333
817.371	28242
817.512	28314
817.653	28409
817.793	28356
817.934	28226
818.075	28382
818.216	28341
818.356	28337
818.497	28268
818.638	28185
818.778	28055
818.919	28207
819.06	28109
819.2	28303
819.341	28341
819.481	28421
819.622	28508
819.762	28801
819.903	28641
820.043	28622
820.184	28493
820.324	28508
820.465	28618
820.605	28531
820.746	28523
820.886	28401
821.026	28360
821.167	28459
821.307	28455
821.447	28489
821.588	28204
821.728	28093
821.868	27968
822.008	27895
822.149	27827
822.289	27979
822.429	27610
822.569	27656
822.709	27431
822.849	27427
822.99	27359
823.13	27340
823.27	27325
823.41	27245
823.55	27192
823.69	27249
823.83	27211
823.97	27131
824.11	27024
824.25	27009
824.389	26956
824.529	27192
824.669	27096
824.809	27104
824.949	27192
825.089	27036
825.228	27093
825.368	26857
825.508	26902
825.648	26921
825.787	26994
825.927	27047
826.067	26914
826.206	26933
826.346	27100
826.485	26982
826.625	26891
826.765	27135
826.904	27047
827.044	26697
827.183	26746
827.323	26590
827.462	26674
827.601	26640
827.741	26629
827.88	26655
828.02	26431
828.159	26640
828.298	26655
828.437	26693
828.577	26663
828.716	26773
828.855	26590
828.994	26358
829.134	26351
829.273	26377
829.412	26389
829.551	26278
829.69	26256
829.829	26358
829.968	26393
830.107	26404
830.246	26396
830.385	26183
830.524	26187
830.663	26130
830.802	25959
830.941	25898
831.08	25986
831.219	26027
831.357	26024
831.496	26252
831.635	25947
831.774	25814
831.913	25746
832.051	25731
832.19	25765
832.329	25791
832.467	25674
832.606	25552
832.744	25586
832.883	25662
833.022	25514
833.16	25651
833.299	25696
833.437	25731
833.576	25628
833.714	25578
833.852	25769
833.991	25772
834.129	25845
834.267	25693
834.406	25681
834.544	25639
834.682	25567
834.821	25647
834.959	25894
835.097	25518
835.235	25822
835.373	25605
835.511	25548
835.65	25373
835.788	25548
835.926	25430
836.064	25365
836.202	25301
836.34	25468
836.478	25472
836.615	25419
836.753	25601
836.891	25586
837.029	25563
837.167	25350
837.305	25335
837.443	25381
837.58	25232
837.718	25476
837.856	25381
837.993	25270
838.131	25354
838.269	25247
838.406	25194
838.544	25084
838.681	25019
838.819	24947
838.956	24757
839.094	24791
839.231	24806
839.369	24989
839.506	25244
839.643	24973
839.781	24829
839.918	24658
840.055	24661
840.193	24859
840.33	24715
840.467	24700
840.604	24700
840.742	24951
840.879	24528
841.016	24642
841.153	24525
841.29	24829
841.427	24757
841.564	24715
841.701	24631
841.838	24711
841.975	24422
842.112	24555
842.249	24532
842.385	24486
842.522	24677
842.659	24566
842.796	24502
842.933	24513
843.069	24300
843.206	24403
843.343	24429
843.479	24517
843.616	24429
843.752	24273
843.889	24273
844.025	24384
844.162	24216
844.298	24388
844.435	24163
844.571	24163
844.708	24315
844.844	24346
844.98	24460
845.117	24330
845.253	24110
845.389	24167
845.525	24125
845.661	24007
845.798	23859
845.934	24060
846.07	23893
846.206	23965
846.342	24060
846.478	23927
846.614	23695
846.75	23684
846.886	23623
847.022	23741
847.158	23813
847.294	23733
847.429	23657
847.565	23824
847.701	23847
847.837	23326
847.972	23398
848.108	23330
848.244	23414
848.379	23307
848.515	23261
848.65	23299
848.786	23372
848.921	23254
849.057	23406
849.192	23410
849.328	23326
849.463	23227
849.598	23216
849.734	23117
849.869	23113
850.004	22999
850.14	23014
850.275	23010
850.41	22938
850.545	23014
850.68	22965
850.815	23086
850.95	23105
851.085	23128
851.22	23220
851.355	23033
851.49	22934
851.625	23006
851.76	22968
851.895	22889
852.03	22984
852.165	22946
852.299	23003
852.434	23075
852.569	23022
852.703	22995
852.838	23124
852.973	23162
853.107	23041
853.242	23006
853.376	22858
853.511	22683
853.645	22862
853.78	22892
853.914	22835
854.048	22881
854.183	22862
854.317	22839
854.451	22984
854.585	22786
854.72	22923
854.854	22946
854.988	22858
855.122	22824
855.256	22778
855.39	22793
855.524	22858
855.658	22965
855.792	22816
855.926	22942
856.06	22843
856.194	23052
856.327	22892
856.461	22793
856.595	22869
856.729	22843
856.862	23006
856.996	22816
857.13	22885
857.263	23048
857.397	22923
857.53	22934
857.664	22927
857.797	22908
857.931	22854
858.064	22862
858.197	23052
858.331	22949
858.464	22820
858.597	22683
858.731	22801
858.864	22850
858.997	22820
859.13	22904
859.263	22987
859.396	22953
859.529	22786
859.662	22797
859.795	22835
859.928	22843
860.061	23037
860.194	23003
860.327	22976
860.46	22915
860.592	22980
860.725	22984
860.858	22942
860.99	22786
861.123	22782
861.256	22675
861.388	22927
861.521	23379
861.653	22752
861.786	22615
861.918	22664
862.05	22649
862.183	22710
862.315	22744
862.447	22835
862.58	22740
862.712	22675
862.844	22675
862.976	22698
863.108	22668
863.24	22965
863.372	22489
863.504	22531
863.636	22687
863.768	22596
863.9	22615
864.032	22554
864.164	22455
864.296	22447
864.428	22618
864.559	22569
864.691	22694
864.823	22596
864.954	22523
865.086	22508
865.217	22459
865.349	22322
865.48	22592
865.612	22504
865.743	22592
865.875	22405
866.006	22386
866.137	22531
866.269	22455
866.4	22459
866.531	22276
866.662	22341
866.793	22352
866.924	22325
867.055	22367
867.186	22379
867.317	22291
867.448	22299
867.579	22303
867.71	22238
867.841	22177
867.972	22390
868.103	22390
868.233	22432
868.364	22386
868.495	22569
868.625	22596
868.756	22721
868.886	22462
869.017	22664
869.147	22702
869.278	22660
869.408	22733
869.539	22672
869.669	22660
869.799	22618
869.929	22755
870.06	22767
870.19	22889
870.32	22725
870.45	23010
870.58	22923
870.71	23079
870.84	23029
870.97	22957
871.1	22930
871.23	23220
871.36	23200
871.489	23014
871.619	23121
871.749	23090
871.879	23170
872.008	23200
872.138	23086
872.267	23143
872.397	23037
872.526	22961
872.656	22965
872.785	22968
872.915	23258
873.044	23250
873.173	23197
873.303	23356
873.432	23326
873.561	23269
873.69	23273
873.819	23227
873.948	23292
874.077	23193
874.206	23212
874.335	23128
874.464	23353
874.593	23463
874.722	23448
874.851	23509
874.979	23414
875.108	23391
875.237	23425
875.365	23372
875.494	23296
875.623	23486
875.751	23353
875.88	23463
876.008	23661
876.136	23467
876.265	23840
876.393	23836
876.521	23908
876.65	23832
876.778	23798
876.906	23805
877.034	23630
877.162	23859
877.29	23684
877.418	23805
877.546	23733
877.674	23699
877.802	23809
877.93	23695
878.058	23733
878.185	23589
878.313	23722
878.441	23646
878.568	23627
878.696	23680
878.824	23630
878.951	23882
879.079	23920
879.206	24091
879.333	23855
879.461	23775
879.588	23885
879.715	23897
879.842	24136
879.97	23790
880.097	23558
880.224	23570
880.351	23554
880.478	23566
880.605	23429
880.732	23577
880.859	23779
880.986	23524
881.112	23562
881.239	23448
881.366	23379
881.493	23280
881.619	23193
881.746	23117
881.872	23166
881.999	23086
882.125	22938
882.252	23197
882.378	23067
882.505	23231
882.631	23048
882.757	22607
882.883	22892
883.01	22812
883.136	22744
883.262	22725
883.388	22592
883.514	22771
883.64	22877
883.766	22752
883.892	22607
884.018	22550
884.143	22710
884.269	22812
884.395	22596
884.52	22493
884.646	22470
884.772	22413
884.897	22299
885.023	22314
885.148	22538
885.274	22561
885.399	22417
885.524	22325
885.65	22481
885.775	22413
885.9	22440
886.025	22459
886.15	22474
886.275	22413
886.4	22360
886.525	22398
886.65	22371
886.775	22382
886.9	22538
887.025	22584
887.149	22386
887.274	22215
887.399	22131
887.523	22226
887.648	22135
887.773	22192
887.897	22265
888.021	22284
888.146	22188
888.27	22166
888.395	22257
888.519	22215
888.643	22204
888.767	22181
888.891	22078
889.015	21968
889.139	22040
889.263	21903
889.387	22044
889.511	22242
889.635	22021
889.759	21861
889.883	21846
890.006	21972
890.13	22082
890.254	21800
890.377	21888
890.501	21781
890.624	21698
890.748	21762
890.871	21603
890.995	21717
891.118	21393
891.241	21549
891.364	21549
891.488	21637
891.611	21576
891.734	21530
891.857	21545
891.98	21587
892.103	21557
892.226	21568
892.349	21485
892.471	21264
892.594	21351
892.717	21405
892.839	21454
892.962	21298
893.085	21420
893.207	21454
893.33	21382
893.452	21260
893.575	21519
893.697	21237
893.819	21572
893.941	21542
894.064	21583
894.186	21351
894.308	21332
894.43	21450
894.552	21511
894.674	21458
894.796	21272
894.918	21363
895.04	21283
895.161	21389
895.283	21412
895.405	21298
895.526	21317
895.648	21344
895.769	21336
895.891	21500
896.012	21340
896.134	21393
896.255	21408
896.376	21252
896.498	21367
896.619	21374
896.74	21336
896.861	21416
896.982	21751
897.103	21682
897.224	21690
897.345	21530
897.466	21523
897.587	21599
897.708	21705
897.828	21603
897.949	21428
898.07	21435
898.19	21534
898.311	21519
898.431	21466
898.552	21485
898.672	21633
898.792	21603
898.913	21572
899.033	21321
899.153	21325
899.273	21176
899.393	21317
899.513	21310
899.633	21252
899.753	21306
899.873	21241
899.993	21154
900.113	21142
900.232	21264
900.352	21249
900.472	21100
900.591	20952
900.711	20971
900.83	21074
900.95	21127
901.069	21131
901.189	20788
901.308	20663
901.427	20606
901.546	20716
901.665	20598
901.784	20484
901.904	20412
902.023	20381
902.141	20317
902.26	20092
902.379	20107
902.498	20149
902.617	20237
902.735	20210
902.854	20107
902.973	19974
903.091	19761
903.21	19871
903.328	19742
903.446	19609
903.565	19647
903.683	19582
903.801	19476
903.919	19495
904.038	19324
904.156	19331
904.274	19358
904.392	19213
904.51	19228
904.627	19304
904.745	19343
904.863	19419
904.981	19088
905.098	19008
905.216	18905
905.334	18878
905.451	18981
905.569	18973
905.686	18962
905.803	19015
905.921	18707
906.038	18890
906.155	18745
906.272	18612
906.389	18673
906.506	18403
906.623	18521
906.74	18509
906.857	18350
906.974	18506
907.091	18551
907.208	18597
907.324	18536
907.441	18448
907.557	18235
907.674	18251
907.79	18201
907.907	18213
908.023	18247
908.139	18262
908.256	18155
908.372	18178
908.488	18117
908.604	18030
908.72	17893
908.836	17980
908.952	17783
909.068	17920
909.184	17969
909.3	17954
909.415	17798
909.531	17961
909.647	17687
909.762	17646
909.878	17699
909.993	17570
910.108	17512
910.224	17596
910.339	17619
910.454	17551
910.57	17490
910.685	17334
910.8	17619
910.915	17630
911.03	17440
911.145	17178
911.259	17147
911.374	17223
911.489	17166
911.604	17018
911.718	17033
911.833	16953
911.947	16828
912.062	16736
912.176	16946
912.291	16919
912.405	17041
912.519	17079
912.633	17147
912.748	16885
912.862	16866
912.976	16828
913.09	16611
913.204	16744
913.318	16660
913.431	16854
913.545	16820
913.659	16980
913.772	16660
913.886	16519
914	16615
914.113	16634
914.226	16554
914.34	16618
914.453	16451
914.566	16489
914.68	16447
914.793	16375
914.906	16162
915.019	16147
915.132	16090
915.245	16044
915.358	16010
915.47	16082
915.583	16032
915.696	16105
915.809	16265
915.921	16329
916.034	16051
916.146	16040
916.259	16025
916.371	16101
916.483	16029
916.595	15922
916.708	15865
916.82	15915
916.932	15983
917.044	15926
917.156	15880
917.268	15717
917.38	15781
917.491	15663
917.603	15667
917.715	15641
917.826	15842
917.938	15698
918.049	15542
918.161	15690
918.272	15774
918.384	15701
918.495	15679
918.606	15485
918.717	15431
918.828	15492
918.939	15496
919.05	15435
919.161	15424
919.272	15214
919.383	15348
919.494	15587
919.604	15656
919.715	15393
919.826	15348
919.936	15420
920.047	15424
920.157	15408
920.267	15557
920.378	15458
920.488	15367
920.598	15610
920.708	15720
920.818	15568
920.928	15572
921.038	15690
921.148	15641
921.258	15298
921.368	15321
921.477	15108
921.587	15085
921.697	14914
921.806	15070
921.916	14914
922.025	14750
922.134	14830
922.244	14735
922.353	14773
922.462	14556
922.571	14480
922.68	14393
922.789	14370
922.898	14377
923.007	14298
923.116	14377
923.224	14313
923.333	14370
923.442	14195
923.55	14199
923.659	14271
923.767	14263
923.876	14206
923.984	14248
924.092	13967
924.201	14126
924.309	14081
924.417	14172
924.525	14092
924.633	13993
924.741	14861
924.849	13784
924.956	13860
925.064	13693
925.172	13696
925.279	13784
925.387	13788
925.494	13738
925.602	13883
925.709	13807
925.816	13715
925.924	13658
926.031	13769
926.138	13639
926.245	13826
926.352	13563
926.459	13613
926.566	13643
926.673	13529
926.779	13499
926.886	13438
926.993	13346
927.099	13259
927.206	13266
927.312	13244
927.419	13293
927.525	13225
927.631	13369
927.737	13122
927.843	13095
927.95	13080
928.056	12996
928.162	13015
928.267	13126
928.373	13731
928.479	13038
928.585	12935
928.69	13031
928.796	13057
928.901	12935
929.007	12726
929.112	12821
929.218	12867
929.323	12867
929.428	12795
929.533	12871
929.638	12764
929.743	12738
929.848	12814
929.953	12711
930.058	12525
930.163	12456
930.267	12483
930.372	12620
930.477	12346
930.581	12563
930.685	12502
930.79	12315
930.894	12273
930.998	12319
931.103	12334
931.207	12102
931.311	12106
931.415	11878
931.519	11714
931.623	11665
