Data from test_V78500241_1153.txt Node
Date: Fri Mar 25 15:49:47 CST 2022
User: usil
Spectrometer: V785-0024
Trigger mode: 0
Integration Time (sec): 4.000000E-1
Scans to average: 1
Nonlinearity correction enabled: false
Boxcar width: 0
Storing dark spectrum: false
XAxis mode: Wavelengths
Number of Pixels in Spectrum: 1024
>>>>>Begin Spectral Data<<<<<
801.071	28767
801.214	28687
801.356	28337
801.499	28299
801.641	28211
801.783	28181
801.926	28185
802.068	28200
802.211	28074
802.353	28158
802.496	27892
802.638	27903
802.78	27907
802.923	27789
803.065	27838
803.208	27819
803.35	27964
803.492	28051
803.635	27937
803.777	28025
803.919	28131
804.061	28329
804.204	28090
804.346	28025
804.488	27895
804.63	28116
804.773	28051
804.915	28166
805.057	28265
805.199	28211
805.341	28124
805.483	28318
805.626	28249
805.768	28333
805.91	28265
806.052	28215
806.194	28177
806.336	28360
806.478	28322
806.62	28352
806.762	28390
806.904	28538
807.046	28812
807.188	28771
807.33	28748
807.472	28679
807.614	28748
807.756	28736
807.898	28668
808.04	28588
808.182	28538
808.324	28599
808.465	28569
808.607	28824
808.749	29018
808.891	29056
809.033	29071
809.174	29185
809.316	28984
809.458	28968
809.6	28873
809.741	29121
809.883	29102
810.025	29288
810.166	29296
810.308	29353
810.45	29246
810.591	29231
810.733	29151
810.875	28957
811.016	28972
811.158	28828
811.299	29090
811.441	29147
811.582	29166
811.724	29003
811.865	28976
812.007	28965
812.148	29067
812.29	28965
812.431	29231
812.573	29296
812.714	29417
812.855	29528
812.997	29589
813.138	29707
813.279	29691
813.421	29535
813.562	29436
813.703	29372
813.845	29280
813.986	28984
814.127	28831
814.268	28618
814.41	28733
814.551	28733
814.692	28733
814.833	28641
814.974	28698
815.115	28725
815.256	28694
815.397	28535
815.539	28626
815.68	28500
815.821	28557
815.962	28417
816.103	28523
816.244	28322
816.385	28226
816.526	28268
816.666	27975
816.807	28097
816.948	28139
817.089	28067
817.23	28097
817.371	28116
817.512	27975
817.653	27968
817.793	27979
817.934	28101
818.075	28078
818.216	28150
818.356	27941
818.497	27991
818.638	27827
818.778	27804
818.919	27781
819.06	27850
819.2	27953
819.341	28128
819.481	28032
819.622	28120
819.762	28489
819.903	28375
820.043	28135
820.184	28204
820.324	28093
820.465	28162
820.605	28181
820.746	28116
820.886	28025
821.026	28135
821.167	28109
821.307	28173
821.447	28101
821.588	28010
821.728	27816
821.868	27816
822.008	27564
822.149	27473
822.289	27557
822.429	27313
822.569	27218
822.709	27294
822.849	27039
822.99	27112
823.13	26990
823.27	27074
823.41	26925
823.55	26773
823.69	26956
823.83	27036
823.97	26769
824.11	26613
824.25	26648
824.389	26651
824.529	26815
824.669	26678
824.809	26746
824.949	26743
825.089	26861
825.228	26743
825.368	26693
825.508	26476
825.648	26621
825.787	26476
825.927	26689
826.067	26644
826.206	26564
826.346	26587
826.485	26724
826.625	26514
826.765	26849
826.904	26606
827.044	26423
827.183	26393
827.323	26400
827.462	26328
827.601	26244
827.741	26355
827.88	26415
828.02	26218
828.159	26248
828.298	26275
828.437	26347
828.577	26358
828.716	26339
828.855	26084
828.994	26103
829.134	25947
829.273	26134
829.412	25970
829.551	25955
829.69	25887
829.829	25936
829.968	25978
830.107	26111
830.246	25928
830.385	25852
830.524	25940
830.663	25822
830.802	25734
830.941	25590
831.08	25597
831.219	25624
831.357	25712
831.496	25723
831.635	25674
831.774	25495
831.913	25422
832.051	25472
832.19	25468
832.329	25430
832.467	25312
832.606	25259
832.744	25187
832.883	25251
833.022	25293
833.16	25187
833.299	25343
833.437	25354
833.576	25381
833.714	25445
833.852	25468
833.991	25392
834.129	25468
834.267	25472
834.406	25343
834.544	25430
834.682	25278
834.821	25247
834.959	25563
835.097	25266
835.235	25362
835.373	25209
835.511	25327
835.65	25065
835.788	25190
835.926	24897
836.064	24909
836.202	24973
836.34	25099
836.478	25107
836.615	25095
836.753	25065
836.891	25183
837.029	25240
837.167	25129
837.305	25099
837.443	25076
837.58	24920
837.718	25046
837.856	24973
837.993	24901
838.131	25015
838.269	24802
838.406	24852
838.544	24821
838.681	24753
838.819	24585
838.956	24521
839.094	24410
839.231	24479
839.369	24616
839.506	24825
839.643	24817
839.781	24437
839.918	24429
840.055	24505
840.193	24574
840.33	24502
840.467	24399
840.604	24437
840.742	24547
840.879	24369
841.016	24251
841.153	24277
841.29	24460
841.427	24376
841.564	24292
841.701	24311
841.838	24296
841.975	24205
842.112	24186
842.249	24155
842.385	24045
842.522	24315
842.659	24144
842.796	24194
842.933	24136
843.069	24114
843.206	24068
843.343	24140
843.479	24026
843.616	24140
843.752	23878
843.889	23882
844.025	24045
844.162	23893
844.298	23969
844.435	23885
844.571	23798
844.708	23832
844.844	24152
844.98	24060
845.117	23958
845.253	23863
845.389	23836
845.525	23798
845.661	23802
845.798	23551
845.934	23672
846.07	23604
846.206	23528
846.342	23771
846.478	23604
846.614	23364
846.75	23372
846.886	23330
847.022	23433
847.158	23273
847.294	23246
847.429	23280
847.565	23296
847.701	23608
847.837	23159
847.972	23075
848.108	23178
848.244	23060
848.379	23060
848.515	22911
848.65	22850
848.786	22904
848.921	22889
849.057	22984
849.192	22938
849.328	22946
849.463	22828
849.598	22866
849.734	22866
849.869	22736
850.004	22740
850.14	22812
850.275	22542
850.41	22550
850.545	22630
850.68	22630
850.815	22656
850.95	22687
851.085	22725
851.22	22809
851.355	22771
851.49	22664
851.625	22641
851.76	22561
851.895	22759
852.03	22592
852.165	22702
852.299	22816
852.434	22782
852.569	22561
852.703	22729
852.838	22736
852.973	22831
853.107	22923
853.242	22675
853.376	22531
853.511	22344
853.645	22421
853.78	22596
853.914	22489
854.048	22459
854.183	22413
854.317	22504
854.451	22752
854.585	22348
854.72	22535
854.854	22603
854.988	22390
855.122	22451
855.256	22428
855.39	22542
855.524	22519
855.658	22527
855.792	22485
855.926	22481
856.06	22565
856.194	22554
856.327	22489
856.461	22451
856.595	22489
856.729	22421
856.862	22618
856.996	22603
857.13	22466
857.263	22584
857.397	22615
857.53	22531
857.664	22489
857.797	22573
857.931	22557
858.064	22470
858.197	22630
858.331	22394
858.464	22443
858.597	22516
858.731	22497
858.864	22394
858.997	22455
859.13	22470
859.263	22466
859.396	22561
859.529	22485
859.662	22363
859.795	22462
859.928	22470
860.061	22618
860.194	22869
860.327	22580
860.46	22596
860.592	22615
860.725	22797
860.858	22626
860.99	22599
861.123	22371
861.256	22470
861.388	22489
861.521	23204
861.653	22314
861.786	22337
861.918	22265
862.05	22481
862.183	22379
862.315	22455
862.447	22436
862.58	22382
862.712	22310
862.844	22211
862.976	22287
863.108	22238
863.24	22763
863.372	22112
863.504	22249
863.636	22181
863.768	22112
863.9	22116
864.032	22010
864.164	22093
864.296	22131
864.428	22405
864.559	22230
864.691	22207
864.823	22230
864.954	22322
865.086	22211
865.217	22109
865.349	21998
865.48	22078
865.612	22173
865.743	22226
865.875	22048
866.006	21960
866.137	21994
866.269	21964
866.4	22036
866.531	22040
866.662	21953
866.793	22173
866.924	21915
867.055	22036
867.186	22025
867.317	21907
867.448	21937
867.579	21876
867.71	22067
867.841	21911
867.972	22051
868.103	21915
868.233	22086
868.364	21972
868.495	21945
868.625	22158
868.756	22314
868.886	22147
869.017	22268
869.147	22375
869.278	22371
869.408	22257
869.539	22253
869.669	22371
869.799	22276
869.929	22314
870.06	22386
870.19	22531
870.32	22668
870.45	22603
870.58	22577
870.71	22702
870.84	22736
870.97	22508
871.1	22740
871.23	22778
871.36	22767
871.489	22805
871.619	22778
871.749	22999
871.879	22831
872.008	22843
872.138	22930
872.267	22759
872.397	22675
872.526	22660
872.656	22653
872.785	22611
872.915	22942
873.044	23022
873.173	22938
873.303	22896
873.432	22873
873.561	23022
873.69	22824
873.819	22995
873.948	22885
874.077	22873
874.206	22740
874.335	22881
874.464	22965
874.593	22991
874.722	23029
874.851	23048
874.979	23128
875.108	23136
875.237	23037
875.365	22862
875.494	22919
875.623	23136
875.751	22972
875.88	23075
876.008	23296
876.136	23273
876.265	23474
876.393	23512
876.521	23531
876.65	23512
876.778	23406
876.906	23455
877.034	23337
877.162	23395
877.29	23299
877.418	23414
877.546	23360
877.674	23455
877.802	23250
877.93	23330
878.058	23421
878.185	23220
878.313	23383
878.441	23299
878.568	23296
878.696	23440
878.824	23482
878.951	23391
879.079	23600
879.206	23805
879.333	23539
879.461	23356
879.588	23452
879.715	23668
879.842	23619
879.97	23406
880.097	23197
880.224	23208
880.351	23284
880.478	23250
880.605	23132
880.732	23159
880.859	23455
880.986	23330
881.112	23208
881.239	23086
881.366	22946
881.493	22873
881.619	22767
881.746	22778
881.872	22793
881.999	22660
882.125	22637
882.252	22793
882.378	22683
882.505	22805
882.631	22569
882.757	22577
882.883	22535
883.01	22561
883.136	22428
883.262	22329
883.388	22291
883.514	22455
883.64	22447
883.766	22337
883.892	22265
884.018	22348
884.143	22447
884.269	22550
884.395	22128
884.52	22147
884.646	22090
884.772	22029
884.897	22025
885.023	22150
885.148	22226
885.274	22166
885.399	22147
885.524	22055
885.65	22158
885.775	22029
885.9	22025
886.025	22200
886.15	22086
886.275	22059
886.4	21987
886.525	22070
886.65	21972
886.775	21915
886.9	22116
887.025	22310
887.149	22070
887.274	21915
887.399	21850
887.523	21838
887.648	21778
887.773	21800
887.897	21854
888.021	21892
888.146	21778
888.27	21850
888.395	21736
888.519	21797
888.643	21850
888.767	21903
888.891	21747
889.015	21610
889.139	21717
889.263	21705
889.387	21724
889.511	21846
889.635	21766
889.759	21534
889.883	21542
890.006	21667
890.13	21682
890.254	21637
890.377	21637
890.501	21393
890.624	21348
890.748	21428
890.871	21275
890.995	21047
891.118	21176
891.241	21233
891.364	21214
891.488	21294
891.611	21161
891.734	21195
891.857	21161
891.98	21268
892.103	21192
892.226	21192
892.349	21100
892.471	20979
892.594	21104
892.717	21081
892.839	21020
892.962	21085
893.085	21142
893.207	21017
893.33	20887
893.452	20941
893.575	21058
893.697	21001
893.819	21154
893.941	21207
894.064	21245
894.186	21104
894.308	21066
894.43	21066
894.552	21157
894.674	21062
894.796	21062
894.918	21070
895.04	21055
895.161	21055
895.283	21058
895.405	20830
895.526	20971
895.648	21039
895.769	21135
895.891	21066
896.012	21157
896.134	21096
896.255	21066
896.376	21127
896.498	20914
896.619	21009
896.74	21096
896.861	21081
896.982	21393
897.103	21405
897.224	21218
897.345	21214
897.466	21081
897.587	21336
897.708	21344
897.828	21325
897.949	21127
898.07	21089
898.19	21249
898.311	21374
898.431	21123
898.552	21291
898.672	21260
898.792	21184
898.913	21310
899.033	21142
899.153	21119
899.273	20910
899.393	20910
899.513	21142
899.633	20899
899.753	20918
899.873	20868
899.993	20979
900.113	20868
900.232	21036
900.352	20921
900.472	20849
900.591	20621
900.711	20746
900.83	20731
900.95	20727
901.069	20765
901.189	20560
901.308	20419
901.427	20267
901.546	20271
901.665	20328
901.784	20229
901.904	20138
902.023	20046
902.141	19860
902.26	19879
902.379	19959
902.498	19742
902.617	19826
902.735	19830
902.854	19742
902.973	19731
903.091	19430
903.21	19346
903.328	19487
903.446	19324
903.565	19327
903.683	19388
903.801	19228
903.919	19160
904.038	19156
904.156	19061
904.274	19072
904.392	18947
904.51	19015
904.627	19019
904.745	19084
904.863	19004
904.981	18772
905.098	18715
905.216	18642
905.334	18806
905.451	18795
905.569	18677
905.686	18738
905.803	18681
905.921	18456
906.038	18589
906.155	18471
906.272	18414
906.389	18407
906.506	18243
906.623	18213
906.74	18186
906.857	18163
906.974	18083
907.091	18281
907.208	18384
907.324	18197
907.441	18163
907.557	17870
907.674	17992
907.79	17916
907.907	17824
908.023	17996
908.139	17901
908.256	17916
908.372	17893
908.488	17859
908.604	17646
908.72	17619
908.836	17657
908.952	17611
909.068	17646
909.184	17741
909.3	17611
909.415	17615
909.531	17611
909.647	17459
909.762	17417
909.878	17235
909.993	17383
910.108	17315
910.224	17296
910.339	17292
910.454	17159
910.57	17200
910.685	17109
910.8	17360
910.915	17277
911.03	17105
911.145	16972
911.259	16873
911.374	16987
911.489	16953
911.604	16774
911.718	16687
911.833	16653
911.947	16542
912.062	16508
912.176	16733
912.291	16702
912.405	16656
912.519	16831
912.633	16755
912.748	16687
912.862	16626
912.976	16554
913.09	16325
913.204	16363
913.318	16455
913.431	16436
913.545	16455
913.659	16558
913.772	16516
913.886	16360
914	16280
914.113	16367
914.226	16356
914.34	16310
914.453	16116
914.566	16306
914.68	16154
914.793	16166
914.906	15949
915.019	15762
915.132	15808
915.245	15922
915.358	15831
915.47	15804
915.583	15884
915.696	15869
915.809	15960
915.921	15960
916.034	15675
916.146	15812
916.259	15682
916.371	15785
916.483	15789
916.595	15770
916.708	15599
916.82	15652
916.932	15713
917.044	15671
917.156	15595
917.268	15507
917.38	15606
917.491	15485
917.603	15500
917.715	15488
917.826	15523
917.938	15435
918.049	15279
918.161	15313
918.272	15591
918.384	15507
918.495	15332
918.606	15230
918.717	15173
918.828	15207
918.939	15138
919.05	15233
919.161	15013
919.272	14971
919.383	15047
919.494	15272
919.604	15393
919.715	15226
919.826	15100
919.936	15184
920.047	15291
920.157	15192
920.267	15344
920.378	15119
920.488	15207
920.598	15291
920.708	15435
920.818	15306
920.928	15359
921.038	15458
921.148	15386
921.258	15150
921.368	14967
921.477	14887
921.587	14910
921.697	14720
921.806	14864
921.916	14739
922.025	14712
922.134	14495
922.244	14461
922.353	14621
922.462	14442
922.571	14324
922.68	14263
922.789	14100
922.898	14187
923.007	14157
923.116	14202
923.224	14077
923.333	14062
923.442	14046
923.55	13921
923.659	13959
923.767	14043
923.876	13986
923.984	13940
924.092	13780
924.201	13841
924.309	13909
924.417	13841
924.525	13814
924.633	13780
924.741	14518
924.849	13677
924.956	13769
925.064	13696
925.172	13480
925.279	13594
925.387	13590
925.494	13544
925.602	13643
925.709	13586
925.816	13358
925.924	13472
926.031	13499
926.138	13514
926.245	13529
926.352	13377
926.459	13403
926.566	13483
926.673	13403
926.779	13331
926.886	13251
926.993	13069
927.099	13118
927.206	13095
927.312	12973
927.419	13133
927.525	13133
927.631	13042
927.737	13023
927.843	12878
927.95	12806
928.056	12878
928.162	12890
928.267	12928
928.373	13552
928.479	12977
928.585	12707
928.69	12886
928.796	12916
928.901	12738
929.007	12532
929.112	12741
929.218	12764
929.323	12578
929.428	12620
929.533	12745
929.638	12555
929.743	12574
929.848	12521
929.953	12498
930.058	12410
930.163	12266
930.267	12300
930.372	12410
930.477	12289
930.581	12490
930.685	12315
930.79	12197
930.894	12209
930.998	12197
931.103	12338
931.207	11817
931.311	11821
931.415	11714
931.519	11505
931.623	11478
