Data from test_V78500241_2908.txt Node
Date: Fri Mar 25 16:01:56 CST 2022
User: usil
Spectrometer: V785-0024
Trigger mode: 0
Integration Time (sec): 4.000000E-1
Scans to average: 1
Nonlinearity correction enabled: false
Boxcar width: 0
Storing dark spectrum: false
XAxis mode: Wavelengths
Number of Pixels in Spectrum: 1024
>>>>>Begin Spectral Data<<<<<
801.071	28744
801.214	28577
801.356	28401
801.499	28348
801.641	28268
801.783	28128
801.926	28192
802.068	28219
802.211	28063
802.353	28105
802.496	27895
802.638	27892
802.78	27854
802.923	27774
803.065	27793
803.208	27823
803.35	27739
803.492	27972
803.635	28097
803.777	28036
803.919	28109
804.061	28303
804.204	27987
804.346	28120
804.488	28090
804.63	28078
804.773	27960
804.915	28226
805.057	28192
805.199	28147
805.341	28238
805.483	28390
805.626	28249
805.768	28192
805.91	28181
806.052	28306
806.194	28280
806.336	28348
806.478	28421
806.62	28375
806.762	28257
806.904	28409
807.046	28888
807.188	28694
807.33	28683
807.472	28706
807.614	28812
807.756	28786
807.898	28531
808.04	28535
808.182	28573
808.324	28675
808.465	28603
808.607	28752
808.749	29014
808.891	29067
809.033	29113
809.174	29060
809.316	28938
809.458	29136
809.6	28869
809.741	29003
809.883	29044
810.025	29307
810.166	29261
810.308	29227
810.45	29178
810.591	29033
810.733	28968
810.875	29022
811.016	28923
811.158	28915
811.299	28999
811.441	29212
811.582	29025
811.724	28911
811.865	28942
812.007	29018
812.148	28965
812.29	29155
812.431	29181
812.573	29254
812.714	29341
812.855	29520
812.997	29615
813.138	29790
813.279	29551
813.421	29395
813.562	29349
813.703	29318
813.845	29185
813.986	28946
814.127	28923
814.268	28656
814.41	28710
814.551	28565
814.692	28790
814.833	28561
814.974	28592
815.115	28729
815.256	28527
815.397	28554
815.539	28409
815.68	28554
815.821	28306
815.962	28580
816.103	28493
816.244	28314
816.385	28196
816.526	28188
816.666	28025
816.807	28025
816.948	27975
817.089	28017
817.23	28116
817.371	28063
817.512	27903
817.653	27797
817.793	27903
817.934	28055
818.075	27972
818.216	28021
818.356	27926
818.497	27914
818.638	27876
818.778	27808
818.919	27861
819.06	27778
819.2	27949
819.341	27956
819.481	27934
819.622	28181
819.762	28314
819.903	28287
820.043	28196
820.184	28181
820.324	28154
820.465	27972
820.605	28147
820.746	28120
820.886	27914
821.026	27994
821.167	28086
821.307	28082
821.447	28010
821.588	27865
821.728	27770
821.868	27667
822.008	27473
822.149	27443
822.289	27477
822.429	27249
822.569	27161
822.709	27085
822.849	27013
822.99	26990
823.13	27093
823.27	26944
823.41	26815
823.55	26644
823.69	26785
823.83	26762
823.97	26629
824.11	26629
824.25	26579
824.389	26689
824.529	26644
824.669	26587
824.809	26800
824.949	26705
825.089	26708
825.228	26686
825.368	26408
825.508	26503
825.648	26503
825.787	26438
825.927	26625
826.067	26465
826.206	26393
826.346	26636
826.485	26522
826.625	26583
826.765	26541
826.904	26735
827.044	26218
827.183	26290
827.323	26138
827.462	26419
827.601	26336
827.741	26214
827.88	26351
828.02	26134
828.159	26168
828.298	26168
828.437	26206
828.577	26122
828.716	26400
828.855	26161
828.994	25887
829.134	25951
829.273	25906
829.412	25856
829.551	25788
829.69	25868
829.829	25856
829.968	26005
830.107	25845
830.246	25955
830.385	25925
830.524	25826
830.663	25708
830.802	25495
830.941	25578
831.08	25411
831.219	25586
831.357	25628
831.496	25670
831.635	25483
831.774	25438
831.913	25358
832.051	25350
832.19	25327
832.329	25354
832.467	25293
832.606	25247
832.744	25274
832.883	25088
833.022	25274
833.16	25236
833.299	25308
833.437	25331
833.576	25327
833.714	25255
833.852	25221
833.991	25331
834.129	25335
834.267	25350
834.406	25236
834.544	25358
834.682	25422
834.821	25297
834.959	25331
835.097	25377
835.235	25282
835.373	25175
835.511	25316
835.65	25019
835.788	25156
835.926	24958
836.064	24863
836.202	25050
836.34	25145
836.478	25152
836.615	24996
836.753	25076
836.891	25110
837.029	25057
837.167	25057
837.305	24981
837.443	24935
837.58	24871
837.718	24954
837.856	24939
837.993	24772
838.131	24928
838.269	24749
838.406	24924
838.544	24779
838.681	24745
838.819	24574
838.956	24338
839.094	24372
839.231	24509
839.369	24555
839.506	24779
839.643	24654
839.781	24342
839.918	24445
840.055	24395
840.193	24376
840.33	24251
840.467	24273
840.604	24232
840.742	24498
840.879	24083
841.016	24235
841.153	24178
841.29	24258
841.427	24270
841.564	24273
841.701	24308
841.838	24186
841.975	24155
842.112	24152
842.249	24159
842.385	23950
842.522	24110
842.659	24121
842.796	24045
842.933	24079
843.069	24038
843.206	24133
843.343	24053
843.479	24106
843.616	24178
843.752	23882
843.889	23882
844.025	23904
844.162	23828
844.298	23935
844.435	23786
844.571	23798
844.708	23680
844.844	24091
844.98	23912
845.117	23980
845.253	23882
845.389	23653
845.525	23733
845.661	23767
845.798	23414
845.934	23539
846.07	23509
846.206	23516
846.342	23642
846.478	23592
846.614	23311
846.75	23231
846.886	23212
847.022	23292
847.158	23360
847.294	23307
847.429	23235
847.565	23136
847.701	23505
847.837	23052
847.972	22919
848.108	23200
848.244	23083
848.379	22965
848.515	22881
848.65	22896
848.786	22763
848.921	22824
849.057	22908
849.192	22991
849.328	23003
849.463	22854
849.598	22984
849.734	22767
849.869	22710
850.004	22691
850.14	22512
850.275	22637
850.41	22489
850.545	22497
850.68	22565
850.815	22702
850.95	22649
851.085	22778
851.22	22733
851.355	22630
851.49	22679
851.625	22542
851.76	22630
851.895	22542
852.03	22535
852.165	22683
852.299	22637
852.434	22656
852.569	22748
852.703	22675
852.838	22664
852.973	22755
853.107	22866
853.242	22561
853.376	22314
853.511	22386
853.645	22303
853.78	22618
853.914	22432
854.048	22405
854.183	22314
854.317	22455
854.451	22561
854.585	22546
854.72	22424
854.854	22538
854.988	22325
855.122	22588
855.256	22314
855.39	22371
855.524	22436
855.658	22577
855.792	22478
855.926	22443
856.06	22462
856.194	22504
856.327	22386
856.461	22421
856.595	22371
856.729	22428
856.862	22508
856.996	22508
857.13	22634
857.263	22618
857.397	22459
857.53	22485
857.664	22531
857.797	22519
857.931	22474
858.064	22493
858.197	22489
858.331	22379
858.464	22424
858.597	22329
858.731	22569
858.864	22322
858.997	22409
859.13	22360
859.263	22443
859.396	22565
859.529	22489
859.662	22409
859.795	22337
859.928	22428
860.061	22675
860.194	22622
860.327	22603
860.46	22443
860.592	22565
860.725	22615
860.858	22664
860.99	22398
861.123	22291
861.256	22402
861.388	22443
861.521	23284
861.653	22329
861.786	22242
861.918	22284
862.05	22310
862.183	22272
862.315	22303
862.447	22447
862.58	22253
862.712	22211
862.844	21998
862.976	22314
863.108	22265
863.24	22500
863.372	22078
863.504	22268
863.636	22105
863.768	22154
863.9	22150
864.032	22211
864.164	22158
864.296	22219
864.428	22211
864.559	22322
864.691	22120
864.823	22059
864.954	22086
865.086	22128
865.217	22017
865.349	21998
865.48	22086
865.612	21998
865.743	22150
865.875	22086
866.006	21835
866.137	21987
866.269	22166
866.4	22006
866.531	21960
866.662	21941
866.793	21949
866.924	22063
867.055	22086
867.186	21895
867.317	21930
867.448	21827
867.579	21789
867.71	21907
867.841	21907
867.972	21968
868.103	21991
868.233	21964
868.364	21941
868.495	22135
868.625	22230
868.756	22242
868.886	22131
869.017	22204
869.147	22246
869.278	22348
869.408	22284
869.539	22158
869.669	22246
869.799	22341
869.929	22333
870.06	22246
870.19	22481
870.32	22455
870.45	22557
870.58	22569
870.71	22805
870.84	22866
870.97	22603
871.1	22637
871.23	22858
871.36	22767
871.489	22668
871.619	22847
871.749	22847
871.879	22793
872.008	22847
872.138	22862
872.267	22831
872.397	22744
872.526	22721
872.656	22653
872.785	22664
872.915	22786
873.044	22946
873.173	22744
873.303	22934
873.432	22919
873.561	22866
873.69	22790
873.819	22713
873.948	22847
874.077	22866
874.206	22733
874.335	22892
874.464	22946
874.593	23025
874.722	22991
874.851	22999
874.979	23003
875.108	23132
875.237	22911
875.365	22858
875.494	23044
875.623	23159
875.751	22949
875.88	23090
876.008	23166
876.136	23086
876.265	23421
876.393	23486
876.521	23505
876.65	23471
876.778	23387
876.906	23379
877.034	23372
877.162	23315
877.29	23395
877.418	23299
877.546	23337
877.674	23459
877.802	23471
877.93	23436
878.058	23280
878.185	23242
878.313	23349
878.441	23452
878.568	23189
878.696	23322
878.824	23463
878.951	23341
879.079	23566
879.206	23668
879.333	23478
879.461	23429
879.588	23463
879.715	23573
879.842	23684
879.97	23372
880.097	23364
880.224	23197
880.351	23250
880.478	23227
880.605	23117
880.732	23216
880.859	23543
880.986	23239
881.112	23239
881.239	23071
881.366	22839
881.493	22763
881.619	22839
881.746	22767
881.872	22752
881.999	22702
882.125	22729
882.252	22767
882.378	22824
882.505	22824
882.631	22599
882.757	22451
882.883	22554
883.01	22341
883.136	22348
883.262	22246
883.388	22341
883.514	22462
883.64	22455
883.766	22360
883.892	22181
884.018	22238
884.143	22348
884.269	22512
884.395	22207
884.52	22017
884.646	22078
884.772	21983
884.897	21922
885.023	22036
885.148	22185
885.274	22204
885.399	22192
885.524	22055
885.65	22158
885.775	22055
885.9	22078
886.025	22139
886.15	22215
886.275	21907
886.4	21941
886.525	22044
886.65	21922
886.775	21945
886.9	22166
887.025	22204
887.149	21968
887.274	21888
887.399	21823
887.523	21903
887.648	21816
887.773	21736
887.897	21842
888.021	21869
888.146	21641
888.27	21854
888.395	21956
888.519	21880
888.643	21842
888.767	21785
888.891	21644
889.015	21682
889.139	21599
889.263	21576
889.387	21732
889.511	21903
889.635	21637
889.759	21553
889.883	21477
890.006	21656
890.13	21755
890.254	21561
890.377	21488
890.501	21329
890.624	21325
890.748	21408
890.871	21317
890.995	21142
891.118	21028
891.241	21192
891.364	21081
891.488	21207
891.611	21051
891.734	21218
891.857	21222
891.98	21135
892.103	21298
892.226	21165
892.349	21150
892.471	20891
892.594	21123
892.717	21055
892.839	21169
892.962	21161
893.085	21081
893.207	21108
893.33	20876
893.452	21051
893.575	21108
893.697	20899
893.819	21131
893.941	21237
894.064	21085
894.186	21055
894.308	20910
894.43	21104
894.552	21058
894.674	21135
894.796	20986
894.918	21024
895.04	20979
895.161	21077
895.283	21093
895.405	20933
895.526	21093
895.648	21005
895.769	21043
895.891	21051
896.012	21116
896.134	21047
896.255	20967
896.376	21093
896.498	21036
896.619	21024
896.74	20979
896.861	21112
896.982	21252
897.103	21572
897.224	21332
897.345	21287
897.466	21211
897.587	21249
897.708	21466
897.828	21272
897.949	21287
898.07	21013
898.19	21173
898.311	21211
898.431	21116
898.552	21245
898.672	21310
898.792	21306
898.913	21272
899.033	21169
899.153	21009
899.273	20967
899.393	21039
899.513	21081
899.633	21055
899.753	20982
899.873	20891
899.993	20895
900.113	20906
900.232	21020
900.352	20918
900.472	20823
900.591	20777
900.711	20754
900.83	20659
900.95	20750
901.069	20849
901.189	20640
901.308	20473
901.427	20275
901.546	20233
901.665	20294
901.784	20301
901.904	20298
902.023	20073
902.141	19963
902.26	19875
902.379	19818
902.498	19727
902.617	19708
902.735	19818
902.854	19727
902.973	19814
903.091	19411
903.21	19480
903.328	19544
903.446	19468
903.565	19350
903.683	19297
903.801	19213
903.919	19126
904.038	19247
904.156	19072
904.274	19023
904.392	19031
904.51	19012
904.627	19027
904.745	19107
904.863	19168
904.981	18875
905.098	18658
905.216	18734
905.334	18665
905.451	18715
905.569	18817
905.686	18753
905.803	18707
905.921	18574
906.038	18551
906.155	18597
906.272	18350
906.389	18327
906.506	18266
906.623	18095
906.74	18186
906.857	18167
906.974	18087
907.091	18262
907.208	18361
907.324	18304
907.441	18174
907.557	17999
907.674	17874
907.79	17897
907.907	17863
908.023	17954
908.139	17935
908.256	17870
908.372	17824
908.488	17843
908.604	17585
908.72	17642
908.836	17596
908.952	17596
909.068	17634
909.184	17680
909.3	17676
909.415	17756
909.531	17535
909.647	17444
909.762	17334
909.878	17322
909.993	17372
910.108	17318
910.224	17246
910.339	17197
910.454	17265
910.57	17079
910.685	17174
910.8	17296
910.915	17235
911.03	17064
911.145	17029
911.259	17006
911.374	16911
911.489	16915
911.604	16767
911.718	16588
911.833	16706
911.947	16626
912.062	16531
912.176	16577
912.291	16672
912.405	16634
912.519	16843
912.633	16923
912.748	16755
912.862	16634
912.976	16550
913.09	16443
913.204	16398
913.318	16455
913.431	16622
913.545	16580
913.659	16687
913.772	16398
913.886	16306
914	16257
914.113	16390
914.226	16291
914.34	16226
914.453	16177
914.566	16352
914.68	16116
914.793	16124
914.906	15907
915.019	15888
915.132	15827
915.245	15888
915.358	15842
915.47	15778
915.583	15819
915.696	15797
915.809	16044
915.921	15979
916.034	15797
916.146	15759
916.259	15755
916.371	15846
916.483	15774
916.595	15675
916.708	15656
916.82	15705
916.932	15641
917.044	15648
917.156	15549
917.268	15462
917.38	15443
917.491	15439
917.603	15481
917.715	15507
917.826	15614
917.938	15298
918.049	15382
918.161	15450
918.272	15568
918.384	15545
918.495	15424
918.606	15150
918.717	15203
918.828	15313
918.939	15245
919.05	15184
919.161	15154
919.272	14952
919.383	15074
919.494	15203
919.604	15348
919.715	15112
919.826	15089
919.936	15135
920.047	15214
920.157	15150
920.267	15344
920.378	15218
920.488	15192
920.598	15279
920.708	15382
920.818	15256
920.928	15260
921.038	15447
921.148	15450
921.258	15043
921.368	14933
921.477	15024
921.587	14895
921.697	14785
921.806	14826
921.916	14705
922.025	14579
922.134	14492
922.244	14602
922.353	14488
922.462	14450
922.571	14301
922.68	14172
922.789	14149
922.898	14149
923.007	14153
923.116	14187
923.224	14157
923.333	14153
923.442	14081
923.55	13875
923.659	14058
923.767	14050
923.876	13963
923.984	13940
924.092	13883
924.201	13871
924.309	13955
924.417	13879
924.525	13780
924.633	13894
924.741	14705
924.849	13628
924.956	13750
925.064	13548
925.172	13537
925.279	13548
925.387	13529
925.494	13636
925.602	13616
925.709	13529
925.816	13487
925.924	13483
926.031	13590
926.138	13480
926.245	13518
926.352	13438
926.459	13620
926.566	13552
926.673	13392
926.779	13278
926.886	13301
926.993	13194
927.099	13141
927.206	13065
927.312	13053
927.419	13114
927.525	12996
927.631	13114
927.737	13065
927.843	12913
927.95	12844
928.056	12943
928.162	12981
928.267	12882
928.373	13601
928.479	12985
928.585	12760
928.69	12829
928.796	12825
928.901	12719
929.007	12612
929.112	12749
929.218	12673
929.323	12631
929.428	12532
929.533	12738
929.638	12448
929.743	12639
929.848	12639
929.953	12494
930.058	12372
930.163	12213
930.267	12361
930.372	12384
930.477	12171
930.581	12525
930.685	12346
930.79	12163
930.894	12114
930.998	12053
931.103	12270
931.207	11897
931.311	11931
931.415	11802
931.519	11539
931.623	11554
