Data from test_V78500241_1844.txt Node
Date: Fri Mar 25 15:54:34 CST 2022
User: usil
Spectrometer: V785-0024
Trigger mode: 0
Integration Time (sec): 4.000000E-1
Scans to average: 1
Nonlinearity correction enabled: false
Boxcar width: 0
Storing dark spectrum: false
XAxis mode: Wavelengths
Number of Pixels in Spectrum: 1024
>>>>>Begin Spectral Data<<<<<
801.071	28310
801.214	28485
801.356	28143
801.499	28246
801.641	27934
801.783	27975
801.926	27907
802.068	27903
802.211	27918
802.353	27895
802.496	27629
802.638	27633
802.78	27488
802.923	27523
803.065	27633
803.208	27644
803.35	27622
803.492	27861
803.635	27823
803.777	27800
803.919	27884
804.061	28253
804.204	27918
804.346	27762
804.488	27762
804.63	27861
804.773	27937
804.915	27895
805.057	28006
805.199	27873
805.341	27895
805.483	27960
805.626	27876
805.768	27960
805.91	28021
806.052	27903
806.194	27994
806.336	28272
806.478	28074
806.62	27987
806.762	28029
806.904	28299
807.046	28428
807.188	28565
807.33	28580
807.472	28462
807.614	28409
807.756	28436
807.898	28363
808.04	28295
808.182	28341
808.324	28272
808.465	28371
808.607	28615
808.749	28687
808.891	28675
809.033	28824
809.174	28736
809.316	28767
809.458	28752
809.6	28637
809.741	28672
809.883	28752
810.025	28949
810.166	28831
810.308	28915
810.45	28911
810.591	28797
810.733	28740
810.875	28733
811.016	28561
811.158	28516
811.299	28767
811.441	28816
811.582	28862
811.724	28748
811.865	28710
812.007	28538
812.148	28702
812.29	28759
812.431	28934
812.573	29121
812.714	29136
812.855	29216
812.997	29288
813.138	29528
813.279	29387
813.421	29212
813.562	29212
813.703	29155
813.845	29056
813.986	28645
814.127	28573
814.268	28443
814.41	28276
814.551	28409
814.692	28356
814.833	28287
814.974	28325
815.115	28310
815.256	28280
815.397	28322
815.539	28341
815.68	28135
815.821	28181
815.962	28150
816.103	28226
816.244	28040
816.385	27907
816.526	27945
816.666	27823
816.807	27637
816.948	27781
817.089	27808
817.23	27724
817.371	27629
817.512	27603
817.653	27667
817.793	27549
817.934	27629
818.075	27671
818.216	27682
818.356	27736
818.497	27591
818.638	27382
818.778	27329
818.919	27416
819.06	27599
819.2	27549
819.341	27736
819.481	27751
819.622	27865
819.762	28010
819.903	27987
820.043	27850
820.184	27823
820.324	27838
820.465	27816
820.605	27842
820.746	27808
820.886	27656
821.026	27789
821.167	27743
821.307	27739
821.447	27648
821.588	27557
821.728	27473
821.868	27325
822.008	27275
822.149	27199
822.289	27184
822.429	26849
822.569	26853
822.709	26910
822.849	26667
822.99	26746
823.13	26716
823.27	26636
823.41	26568
823.55	26259
823.69	26667
823.83	26556
823.97	26324
824.11	26298
824.25	26240
824.389	26324
824.529	26488
824.669	26214
824.809	26404
824.949	26453
825.089	26404
825.228	26385
825.368	26103
825.508	26092
825.648	26065
825.787	26229
825.927	26233
826.067	26229
826.206	26119
826.346	26077
826.485	26267
826.625	26180
826.765	26347
826.904	26126
827.044	25856
827.183	25860
827.323	25864
827.462	26008
827.601	25917
827.741	25856
827.88	25856
828.02	25799
828.159	25902
828.298	25986
828.437	25955
828.577	25951
828.716	25963
828.855	25845
828.994	25613
829.134	25464
829.273	25693
829.412	25674
829.551	25613
829.69	25567
829.829	25582
829.968	25662
830.107	25651
830.246	25613
830.385	25506
830.524	25369
830.663	25289
830.802	25297
830.941	25304
831.08	25274
831.219	25236
831.357	25148
831.496	25430
831.635	25308
831.774	25122
831.913	25179
832.051	25065
832.19	24992
832.329	25099
832.467	24848
832.606	24760
832.744	24867
832.883	24928
833.022	24875
833.16	24856
833.299	24894
833.437	24894
833.576	25160
833.714	24856
833.852	24943
833.991	25187
834.129	24989
834.267	24886
834.406	24844
834.544	24791
834.682	24776
834.821	24825
834.959	25103
835.097	24867
835.235	25000
835.373	24890
835.511	24859
835.65	24768
835.788	24703
835.926	24658
836.064	24700
836.202	24528
836.34	24681
836.478	24810
836.615	24776
836.753	24745
836.891	24753
837.029	24772
837.167	24738
837.305	24779
837.443	24601
837.58	24563
837.718	24551
837.856	24525
837.993	24509
838.131	24464
838.269	24483
838.406	24532
838.544	24513
838.681	24152
838.819	24152
838.956	24102
839.094	23984
839.231	24201
839.369	24220
839.506	24357
839.643	24330
839.781	24057
839.918	23980
840.055	24034
840.193	24155
840.33	23904
840.467	23942
840.604	24030
840.742	24281
840.879	23817
841.016	23889
841.153	23935
841.29	24007
841.427	24087
841.564	23961
841.701	23977
841.838	23836
841.975	23939
842.112	23897
842.249	23672
842.385	23699
842.522	23878
842.659	23760
842.796	23767
842.933	23722
843.069	23710
843.206	23699
843.343	23615
843.479	23646
843.616	23695
843.752	23478
843.889	23516
844.025	23623
844.162	23444
844.298	23604
844.435	23627
844.571	23349
844.708	23543
844.844	23649
844.98	23684
845.117	23779
845.253	23425
845.389	23478
845.525	23311
845.661	23459
845.798	23208
845.934	23269
846.07	23269
846.206	23200
846.342	23372
846.478	23235
846.614	23121
846.75	22930
846.886	22980
847.022	23018
847.158	22965
847.294	23025
847.429	23048
847.565	22965
847.701	23178
847.837	22725
847.972	22713
848.108	22862
848.244	22809
848.379	22710
848.515	22478
848.65	22569
848.786	22561
848.921	22580
849.057	22660
849.192	22778
849.328	22603
849.463	22527
849.598	22367
849.734	22386
849.869	22405
850.004	22451
850.14	22443
850.275	22299
850.41	22261
850.545	22261
850.68	22223
850.815	22261
850.95	22310
851.085	22451
851.22	22493
851.355	22261
851.49	22284
851.625	22314
851.76	22211
851.895	22242
852.03	22074
852.165	22360
852.299	22386
852.434	22371
852.569	22322
852.703	22356
852.838	22447
852.973	22447
853.107	22382
853.242	22207
853.376	22234
853.511	21934
853.645	22036
853.78	22192
853.914	22299
854.048	22048
854.183	22139
854.317	22109
854.451	22204
854.585	22131
854.72	22135
854.854	22295
854.988	22143
855.122	22070
855.256	22002
855.39	22093
855.524	22086
855.658	22192
855.792	22109
855.926	22238
856.06	22173
856.194	22246
856.327	22067
856.461	22036
856.595	22029
856.729	22074
856.862	22219
856.996	22219
857.13	22234
857.263	22291
857.397	22276
857.53	21926
857.664	22135
857.797	22192
857.931	22299
858.064	22211
858.197	22131
858.331	22051
858.464	22013
858.597	21934
858.731	22040
858.864	22097
858.997	22185
859.13	22124
859.263	22002
859.396	22291
859.529	22059
859.662	22029
859.795	22135
859.928	22207
860.061	22466
860.194	22333
860.327	22166
860.46	22078
860.592	22185
860.725	22303
860.858	22246
860.99	22246
861.123	22090
861.256	22112
861.388	22101
861.521	22866
861.653	21949
861.786	21960
861.918	21979
862.05	21979
862.183	21994
862.315	22078
862.447	22109
862.58	22063
862.712	21789
862.844	21808
862.976	21846
863.108	21899
863.24	22318
863.372	21827
863.504	21797
863.636	21812
863.768	21831
863.9	21895
864.032	21682
864.164	21766
864.296	21930
864.428	21926
864.559	21850
864.691	21983
864.823	21884
864.954	21835
865.086	21842
865.217	21728
865.349	21663
865.48	21770
865.612	21720
865.743	21911
865.875	21698
866.006	21603
866.137	21728
866.269	21793
866.4	21739
866.531	21667
866.662	21614
866.793	21675
866.924	21648
867.055	21561
867.186	21705
867.317	21606
867.448	21583
867.579	21625
867.71	21603
867.841	21405
867.972	21663
868.103	21648
868.233	21690
868.364	21595
868.495	21755
868.625	21876
868.756	21998
868.886	21846
869.017	21880
869.147	22010
869.278	21941
869.408	21892
869.539	21797
869.669	21964
869.799	21876
869.929	22002
870.06	21994
870.19	22261
870.32	22211
870.45	22246
870.58	22268
870.71	22303
870.84	22287
870.97	22287
871.1	22192
871.23	22379
871.36	22481
871.489	22356
871.619	22470
871.749	22413
871.879	22523
872.008	22656
872.138	22527
872.267	22440
872.397	22356
872.526	22303
872.656	22341
872.785	22299
872.915	22462
873.044	22523
873.173	22519
873.303	22508
873.432	22561
873.561	22599
873.69	22557
873.819	22459
873.948	22561
874.077	22550
874.206	22409
874.335	22455
874.464	22649
874.593	22725
874.722	22672
874.851	22736
874.979	22733
875.108	22656
875.237	22565
875.365	22611
875.494	22694
875.623	22820
875.751	22763
875.88	22790
876.008	22774
876.136	23003
876.265	23197
876.393	23124
876.521	23094
876.65	23075
876.778	23159
876.906	23006
877.034	23121
877.162	23117
877.29	23022
877.418	23109
877.546	23147
877.674	23109
877.802	23075
877.93	23147
878.058	23041
878.185	22942
878.313	23060
878.441	22965
878.568	22869
878.696	22968
878.824	23155
878.951	23166
879.079	23280
879.206	23383
879.333	23303
879.461	23258
879.588	23159
879.715	23223
879.842	23322
879.97	23200
880.097	22889
880.224	22949
880.351	22790
880.478	22991
880.605	22869
880.732	22733
880.859	23067
880.986	22812
881.112	22862
881.239	22820
881.366	22584
881.493	22535
881.619	22421
881.746	22424
881.872	22409
881.999	22470
882.125	22329
882.252	22577
882.378	22432
882.505	22424
882.631	22390
882.757	22109
882.883	22230
883.01	22109
883.136	22093
883.262	22116
883.388	21987
883.514	22017
883.64	22181
883.766	21972
883.892	21808
884.018	21975
884.143	22048
884.269	22139
884.395	21854
884.52	21713
884.646	21762
884.772	21690
884.897	21652
885.023	21755
885.148	21899
885.274	21915
885.399	21895
885.524	21747
885.65	21713
885.775	21762
885.9	21759
886.025	21934
886.15	21816
886.275	21720
886.4	21705
886.525	21694
886.65	21686
886.775	21713
886.9	21888
887.025	21888
887.149	21698
887.274	21595
887.399	21496
887.523	21534
887.648	21466
887.773	21469
887.897	21595
888.021	21618
888.146	21454
888.27	21694
888.395	21713
888.519	21492
888.643	21603
888.767	21599
888.891	21351
889.015	21260
889.139	21272
889.263	21351
889.387	21389
889.511	21599
889.635	21473
889.759	21287
889.883	21264
890.006	21222
890.13	21424
890.254	21173
890.377	21340
890.501	21116
890.624	21043
890.748	21104
890.871	20960
890.995	20880
891.118	20857
891.241	20823
891.364	20883
891.488	21074
891.611	20990
891.734	20895
891.857	20910
891.98	20861
892.103	20849
892.226	20807
892.349	20838
892.471	20648
892.594	20731
892.717	20906
892.839	20883
892.962	20743
893.085	20800
893.207	20739
893.33	20765
893.452	20754
893.575	20914
893.697	20788
893.819	20925
893.941	20861
894.064	20876
894.186	20735
894.308	20598
894.43	20914
894.552	20960
894.674	20864
894.796	20560
894.918	20899
895.04	20705
895.161	20956
895.283	20804
895.405	20636
895.526	20686
895.648	20785
895.769	20823
895.891	20921
896.012	20876
896.134	20811
896.255	20682
896.376	20785
896.498	20743
896.619	20773
896.74	20743
896.861	20830
896.982	21203
897.103	21218
897.224	21001
897.345	20891
897.466	20883
897.587	20960
897.708	21058
897.828	21081
897.949	20895
898.07	20750
898.19	20967
898.311	21036
898.431	20986
898.552	20929
898.672	21116
898.792	21085
898.913	20925
899.033	20815
899.153	20796
899.273	20663
899.393	20663
899.513	20720
899.633	20746
899.753	20777
899.873	20659
899.993	20796
900.113	20609
900.232	20670
900.352	20648
900.472	20480
900.591	20514
900.711	20450
900.83	20473
900.95	20511
901.069	20469
901.189	20393
901.308	20111
901.427	20084
901.546	20024
901.665	20024
901.784	20069
901.904	19849
902.023	19788
902.141	19605
902.26	19502
902.379	19628
902.498	19575
902.617	19556
902.735	19651
902.854	19480
902.973	19525
903.091	19236
903.21	19373
903.328	19244
903.446	19187
903.565	19103
903.683	18970
903.801	18928
903.919	19126
904.038	18977
904.156	18825
904.274	18817
904.392	18768
904.51	18726
904.627	18692
904.745	18795
904.863	18795
904.981	18574
905.098	18445
905.216	18407
905.334	18376
905.451	18479
905.569	18414
905.686	18578
905.803	18471
905.921	18186
906.038	18395
906.155	18209
906.272	18125
906.389	18117
906.506	17980
906.623	17935
906.74	17870
906.857	17832
906.974	17859
907.091	18064
907.208	18019
907.324	18007
907.441	17889
907.557	17767
907.674	17710
907.79	17581
907.907	17676
908.023	17737
908.139	17695
908.256	17604
908.372	17554
908.488	17577
908.604	17341
908.72	17376
908.836	17417
908.952	17376
909.068	17292
909.184	17630
909.3	17406
909.415	17376
909.531	17410
909.647	17132
909.762	17105
909.878	17079
909.993	17048
910.108	17079
910.224	17204
910.339	16968
910.454	16828
910.57	16866
910.685	16801
910.8	17151
910.915	17098
911.03	16862
911.145	16713
911.259	16637
911.374	16679
911.489	16527
911.604	16538
911.718	16337
911.833	16504
911.947	16295
912.062	16287
912.176	16337
912.291	16440
912.405	16379
912.519	16622
912.633	16694
912.748	16489
912.862	16421
912.976	16200
913.09	16169
913.204	16200
913.318	16177
913.431	16291
913.545	16363
913.659	16276
913.772	16207
913.886	16032
914	15953
914.113	16112
914.226	16131
914.34	16135
914.453	15922
914.566	16044
914.68	15907
914.793	15816
914.906	15759
915.019	15587
915.132	15557
915.245	15644
915.358	15633
915.47	15564
915.583	15641
915.696	15625
915.809	15614
915.921	15652
916.034	15587
916.146	15526
916.259	15625
916.371	15580
916.483	15515
916.595	15386
916.708	15416
916.82	15363
916.932	15420
917.044	15332
917.156	15378
917.268	15317
917.38	15252
917.491	15241
917.603	15237
917.715	15291
917.826	15313
917.938	15169
918.049	14982
918.161	15020
918.272	15310
918.384	15283
918.495	15097
918.606	14971
918.717	15020
918.828	15119
918.939	15017
919.05	14887
919.161	15024
919.272	14750
919.383	14811
919.494	15127
919.604	15138
919.715	14952
919.826	14849
919.936	14963
920.047	15005
920.157	15036
920.267	15165
920.378	15055
920.488	14986
920.598	15070
920.708	15310
920.818	15024
920.928	15077
921.038	15306
921.148	15154
921.258	14937
921.368	14914
921.477	14819
921.587	14651
921.697	14499
921.806	14693
921.916	14545
922.025	14419
922.134	14336
922.244	14324
922.353	14355
922.462	14168
922.571	14081
922.68	13917
922.789	13928
922.898	13978
923.007	13925
923.116	14008
923.224	13932
923.333	13906
923.442	13807
923.55	13795
923.659	13803
923.767	13818
923.876	13830
923.984	13734
924.092	13689
924.201	13674
924.309	13674
924.417	13677
924.525	13620
924.633	13540
924.741	14385
924.849	13521
924.956	13586
925.064	13400
925.172	13274
925.279	13381
925.387	13419
925.494	13430
925.602	13460
925.709	13422
925.816	13308
925.924	13228
926.031	13339
926.138	13335
926.245	13373
926.352	13187
926.459	13445
926.566	13400
926.673	13187
926.779	13118
926.886	13038
926.993	12867
927.099	12890
927.206	12821
927.312	12878
927.419	13004
927.525	12932
927.631	12935
927.737	12753
927.843	12768
927.95	12673
928.056	12711
928.162	12707
928.267	12726
928.373	13480
928.479	12783
928.585	12460
928.69	12726
928.796	12856
928.901	12646
929.007	12403
929.112	12578
929.218	12517
929.323	12528
929.428	12426
929.533	12639
929.638	12308
929.743	12414
929.848	12330
929.953	12452
930.058	12258
930.163	12064
930.267	12095
930.372	12220
930.477	12060
930.581	12289
930.685	12140
930.79	12060
930.894	12007
930.998	11999
931.103	12083
931.207	11779
931.311	11600
931.415	11642
931.519	11398
931.623	11326
