Data from test_V78500241_2113.txt Node
Date: Fri Mar 25 15:56:26 CST 2022
User: usil
Spectrometer: V785-0024
Trigger mode: 0
Integration Time (sec): 4.000000E-1
Scans to average: 1
Nonlinearity correction enabled: false
Boxcar width: 0
Storing dark spectrum: false
XAxis mode: Wavelengths
Number of Pixels in Spectrum: 1024
>>>>>Begin Spectral Data<<<<<
801.071	28736
801.214	28733
801.356	28592
801.499	28432
801.641	28413
801.783	28550
801.926	28409
802.068	28421
802.211	28306
802.353	28238
802.496	28162
802.638	28025
802.78	28226
802.923	28131
803.065	28074
803.208	28097
803.35	28097
803.492	28150
803.635	28318
803.777	28192
803.919	28306
804.061	28687
804.204	28314
804.346	28268
804.488	28242
804.63	28299
804.773	28226
804.915	28352
805.057	28356
805.199	28363
805.341	28527
805.483	28413
805.626	28405
805.768	28497
805.91	28497
806.052	28497
806.194	28390
806.336	28683
806.478	28481
806.62	28599
806.762	28622
806.904	28748
807.046	28953
807.188	28927
807.33	28938
807.472	28953
807.614	28957
807.756	28919
807.898	28888
808.04	28862
808.182	28786
808.324	28847
808.465	29037
808.607	29136
808.749	29094
808.891	29261
809.033	29410
809.174	29204
809.316	29288
809.458	29303
809.6	29250
809.741	29429
809.883	29334
810.025	29501
810.166	29566
810.308	29524
810.45	29417
810.591	29406
810.733	29292
810.875	29273
811.016	29193
811.158	29132
811.299	29383
811.441	29395
811.582	29322
811.724	29204
811.865	29356
812.007	29220
812.148	29277
812.29	29265
812.431	29440
812.573	29520
812.714	29592
812.855	29935
812.997	29741
813.138	29920
813.279	29862
813.421	29767
813.562	29813
813.703	29566
813.845	29448
813.986	29216
814.127	29079
814.268	28961
814.41	28987
814.551	28908
814.692	29064
814.833	28847
814.974	28866
815.115	28915
815.256	28812
815.397	28911
815.539	29006
815.68	28782
815.821	28622
815.962	28694
816.103	28854
816.244	28580
816.385	28634
816.526	28508
816.666	28481
816.807	28226
816.948	28265
817.089	28314
817.23	28215
817.371	28257
817.512	28230
817.653	28169
817.793	28025
817.934	28173
818.075	28333
818.216	28226
818.356	28215
818.497	28101
818.638	28067
818.778	27949
818.919	28086
819.06	28158
819.2	28192
819.341	28124
819.481	28166
819.622	28276
819.762	28672
819.903	28363
820.043	28493
820.184	28341
820.324	28398
820.465	28531
820.605	28367
820.746	28413
820.886	28192
821.026	28428
821.167	28329
821.307	28401
821.447	28280
821.588	28325
821.728	28105
821.868	27831
822.008	27800
822.149	27747
822.289	27800
822.429	27534
822.569	27481
822.709	27481
822.849	27317
822.99	27275
823.13	27237
823.27	27241
823.41	26998
823.55	26990
823.69	27028
823.83	27150
823.97	26998
824.11	26990
824.25	26887
824.389	26842
824.529	26979
824.669	26940
824.809	26944
824.949	26940
825.089	26887
825.228	26952
825.368	26735
825.508	26716
825.648	26849
825.787	26861
825.927	26811
826.067	26693
826.206	26815
826.346	26845
826.485	26750
826.625	26727
826.765	26883
826.904	26777
827.044	26575
827.183	26648
827.323	26446
827.462	26522
827.601	26511
827.741	26381
827.88	26621
828.02	26362
828.159	26549
828.298	26495
828.437	26427
828.577	26450
828.716	26587
828.855	26484
828.994	26252
829.134	26103
829.273	26027
829.412	26062
829.551	26138
829.69	26149
829.829	26126
829.968	26237
830.107	26233
830.246	26126
830.385	26240
830.524	26096
830.663	26031
830.802	26016
830.941	25803
831.08	25769
831.219	25868
831.357	25811
831.496	25898
831.635	25841
831.774	25769
831.913	25727
832.051	25578
832.19	25464
832.329	25506
832.467	25464
832.606	25525
832.744	25464
832.883	25434
833.022	25499
833.16	25430
833.299	25533
833.437	25449
833.576	25464
833.714	25567
833.852	25487
833.991	25582
834.129	25616
834.267	25479
834.406	25601
834.544	25571
834.682	25479
834.821	25468
834.959	25597
835.097	25392
835.235	25643
835.373	25521
835.511	25506
835.65	25396
835.788	25479
835.926	25194
836.064	25107
836.202	25175
836.34	25156
836.478	25354
836.615	25354
836.753	25369
836.891	25365
837.029	25289
837.167	25183
837.305	25114
837.443	25179
837.58	25118
837.718	25137
837.856	25148
837.993	25053
838.131	25141
838.269	25095
838.406	25084
838.544	25000
838.681	24726
838.819	24730
838.956	24642
839.094	24639
839.231	24696
839.369	24764
839.506	24973
839.643	25038
839.781	24627
839.918	24627
840.055	24525
840.193	24646
840.33	24414
840.467	24471
840.604	24578
840.742	24776
840.879	24528
841.016	24437
841.153	24429
841.29	24642
841.427	24521
841.564	24513
841.701	24544
841.838	24460
841.975	24369
842.112	24357
842.249	24403
842.385	24300
842.522	24540
842.659	24414
842.796	24388
842.933	24163
843.069	24285
843.206	24174
843.343	24384
843.479	24201
843.616	24197
843.752	24022
843.889	24125
844.025	24239
844.162	24030
844.298	24060
844.435	23977
844.571	23961
844.708	24091
844.844	24247
844.98	24273
845.117	24194
845.253	23935
845.389	23946
845.525	23931
845.661	23942
845.798	23901
845.934	23737
846.07	23611
846.206	23779
846.342	23920
846.478	23581
846.614	23585
846.75	23531
846.886	23505
847.022	23539
847.158	23581
847.294	23611
847.429	23478
847.565	23493
847.701	23840
847.837	23185
847.972	23212
848.108	23345
848.244	23277
848.379	23124
848.515	23117
848.65	23094
848.786	23083
848.921	23117
849.057	23105
849.192	23189
849.328	23178
849.463	23064
849.598	23048
849.734	22999
849.869	23006
850.004	22904
850.14	22843
850.275	22873
850.41	22687
850.545	22934
850.68	22866
850.815	22866
850.95	22767
851.085	23128
851.22	22927
851.355	22873
851.49	22881
851.625	22668
851.76	22782
851.895	22839
852.03	22782
852.165	22816
852.299	22744
852.434	22915
852.569	22900
852.703	22847
852.838	23003
852.973	23064
853.107	22767
853.242	22725
853.376	22733
853.511	22538
853.645	22607
853.78	22672
853.914	22645
854.048	22565
854.183	22691
854.317	22664
854.451	22805
854.585	22755
854.72	22535
854.854	22736
854.988	22656
855.122	22713
855.256	22645
855.39	22729
855.524	22710
855.658	22736
855.792	22672
855.926	22755
856.06	22630
856.194	22793
856.327	22733
856.461	22584
856.595	22615
856.729	22660
856.862	22729
856.996	22717
857.13	22656
857.263	22797
857.397	22854
857.53	22668
857.664	22622
857.797	22645
857.931	22740
858.064	22649
858.197	22694
858.331	22592
858.464	22733
858.597	22443
858.731	22542
858.864	22611
858.997	22641
859.13	22691
859.263	22706
859.396	22641
859.529	22653
859.662	22634
859.795	22565
859.928	22592
860.061	22805
860.194	22843
860.327	22691
860.46	22713
860.592	22786
860.725	22793
860.858	22774
860.99	22656
861.123	22626
861.256	22596
861.388	22668
861.521	23478
861.653	22504
861.786	22428
861.918	22512
862.05	22573
862.183	22694
862.315	22645
862.447	22649
862.58	22497
862.712	22394
862.844	22284
862.976	22512
863.108	22375
863.24	22717
863.372	22386
863.504	22322
863.636	22363
863.768	22352
863.9	22382
864.032	22287
864.164	22325
864.296	22341
864.428	22382
864.559	22451
864.691	22432
864.823	22337
864.954	22325
865.086	22375
865.217	22249
865.349	22246
865.48	22242
865.612	22261
865.743	22409
865.875	22276
866.006	22200
866.137	22162
866.269	22139
866.4	22204
866.531	22276
866.662	22078
866.793	22200
866.924	22147
867.055	22166
867.186	22147
867.317	22090
867.448	22177
867.579	22006
867.71	22128
867.841	22055
867.972	22067
868.103	22223
868.233	22242
868.364	22128
868.495	22344
868.625	22352
868.756	22375
868.886	22280
869.017	22318
869.147	22440
869.278	22588
869.408	22489
869.539	22466
869.669	22508
869.799	22527
869.929	22478
870.06	22508
870.19	22725
870.32	22637
870.45	22797
870.58	22889
870.71	22824
870.84	22748
870.97	22786
871.1	22866
871.23	23079
871.36	23041
871.489	22889
871.619	22885
871.749	23029
871.879	22999
872.008	23060
872.138	23018
872.267	22953
872.397	22972
872.526	22767
872.656	22866
872.785	22847
872.915	23140
873.044	23029
873.173	23094
873.303	23155
873.432	23048
873.561	23094
873.69	22995
873.819	23128
873.948	23033
874.077	22961
874.206	22953
874.335	23064
874.464	23223
874.593	23223
874.722	23265
874.851	23178
874.979	23231
875.108	23261
875.237	23254
875.365	23090
875.494	23151
875.623	23197
875.751	23102
875.88	23151
876.008	23383
876.136	23337
876.265	23562
876.393	23703
876.521	23779
876.65	23630
876.778	23623
876.906	23630
877.034	23505
877.162	23573
877.29	23497
877.418	23638
877.546	23543
877.674	23524
877.802	23600
877.93	23459
878.058	23531
878.185	23528
878.313	23566
878.441	23535
878.568	23482
878.696	23440
878.824	23547
878.951	23630
879.079	23813
879.206	23832
879.333	23752
879.461	23630
879.588	23623
879.715	23699
879.842	23920
879.97	23699
880.097	23512
880.224	23433
880.351	23497
880.478	23433
880.605	23269
880.732	23364
880.859	23562
880.986	23486
881.112	23474
881.239	23292
881.366	23178
881.493	23037
881.619	22892
881.746	23037
881.872	22972
881.999	23086
882.125	22938
882.252	22881
882.378	22885
882.505	23083
882.631	22691
882.757	22755
882.883	22755
883.01	22771
883.136	22653
883.262	22554
883.388	22436
883.514	22618
883.64	22763
883.766	22542
883.892	22440
884.018	22519
884.143	22519
884.269	22531
884.395	22413
884.52	22257
884.646	22287
884.772	22173
884.897	22116
885.023	22344
885.148	22341
885.274	22398
885.399	22371
885.524	22272
885.65	22348
885.775	22344
885.9	22188
886.025	22375
886.15	22398
886.275	22207
886.4	22112
886.525	22238
886.65	22078
886.775	22105
886.9	22352
887.025	22481
887.149	22272
887.274	22090
887.399	21979
887.523	21991
887.648	21941
887.773	21880
887.897	22078
888.021	22082
888.146	21865
888.27	22101
888.395	22105
888.519	22150
888.643	22078
888.767	21998
888.891	21846
889.015	21842
889.139	21876
889.263	21705
889.387	21983
889.511	22078
889.635	21937
889.759	21808
889.883	21865
890.006	21793
890.13	21880
890.254	21724
890.377	21705
890.501	21545
890.624	21473
890.748	21564
890.871	21416
890.995	21393
891.118	21268
891.241	21306
891.364	21420
891.488	21515
891.611	21447
891.734	21477
891.857	21370
891.98	21389
892.103	21306
892.226	21344
892.349	21294
892.471	21077
892.594	21332
892.717	21203
892.839	21180
892.962	21180
893.085	21378
893.207	21131
893.33	21268
893.452	21230
893.575	21264
893.697	21138
893.819	21351
893.941	21473
894.064	21325
894.186	21161
894.308	21104
894.43	21138
894.552	21401
894.674	21336
894.796	21146
894.918	21116
895.04	21165
895.161	21291
895.283	21272
895.405	21138
895.526	21256
895.648	21188
895.769	21195
895.891	21272
896.012	21237
896.134	21348
896.255	21279
896.376	21157
896.498	21302
896.619	21150
896.74	21188
896.861	21218
896.982	21538
897.103	21641
897.224	21561
897.345	21481
897.466	21408
897.587	21545
897.708	21473
897.828	21545
897.949	21359
898.07	21237
898.19	21317
898.311	21549
898.431	21431
898.552	21355
898.672	21454
898.792	21603
898.913	21294
899.033	21397
899.153	21176
899.273	21138
899.393	21108
899.513	21268
899.633	21245
899.753	21214
899.873	20990
899.993	21165
900.113	21013
900.232	21047
900.352	21104
900.472	20872
900.591	20910
900.711	20982
900.83	20849
900.95	21001
901.069	20971
901.189	20918
901.308	20564
901.427	20537
901.546	20579
901.665	20507
901.784	20461
901.904	20317
902.023	20221
902.141	20012
902.26	19978
902.379	20180
902.498	20008
902.617	19925
902.735	19921
902.854	19871
902.973	19928
903.091	19704
903.21	19643
903.328	19613
903.446	19601
903.565	19457
903.683	19422
903.801	19263
903.919	19388
904.038	19331
904.156	19232
904.274	19289
904.392	19152
904.51	19141
904.627	19213
904.745	19209
904.863	19339
904.981	18985
905.098	18856
905.216	18833
905.334	18966
905.451	18894
905.569	18844
905.686	18977
905.803	18791
905.921	18696
906.038	18783
906.155	18639
906.272	18509
906.389	18604
906.506	18311
906.623	18357
906.74	18422
906.857	18311
906.974	18273
907.091	18452
907.208	18403
907.324	18486
907.441	18346
907.557	18178
907.674	18129
907.79	18110
907.907	18125
908.023	18076
908.139	18136
908.256	18064
908.372	17954
908.488	17912
908.604	17809
908.72	17756
908.836	17859
908.952	17916
909.068	17809
909.184	17931
909.3	17805
909.415	17855
909.531	17718
909.647	17471
909.762	17463
909.878	17490
909.993	17509
910.108	17406
910.224	17471
910.339	17452
910.454	17284
910.57	17269
910.685	17208
910.8	17570
910.915	17395
911.03	17315
911.145	17102
911.259	17124
911.374	17029
911.489	16957
911.604	16976
911.718	16923
911.833	16835
911.947	16710
912.062	16672
912.176	16759
912.291	16881
912.405	16778
912.519	16949
912.633	16987
912.748	16854
912.862	16752
912.976	16531
913.09	16527
913.204	16538
913.318	16599
913.431	16634
913.545	16622
913.659	16801
913.772	16630
913.886	16402
914	16459
914.113	16455
914.226	16516
914.34	16546
914.453	16265
914.566	16462
914.68	16375
914.793	16303
914.906	16207
915.019	15911
915.132	15895
915.245	15972
915.358	15884
915.47	16059
915.583	15987
915.696	15979
915.809	16040
915.921	16040
916.034	15876
916.146	15774
916.259	15861
916.371	15888
916.483	15895
916.595	15732
916.708	15755
916.82	15819
916.932	15736
917.044	15686
917.156	15785
917.268	15679
917.38	15629
917.491	15637
917.603	15629
917.715	15660
917.826	15717
917.938	15496
918.049	15481
918.161	15466
918.272	15667
918.384	15679
918.495	15519
918.606	15435
918.717	15218
918.828	15420
918.939	15428
919.05	15256
919.161	15344
919.272	15097
919.383	15108
919.494	15397
919.604	15481
919.715	15329
919.826	15317
919.936	15325
920.047	15348
920.157	15306
920.267	15504
920.378	15370
920.488	15260
920.598	15420
920.708	15580
920.818	15359
920.928	15370
921.038	15545
921.148	15511
921.258	15283
921.368	15047
921.477	15085
921.587	14929
921.697	14937
921.806	14971
921.916	14891
922.025	14674
922.134	14594
922.244	14488
922.353	14594
922.462	14533
922.571	14389
922.68	14267
922.789	14210
922.898	14328
923.007	14176
923.116	14263
923.224	14282
923.333	14233
923.442	14149
923.55	14103
923.659	14161
923.767	14126
923.876	14027
923.984	14103
924.092	14008
924.201	14077
924.309	13997
924.417	13993
924.525	13963
924.633	14050
924.741	14655
924.849	13700
924.956	13860
925.064	13597
925.172	13590
925.279	13632
925.387	13712
925.494	13597
925.602	13833
925.709	13719
925.816	13586
925.924	13586
926.031	13677
926.138	13529
926.245	13731
926.352	13529
926.459	13632
926.566	13624
926.673	13544
926.779	13392
926.886	13308
926.993	13259
927.099	13137
927.206	13099
927.312	13122
927.419	13285
927.525	13137
927.631	13145
927.737	13126
927.843	13023
927.95	12909
928.056	13046
928.162	13053
928.267	13069
928.373	13651
928.479	13004
928.585	12791
928.69	12928
928.796	13023
928.901	12719
929.007	12688
929.112	12852
929.218	12760
929.323	12745
929.428	12749
929.533	12867
929.638	12612
929.743	12658
929.848	12776
929.953	12749
930.058	12650
930.163	12384
930.267	12369
930.372	12521
930.477	12353
930.581	12582
930.685	12498
930.79	12266
930.894	12327
930.998	12270
931.103	12388
931.207	11984
931.311	11946
931.415	11821
931.519	11653
931.623	11604
