Data from test_V78500241_2873.txt Node
Date: Fri Mar 25 16:01:42 CST 2022
User: usil
Spectrometer: V785-0024
Trigger mode: 0
Integration Time (sec): 4.000000E-1
Scans to average: 1
Nonlinearity correction enabled: false
Boxcar width: 0
Storing dark spectrum: false
XAxis mode: Wavelengths
Number of Pixels in Spectrum: 1024
>>>>>Begin Spectral Data<<<<<
801.071	28976
801.214	28930
801.356	28831
801.499	28702
801.641	28535
801.783	28542
801.926	28759
802.068	28615
802.211	28493
802.353	28398
802.496	28322
802.638	28280
802.78	28314
802.923	28139
803.065	28238
803.208	28166
803.35	28386
803.492	28474
803.635	28538
803.777	28554
803.919	28500
804.061	28843
804.204	28717
804.346	28550
804.488	28485
804.63	28592
804.773	28584
804.915	28611
805.057	28729
805.199	28504
805.341	28645
805.483	28824
805.626	28721
805.768	28637
805.91	28759
806.052	28679
806.194	28672
806.336	28877
806.478	28782
806.62	28710
806.762	28881
806.904	28999
807.046	29303
807.188	29132
807.33	29140
807.472	29330
807.614	29121
807.756	29143
807.898	28923
808.04	28999
808.182	29025
808.324	29094
808.465	29197
808.607	29349
808.749	29463
808.891	29695
809.033	29707
809.174	29668
809.316	29383
809.458	29547
809.6	29383
809.741	29573
809.883	29543
810.025	29718
810.166	29676
810.308	29710
810.45	29585
810.591	29745
810.733	29573
810.875	29661
811.016	29452
811.158	29402
811.299	29539
811.441	29531
811.582	29425
811.724	29364
811.865	29349
812.007	29570
812.148	29554
812.29	29417
812.431	29668
812.573	29767
812.714	29931
812.855	30026
812.997	30178
813.138	30220
813.279	30079
813.421	29882
813.562	29897
813.703	29767
813.845	29623
813.986	29410
814.127	29383
814.268	29265
814.41	29372
814.551	29212
814.692	29265
814.833	29181
814.974	29155
815.115	29246
815.256	29094
815.397	29102
815.539	29189
815.68	28991
815.821	29052
815.962	29048
816.103	28968
816.244	28949
816.385	28881
816.526	28820
816.666	28565
816.807	28451
816.948	28474
817.089	28634
817.23	28493
817.371	28546
817.512	28538
817.653	28535
817.793	28504
817.934	28421
818.075	28554
818.216	28519
818.356	28504
818.497	28367
818.638	28276
818.778	28443
818.919	28147
819.06	28318
819.2	28474
819.341	28443
819.481	28634
819.622	28740
819.762	28908
819.903	28869
820.043	28664
820.184	28630
820.324	28603
820.465	28816
820.605	28793
820.746	28759
820.886	28447
821.026	28740
821.167	28573
821.307	28721
821.447	28626
821.588	28618
821.728	28310
821.868	28147
822.008	28082
822.149	27945
822.289	28067
822.429	27713
822.569	27450
822.709	27675
822.849	27709
822.99	27439
823.13	27454
823.27	27443
823.41	27355
823.55	27188
823.69	27443
823.83	27302
823.97	27264
824.11	27100
824.25	27233
824.389	27154
824.529	27268
824.669	27230
824.809	27245
824.949	27135
825.089	27275
825.228	27283
825.368	27116
825.508	27119
825.648	26986
825.787	27138
825.927	27203
826.067	26971
826.206	27199
826.346	27066
826.485	27020
826.625	27024
826.765	27123
826.904	27047
827.044	26876
827.183	26876
827.323	26724
827.462	26971
827.601	26731
827.741	26769
827.88	26940
828.02	26632
828.159	26743
828.298	26758
828.437	26815
828.577	26648
828.716	26830
828.855	26590
828.994	26412
829.134	26522
829.273	26446
829.412	26480
829.551	26453
829.69	26621
829.829	26423
829.968	26473
830.107	26469
830.246	26404
830.385	26514
830.524	26351
830.663	26267
830.802	26183
830.941	26016
831.08	25993
831.219	26176
831.357	26126
831.496	26301
831.635	26142
831.774	26058
831.913	25898
832.051	25989
832.19	25860
832.329	25959
832.467	25776
832.606	25765
832.744	25780
832.883	25696
833.022	25609
833.16	25753
833.299	25765
833.437	25757
833.576	25837
833.714	25750
833.852	25932
833.991	25887
834.129	25963
834.267	25925
834.406	25856
834.544	25837
834.682	25731
834.821	25841
834.959	25970
835.097	25772
835.235	25780
835.373	25727
835.511	25632
835.65	25651
835.788	25662
835.926	25575
836.064	25373
836.202	25430
836.34	25666
836.478	25795
836.615	25559
836.753	25742
836.891	25772
837.029	25601
837.167	25571
837.305	25449
837.443	25392
837.58	25335
837.718	25556
837.856	25327
837.993	25453
838.131	25453
838.269	25411
838.406	25285
838.544	25206
838.681	25072
838.819	25057
838.956	24798
839.094	24916
839.231	25000
839.369	25012
839.506	25282
839.643	25168
839.781	24894
839.918	24684
840.055	25000
840.193	24875
840.33	24844
840.467	24814
840.604	24943
840.742	25053
840.879	24623
841.016	24677
841.153	24760
841.29	24909
841.427	24760
841.564	24779
841.701	24886
841.838	24798
841.975	24730
842.112	24669
842.249	24646
842.385	24612
842.522	24802
842.659	24673
842.796	24582
842.933	24517
843.069	24494
843.206	24627
843.343	24677
843.479	24635
843.616	24566
843.752	24460
843.889	24399
844.025	24445
844.162	24292
844.298	24422
844.435	24369
844.571	24342
844.708	24251
844.844	24429
844.98	24505
845.117	24532
845.253	24308
845.389	24140
845.525	24304
845.661	24209
845.798	23988
845.934	24178
846.07	24003
846.206	24178
846.342	24041
846.478	23965
846.614	23771
846.75	23764
846.886	23805
847.022	23950
847.158	23783
847.294	23863
847.429	23733
847.565	23882
847.701	24026
847.837	23520
847.972	23452
848.108	23600
848.244	23630
848.379	23341
848.515	23436
848.65	23379
848.786	23368
848.921	23345
849.057	23570
849.192	23376
849.328	23490
849.463	23417
849.598	23280
849.734	23360
849.869	23204
850.004	23223
850.14	23143
850.275	23181
850.41	23071
850.545	23166
850.68	23166
850.815	23159
850.95	23094
851.085	23200
851.22	23235
851.355	23140
851.49	23121
851.625	23014
851.76	23231
851.895	23109
852.03	23121
852.165	23124
852.299	23280
852.434	23162
852.569	23117
852.703	23067
852.838	23277
852.973	23258
853.107	23231
853.242	23109
853.376	22949
853.511	22850
853.645	22866
853.78	23014
853.914	22984
854.048	22885
854.183	22953
854.317	23124
854.451	23231
854.585	22889
854.72	22965
854.854	22968
854.988	22862
855.122	22991
855.256	23029
855.39	22934
855.524	23037
855.658	23090
855.792	22915
855.926	22968
856.06	23029
856.194	22980
856.327	22850
856.461	23003
856.595	22858
856.729	23048
856.862	23060
856.996	22938
857.13	23060
857.263	22987
857.397	23033
857.53	22919
857.664	23041
857.797	23018
857.931	23113
858.064	22938
858.197	23014
858.331	22847
858.464	22866
858.597	22877
858.731	23014
858.864	22965
858.997	22919
859.13	23064
859.263	22911
859.396	23109
859.529	23113
859.662	22991
859.795	22984
859.928	22968
860.061	23193
860.194	23162
860.327	23033
860.46	22949
860.592	23071
860.725	23041
860.858	22911
860.99	22892
861.123	22919
861.256	22866
861.388	22911
861.521	23687
861.653	22930
861.786	22831
861.918	22782
862.05	22805
862.183	22850
862.315	22885
862.447	22919
862.58	22759
862.712	22554
862.844	22687
862.976	22672
863.108	22668
863.24	23090
863.372	22713
863.504	22687
863.636	22660
863.768	22653
863.9	22588
864.032	22649
864.164	22592
864.296	22733
864.428	22763
864.559	22706
864.691	22672
864.823	22649
864.954	22634
865.086	22607
865.217	22451
865.349	22489
865.48	22573
865.612	22405
865.743	22569
865.875	22493
866.006	22599
866.137	22485
866.269	22618
866.4	22512
866.531	22542
866.662	22466
866.793	22421
866.924	22440
867.055	22493
867.186	22466
867.317	22500
867.448	22356
867.579	22500
867.71	22318
867.841	22348
867.972	22481
868.103	22523
868.233	22519
868.364	22409
868.495	22573
868.625	22717
868.756	22774
868.886	22649
869.017	22706
869.147	22869
869.278	22687
869.408	22717
869.539	22634
869.669	22877
869.799	22812
869.929	22831
870.06	22793
870.19	22885
870.32	22934
870.45	23056
870.58	23044
870.71	23273
870.84	23174
870.97	23064
871.1	23010
871.23	23216
871.36	23273
871.489	23147
871.619	23227
871.749	23315
871.879	23204
872.008	23356
872.138	23299
872.267	23410
872.397	23197
872.526	23098
872.656	23128
872.785	23006
872.915	23288
873.044	23395
873.173	23181
873.303	23349
873.432	23349
873.561	23436
873.69	23356
873.819	23379
873.948	23284
874.077	23311
874.206	23303
874.335	23345
874.464	23455
874.593	23463
874.722	23592
874.851	23653
874.979	23585
875.108	23608
875.237	23577
875.365	23299
875.494	23547
875.623	23554
875.751	23395
875.88	23478
876.008	23512
876.136	23634
876.265	23889
876.393	24003
876.521	24049
876.65	23961
876.778	23790
876.906	23821
877.034	23821
877.162	23878
877.29	23775
877.418	23828
877.546	23920
877.674	23809
877.802	23893
877.93	23710
878.058	23771
878.185	23710
878.313	23775
878.441	23851
878.568	23680
878.696	23794
878.824	23904
878.951	23843
879.079	24098
879.206	24136
879.333	24022
879.461	23904
879.588	23908
879.715	24003
879.842	24213
879.97	23878
880.097	23695
880.224	23729
880.351	23786
880.478	23554
880.605	23478
880.732	23752
880.859	23923
880.986	23615
881.112	23714
881.239	23558
881.366	23395
881.493	23387
881.619	23174
881.746	23277
881.872	23239
881.999	23185
882.125	23166
882.252	23280
882.378	23128
882.505	23326
882.631	23155
882.757	22885
882.883	22919
883.01	22885
883.136	22915
883.262	22694
883.388	22828
883.514	23029
883.64	22873
883.766	22702
883.892	22584
884.018	22535
884.143	22911
884.269	22713
884.395	22577
884.52	22474
884.646	22630
884.772	22428
884.897	22500
885.023	22474
885.148	22607
885.274	22675
885.399	22622
885.524	22531
885.65	22538
885.775	22451
885.9	22470
886.025	22717
886.15	22573
886.275	22421
886.4	22329
886.525	22428
886.65	22455
886.775	22432
886.9	22603
887.025	22675
887.149	22440
887.274	22341
887.399	22352
887.523	22299
887.648	22150
887.773	22185
887.897	22371
888.021	22272
888.146	22150
888.27	22440
888.395	22386
888.519	22329
888.643	22318
888.767	22443
888.891	22234
889.015	22044
889.139	22215
889.263	22086
889.387	22185
889.511	22352
889.635	22131
889.759	21979
889.883	22093
890.006	22051
890.13	22158
890.254	22135
890.377	21979
890.501	21808
890.624	21838
890.748	21945
890.871	21644
890.995	21739
891.118	21599
891.241	21705
891.364	21549
891.488	21739
891.611	21488
891.734	21580
891.857	21747
891.98	21618
892.103	21690
892.226	21504
892.349	21549
892.471	21340
892.594	21507
892.717	21553
892.839	21382
892.962	21504
893.085	21660
893.207	21561
893.33	21367
893.452	21370
893.575	21629
893.697	21485
893.819	21622
893.941	21732
894.064	21603
894.186	21439
894.308	21401
894.43	21587
894.552	21603
894.674	21618
894.796	21466
894.918	21412
895.04	21294
895.161	21534
895.283	21530
895.405	21481
895.526	21393
895.648	21340
895.769	21454
895.891	21515
896.012	21526
896.134	21526
896.255	21416
896.376	21291
896.498	21420
896.619	21488
896.74	21591
896.861	21526
896.982	21713
897.103	21911
897.224	21739
897.345	21606
897.466	21656
897.587	21549
897.708	21759
897.828	21751
897.949	21545
898.07	21545
898.19	21408
898.311	21720
898.431	21473
898.552	21641
898.672	21675
898.792	21633
898.913	21652
899.033	21439
899.153	21435
899.273	21363
899.393	21370
899.513	21389
899.633	21454
899.753	21378
899.873	21203
899.993	21447
900.113	21264
900.232	21374
900.352	21272
900.472	21161
900.591	21161
900.711	21150
900.83	21051
900.95	21264
901.069	21169
901.189	21032
901.308	20762
901.427	20720
901.546	20670
901.665	20765
901.784	20823
901.904	20629
902.023	20400
902.141	20286
902.26	20210
902.379	20168
902.498	20187
902.617	20077
902.735	20301
902.854	20172
902.973	20149
903.091	19871
903.21	19799
903.328	19860
903.446	19898
903.565	19655
903.683	19575
903.801	19529
903.919	19658
904.038	19586
904.156	19464
904.274	19563
904.392	19460
904.51	19407
904.627	19476
904.745	19502
904.863	19518
904.981	19145
905.098	19141
905.216	19065
905.334	19160
905.451	19152
905.569	19015
905.686	19145
905.803	19137
905.921	18856
906.038	18886
906.155	18905
906.272	18753
906.389	18840
906.506	18635
906.623	18620
906.74	18551
906.857	18456
906.974	18494
907.091	18684
907.208	18810
907.324	18631
907.441	18494
907.557	18380
907.674	18361
907.79	18338
907.907	18353
908.023	18342
908.139	18346
908.256	18285
908.372	18247
908.488	18167
908.604	18091
908.72	18007
908.836	18091
908.952	17939
909.068	18034
909.184	18117
909.3	18087
909.415	18121
909.531	18007
909.647	17729
909.762	17695
909.878	17623
909.993	17794
910.108	17745
910.224	17710
910.339	17623
910.454	17573
910.57	17646
910.685	17459
910.8	17748
910.915	17615
911.03	17585
911.145	17345
911.259	17360
911.374	17292
911.489	17299
911.604	17288
911.718	17162
911.833	17025
911.947	16953
912.062	16953
912.176	17071
912.291	17022
912.405	17075
912.519	17235
912.633	17147
912.748	17151
912.862	17064
912.976	16805
913.09	16713
913.204	16843
913.318	16847
913.431	17003
913.545	16908
913.659	16866
913.772	16828
913.886	16694
914	16634
914.113	16721
914.226	16755
914.34	16679
914.453	16561
914.566	16626
914.68	16554
914.793	16455
914.906	16196
915.019	16162
915.132	16143
915.245	16185
915.358	16200
915.47	16238
915.583	16204
915.696	16310
915.809	16333
915.921	16310
916.034	16120
916.146	16097
916.259	16048
916.371	16158
916.483	16181
916.595	16071
916.708	16078
916.82	15937
916.932	15991
917.044	16017
917.156	15956
917.268	15781
917.38	15831
917.491	15876
917.603	15835
917.715	15994
917.826	15816
917.938	15720
918.049	15580
918.161	15770
918.272	15899
918.384	15926
918.495	15709
918.606	15572
918.717	15557
918.828	15644
918.939	15610
919.05	15431
919.161	15424
919.272	15329
919.383	15389
919.494	15572
919.604	15701
919.715	15492
919.826	15431
919.936	15473
920.047	15481
920.157	15515
920.267	15728
920.378	15519
920.488	15477
920.598	15698
920.708	15751
920.818	15686
920.928	15690
921.038	15705
921.148	15633
921.258	15355
921.368	15363
921.477	15180
921.587	15112
921.697	15051
921.806	15218
921.916	15119
922.025	14891
922.134	14838
922.244	14765
922.353	14853
922.462	14697
922.571	14610
922.68	14457
922.789	14473
922.898	14484
923.007	14427
923.116	14465
923.224	14393
923.333	14469
923.442	14256
923.55	14336
923.659	14324
923.767	14396
923.876	14172
923.984	14370
924.092	14202
924.201	14221
924.309	14172
924.417	14145
924.525	14016
924.633	14046
924.741	15058
924.849	13830
924.956	13974
925.064	13898
925.172	13841
925.279	13811
925.387	13799
925.494	13826
925.602	13944
925.709	13898
925.816	13727
925.924	13727
926.031	13803
926.138	13727
926.245	13788
926.352	13662
926.459	13852
926.566	13845
926.673	13636
926.779	13563
926.886	13563
926.993	13426
927.099	13358
927.206	13350
927.312	13308
927.419	13441
927.525	13339
927.631	13457
927.737	13274
927.843	13259
927.95	13187
928.056	13183
928.162	13171
928.267	13240
928.373	13875
928.479	13247
928.585	13000
928.69	13114
928.796	13168
928.901	12962
929.007	12970
929.112	13038
929.218	13019
929.323	12939
929.428	12951
929.533	13008
929.638	12871
929.743	12802
929.848	12928
929.953	12844
930.058	12658
930.163	12551
930.267	12517
930.372	12642
930.477	12506
930.581	12673
930.685	12506
930.79	12410
930.894	12452
930.998	12448
931.103	12483
931.207	12167
931.311	12038
931.415	11942
931.519	11855
931.623	11840
