Data from test_V78500241_1307.txt Node
Date: Fri Mar 25 15:50:51 CST 2022
User: usil
Spectrometer: V785-0024
Trigger mode: 0
Integration Time (sec): 4.000000E-1
Scans to average: 1
Nonlinearity correction enabled: false
Boxcar width: 0
Storing dark spectrum: false
XAxis mode: Wavelengths
Number of Pixels in Spectrum: 1024
>>>>>Begin Spectral Data<<<<<
801.071	28626
801.214	28584
801.356	28303
801.499	28390
801.641	28173
801.783	28109
801.926	28265
802.068	28162
802.211	27907
802.353	28093
802.496	27899
802.638	27854
802.78	27861
802.923	27747
803.065	27785
803.208	27713
803.35	27873
803.492	28078
803.635	28059
803.777	27884
803.919	28013
804.061	28382
804.204	28109
804.346	27987
804.488	27869
804.63	27949
804.773	27922
804.915	28051
805.057	28169
805.199	28109
805.341	28223
805.483	28219
805.626	28261
805.768	28166
805.91	28333
806.052	28265
806.194	28154
806.336	28280
806.478	28185
806.62	28322
806.762	28596
806.904	28554
807.046	28683
807.188	28767
807.33	28854
807.472	28778
807.614	28641
807.756	28649
807.898	28618
808.04	28630
808.182	28485
808.324	28481
808.465	28478
808.607	28778
808.749	28892
808.891	28987
809.033	29086
809.174	28896
809.316	28828
809.458	28904
809.6	28828
809.741	29041
809.883	29170
810.025	29189
810.166	29231
810.308	29151
810.45	29140
810.591	29151
810.733	29071
810.875	28881
811.016	28774
811.158	28972
811.299	28991
811.441	29067
811.582	29109
811.724	28968
811.865	28915
812.007	28919
812.148	28862
812.29	28984
812.431	28911
812.573	29181
812.714	29417
812.855	29490
812.997	29630
813.138	29608
813.279	29619
813.421	29467
813.562	29452
813.703	29258
813.845	29216
813.986	28946
814.127	28725
814.268	28797
814.41	28809
814.551	28763
814.692	28672
814.833	28645
814.974	28615
815.115	28542
815.256	28478
815.397	28401
815.539	28478
815.68	28538
815.821	28481
815.962	28462
816.103	28447
816.244	28401
816.385	28272
816.526	28257
816.666	28029
816.807	28063
816.948	27998
817.089	28070
817.23	28021
817.371	28097
817.512	27914
817.653	28002
817.793	27918
817.934	27846
818.075	28044
818.216	28002
818.356	27983
818.497	27865
818.638	27739
818.778	27679
818.919	27770
819.06	27793
819.2	27816
819.341	27968
819.481	28010
819.622	28124
819.762	28253
819.903	28143
820.043	28226
820.184	28120
820.324	28006
820.465	28154
820.605	28131
820.746	28181
820.886	28013
821.026	28135
821.167	28029
821.307	28070
821.447	28010
821.588	28002
821.728	27663
821.868	27564
822.008	27618
822.149	27488
822.289	27389
822.429	27142
822.569	27085
822.709	27211
822.849	26914
822.99	26994
823.13	27096
823.27	26971
823.41	26598
823.55	26697
823.69	26826
823.83	26773
823.97	26594
824.11	26488
824.25	26571
824.389	26678
824.529	26590
824.669	26625
824.809	26686
824.949	26712
825.089	26621
825.228	26773
825.368	26366
825.508	26492
825.648	26571
825.787	26366
825.927	26552
826.067	26381
826.206	26522
826.346	26606
826.485	26446
826.625	26511
826.765	26617
826.904	26526
827.044	26332
827.183	26195
827.323	26267
827.462	26286
827.601	26355
827.741	26229
827.88	26199
828.02	26130
828.159	26187
828.298	26206
828.437	26301
828.577	26126
828.716	26256
828.855	25997
828.994	25883
829.134	25978
829.273	25936
829.412	25837
829.551	25830
829.69	25906
829.829	26069
829.968	25921
830.107	25921
830.246	25852
830.385	25818
830.524	25845
830.663	25655
830.802	25628
830.941	25540
831.08	25331
831.219	25582
831.357	25601
831.496	25590
831.635	25460
831.774	25445
831.913	25316
832.051	25301
832.19	25228
832.329	25247
832.467	25228
832.606	25156
832.744	25141
832.883	25091
833.022	25076
833.16	25183
833.299	25320
833.437	25206
833.576	25202
833.714	25190
833.852	25327
833.991	25335
834.129	25415
834.267	25339
834.406	25304
834.544	25312
834.682	25259
834.821	25145
834.959	25343
835.097	25080
835.235	25320
835.373	25217
835.511	25209
835.65	25091
835.788	24996
835.926	24981
836.064	24890
836.202	24977
836.34	25031
836.478	25213
836.615	25099
836.753	25042
836.891	25034
837.029	25042
837.167	25000
837.305	24943
837.443	24787
837.58	24882
837.718	25088
837.856	24905
837.993	24840
838.131	24882
838.269	24840
838.406	24840
838.544	24711
838.681	24612
838.819	24505
838.956	24350
839.094	24365
839.231	24422
839.369	24494
839.506	24802
839.643	24604
839.781	24388
839.918	24235
840.055	24395
840.193	24369
840.33	24277
840.467	24327
840.604	24353
840.742	24635
840.879	24057
841.016	24148
841.153	24148
841.29	24357
841.427	24311
841.564	24228
841.701	24125
841.838	24197
841.975	24072
842.112	24095
842.249	24121
842.385	24091
842.522	24167
842.659	24144
842.796	23996
842.933	23999
843.069	23946
843.206	24057
843.343	23954
843.479	23984
843.616	23908
843.752	23882
843.889	23878
844.025	23965
844.162	23821
844.298	23722
844.435	23699
844.571	23783
844.708	23809
844.844	23870
844.98	23802
845.117	23828
845.253	23657
845.389	23615
845.525	23668
845.661	23733
845.798	23448
845.934	23558
846.07	23368
846.206	23585
846.342	23619
846.478	23395
846.614	23204
846.75	23162
846.886	23235
847.022	23296
847.158	23425
847.294	23197
847.429	23292
847.565	23212
847.701	23554
847.837	22942
847.972	22934
848.108	22984
848.244	23143
848.379	22908
848.515	22824
848.65	22896
848.786	22858
848.921	22717
849.057	22869
849.192	22885
849.328	22839
849.463	22801
849.598	22736
849.734	22835
849.869	22596
850.004	22523
850.14	22508
850.275	22542
850.41	22599
850.545	22508
850.68	22622
850.815	22592
850.95	22546
851.085	22615
851.22	22710
851.355	22653
851.49	22478
851.625	22584
851.76	22557
851.895	22542
852.03	22390
852.165	22683
852.299	22653
852.434	22687
852.569	22538
852.703	22584
852.838	22622
852.973	22854
853.107	22679
853.242	22428
853.376	22493
853.511	22291
853.645	22318
853.78	22577
853.914	22337
854.048	22440
854.183	22325
854.317	22398
854.451	22523
854.585	22417
854.72	22344
854.854	22493
854.988	22379
855.122	22325
855.256	22284
855.39	22344
855.524	22402
855.658	22481
855.792	22352
855.926	22443
856.06	22500
856.194	22443
856.327	22417
856.461	22356
856.595	22284
856.729	22428
856.862	22474
856.996	22318
857.13	22535
857.263	22447
857.397	22474
857.53	22417
857.664	22485
857.797	22379
857.931	22554
858.064	22436
858.197	22512
858.331	22367
858.464	22246
858.597	22325
858.731	22421
858.864	22447
858.997	22386
859.13	22276
859.263	22386
859.396	22432
859.529	22382
859.662	22322
859.795	22249
859.928	22352
860.061	22485
860.194	22512
860.327	22523
860.46	22261
860.592	22451
860.725	22653
860.858	22497
860.99	22371
861.123	22329
861.256	22390
861.388	22356
861.521	23109
861.653	22310
861.786	22017
861.918	22291
862.05	22257
862.183	22322
862.315	22314
862.447	22295
862.58	22261
862.712	22055
862.844	22124
862.976	22177
863.108	22078
863.24	22436
863.372	22059
863.504	22131
863.636	21956
863.768	22169
863.9	22131
864.032	22131
864.164	22040
864.296	22204
864.428	22242
864.559	22162
864.691	22196
864.823	22048
864.954	22112
865.086	22139
865.217	22105
865.349	21915
865.48	22010
865.612	21941
865.743	22074
865.875	22093
866.006	21895
866.137	22063
866.269	22040
866.4	21979
866.531	21994
866.662	21880
866.793	21823
866.924	21911
867.055	21926
867.186	21888
867.317	21766
867.448	21793
867.579	21766
867.71	21728
867.841	21812
867.972	21922
868.103	21827
868.233	22067
868.364	21922
868.495	22135
868.625	22131
868.756	22128
868.886	22131
869.017	22173
869.147	22268
869.278	22303
869.408	22147
869.539	22090
869.669	22128
869.799	22067
869.929	22249
870.06	22272
870.19	22451
870.32	22436
870.45	22474
870.58	22535
870.71	22588
870.84	22523
870.97	22588
871.1	22440
871.23	22767
871.36	22675
871.489	22577
871.619	22550
871.749	22691
871.879	22656
872.008	22809
872.138	22778
872.267	22805
872.397	22519
872.526	22668
872.656	22596
872.785	22554
872.915	22767
873.044	22961
873.173	22721
873.303	22831
873.432	22828
873.561	22869
873.69	22752
873.819	22816
873.948	22797
874.077	22733
874.206	22694
874.335	22820
874.464	22968
874.593	22919
874.722	22885
874.851	23143
874.979	22915
875.108	23113
875.237	22869
875.365	22782
875.494	22976
875.623	23003
875.751	22972
875.88	22965
876.008	23174
876.136	23204
876.265	23250
876.393	23433
876.521	23296
876.65	23478
876.778	23322
876.906	23322
877.034	23227
877.162	23307
877.29	23128
877.418	23326
877.546	23273
877.674	23292
877.802	23258
877.93	23261
878.058	23269
878.185	23246
878.313	23220
878.441	23273
878.568	23197
878.696	23239
878.824	23356
878.951	23452
879.079	23402
879.206	23604
879.333	23444
879.461	23353
879.588	23395
879.715	23531
879.842	23592
879.97	23455
880.097	23105
880.224	23231
880.351	23105
880.478	23216
880.605	23064
880.732	23124
880.859	23364
880.986	23022
881.112	23052
881.239	23029
881.366	22873
881.493	22748
881.619	22713
881.746	22736
881.872	22660
881.999	22573
882.125	22573
882.252	22706
882.378	22557
882.505	22797
882.631	22535
882.757	22421
882.883	22402
883.01	22519
883.136	22341
883.262	22219
883.388	22185
883.514	22291
883.64	22398
883.766	22188
883.892	22272
884.018	22135
884.143	22287
884.269	22386
884.395	22055
884.52	21941
884.646	22025
884.772	21903
884.897	21964
885.023	22010
885.148	22078
885.274	22090
885.399	22162
885.524	22032
885.65	21964
885.775	21892
885.9	22017
886.025	22082
886.15	22078
886.275	22086
886.4	21907
886.525	22051
886.65	21838
886.775	21892
886.9	22150
887.025	22154
887.149	21949
887.274	21846
887.399	21873
887.523	21789
887.648	21648
887.773	21816
887.897	21717
888.021	21907
888.146	21736
888.27	21907
888.395	21873
888.519	21857
888.643	21816
888.767	21785
888.891	21641
889.015	21656
889.139	21500
889.263	21542
889.387	21564
889.511	21686
889.635	21724
889.759	21443
889.883	21462
890.006	21599
890.13	21599
890.254	21439
890.377	21538
890.501	21321
890.624	21279
890.748	21241
890.871	21211
890.995	21074
891.118	21089
891.241	21093
891.364	20941
891.488	21161
891.611	21104
891.734	21112
891.857	21180
891.98	21150
892.103	21108
892.226	21176
892.349	21001
892.471	20834
892.594	21024
892.717	20998
892.839	20982
892.962	20982
893.085	21085
893.207	20948
893.33	20853
893.452	20883
893.575	20960
893.697	20918
893.819	21104
893.941	21268
894.064	21157
894.186	20994
894.308	20864
894.43	20967
894.552	21017
894.674	21135
894.796	20853
894.918	20880
895.04	20944
895.161	20982
895.283	20960
895.405	20925
895.526	21001
895.648	20849
895.769	21119
895.891	21028
896.012	21055
896.134	21001
896.255	20880
896.376	20845
896.498	21043
896.619	21066
896.74	20925
896.861	20918
896.982	21275
897.103	21393
897.224	21199
897.345	21245
897.466	21036
897.587	21131
897.708	21237
897.828	21218
897.949	21161
898.07	21013
898.19	21066
898.311	21237
898.431	21085
898.552	21051
898.672	21233
898.792	21192
898.913	21127
899.033	21058
899.153	20887
899.273	20754
899.393	20792
899.513	20994
899.633	21047
899.753	20887
899.873	20838
899.993	21047
900.113	20887
900.232	20754
900.352	20823
900.472	20754
900.591	20701
900.711	20682
900.83	20667
900.95	20750
901.069	20712
901.189	20659
901.308	20324
901.427	20168
901.546	20275
901.665	20313
901.784	20180
901.904	20062
902.023	20008
902.141	19826
902.26	19868
902.379	19841
902.498	19761
902.617	19719
902.735	19727
902.854	19647
902.973	19662
903.091	19449
903.21	19506
903.328	19449
903.446	19228
903.565	19301
903.683	19160
903.801	19137
903.919	19232
904.038	19118
904.156	18920
904.274	19091
904.392	18852
904.51	18897
904.627	18848
904.745	19038
904.863	18837
904.981	18753
905.098	18677
905.216	18597
905.334	18589
905.451	18608
905.569	18506
905.686	18593
905.803	18646
905.921	18448
906.038	18483
906.155	18475
906.272	18285
906.389	18365
906.506	18182
906.623	18213
906.74	18087
906.857	18102
906.974	18121
907.091	18296
907.208	18266
907.324	18174
907.441	17988
907.557	17882
907.674	17859
907.79	17813
907.907	17912
908.023	17878
908.139	17878
908.256	17771
908.372	17729
908.488	17733
908.604	17649
908.72	17608
908.836	17585
908.952	17535
909.068	17691
909.184	17680
909.3	17524
909.415	17676
909.531	17516
909.647	17372
909.762	17223
909.878	17223
909.993	17379
910.108	17307
910.224	17159
910.339	17216
910.454	17143
910.57	17006
910.685	17029
910.8	17227
910.915	17197
911.03	17189
911.145	16942
911.259	16892
911.374	16755
911.489	16786
911.604	16645
911.718	16558
911.833	16584
911.947	16497
912.062	16497
912.176	16592
912.291	16687
912.405	16542
912.519	16828
912.633	16752
912.748	16740
912.862	16656
912.976	16459
913.09	16181
913.204	16451
913.318	16363
913.431	16561
913.545	16398
913.659	16451
913.772	16344
913.886	16249
914	16215
914.113	16348
914.226	16257
914.34	16261
914.453	16139
914.566	16204
914.68	16147
914.793	16059
914.906	15800
915.019	15781
915.132	15690
915.245	15793
915.358	15812
915.47	15808
915.583	15743
915.696	15842
915.809	15888
915.921	15937
916.034	15694
916.146	15633
916.259	15561
916.371	15850
916.483	15709
916.595	15603
916.708	15679
916.82	15625
916.932	15496
917.044	15606
917.156	15584
917.268	15397
917.38	15549
917.491	15386
917.603	15462
917.715	15477
917.826	15405
917.938	15397
918.049	15218
918.161	15389
918.272	15488
918.384	15515
918.495	15340
918.606	15233
918.717	15165
918.828	15135
918.939	15154
919.05	15157
919.161	15123
919.272	14910
919.383	14941
919.494	15173
919.604	15344
919.715	15142
919.826	15028
919.936	15047
920.047	15123
920.157	15058
920.267	15230
920.378	15169
920.488	15039
920.598	15252
920.708	15412
920.818	15313
920.928	15192
921.038	15408
921.148	15374
921.258	15070
921.368	14986
921.477	14887
921.587	14773
921.697	14735
921.806	14899
921.916	14667
922.025	14579
922.134	14465
922.244	14469
922.353	14419
922.462	14370
922.571	14328
922.68	14100
922.789	14069
922.898	14138
923.007	13970
923.116	14195
923.224	13997
923.333	14103
923.442	13959
923.55	13864
923.659	14020
923.767	13955
923.876	13822
923.984	13917
924.092	13906
924.201	13837
924.309	13731
924.417	13746
924.525	13811
924.633	13734
924.741	14788
924.849	13643
924.956	13647
925.064	13487
925.172	13499
925.279	13434
925.387	13556
925.494	13548
925.602	13643
925.709	13540
925.816	13373
925.924	13567
926.031	13540
926.138	13381
926.245	13430
926.352	13339
926.459	13400
926.566	13400
926.673	13362
926.779	13179
926.886	13171
926.993	13038
927.099	13061
927.206	13015
927.312	12894
927.419	13061
927.525	12977
927.631	13012
927.737	12939
927.843	12844
927.95	12719
928.056	12852
928.162	12871
928.267	12932
928.373	13468
928.479	12814
928.585	12692
928.69	12760
928.796	12840
928.901	12692
929.007	12570
929.112	12673
929.218	12623
929.323	12547
929.428	12521
929.533	12639
929.638	12525
929.743	12490
929.848	12483
929.953	12547
930.058	12323
930.163	12243
930.267	12270
930.372	12361
930.477	12182
930.581	12403
930.685	12289
930.79	12091
930.894	12167
930.998	12003
931.103	12155
931.207	11878
931.311	11866
931.415	11676
931.519	11520
931.623	11474
