Data from test_V78500241_2702.txt Node
Date: Fri Mar 25 16:00:31 CST 2022
User: usil
Spectrometer: V785-0024
Trigger mode: 0
Integration Time (sec): 4.000000E-1
Scans to average: 1
Nonlinearity correction enabled: false
Boxcar width: 0
Storing dark spectrum: false
XAxis mode: Wavelengths
Number of Pixels in Spectrum: 1024
>>>>>Begin Spectral Data<<<<<
801.071	28713
801.214	28630
801.356	28546
801.499	28341
801.641	28428
801.783	28265
801.926	28440
802.068	28280
802.211	28318
802.353	28226
802.496	27998
802.638	27930
802.78	27975
802.923	27850
803.065	27857
803.208	27956
803.35	27979
803.492	28158
803.635	28086
803.777	28059
803.919	28147
804.061	28542
804.204	28185
804.346	28097
804.488	28070
804.63	28314
804.773	28188
804.915	28158
805.057	28344
805.199	28284
805.341	28280
805.483	28238
805.626	28542
805.768	28238
805.91	28211
806.052	28386
806.194	28177
806.336	28447
806.478	28333
806.62	28344
806.762	28519
806.904	28516
807.046	28908
807.188	28771
807.33	28740
807.472	28942
807.614	28736
807.756	28717
807.898	28626
808.04	28546
808.182	28596
808.324	28641
808.465	28702
808.607	28885
808.749	28987
808.891	29079
809.033	29250
809.174	29208
809.316	29185
809.458	28908
809.6	28869
809.741	29067
809.883	29113
810.025	29368
810.166	29356
810.308	29208
810.45	29159
810.591	29356
810.733	29090
810.875	29029
811.016	29052
811.158	28957
811.299	29048
811.441	29098
811.582	29083
811.724	28972
811.865	29014
812.007	29044
812.148	29159
812.29	29025
812.431	29159
812.573	29444
812.714	29391
812.855	29573
812.997	29558
813.138	29897
813.279	29775
813.421	29665
813.562	29387
813.703	29383
813.845	29189
813.986	28976
814.127	28938
814.268	28733
814.41	28839
814.551	28694
814.692	28679
814.833	28664
814.974	28603
815.115	28946
815.256	28546
815.397	28721
815.539	28538
815.68	28580
815.821	28478
815.962	28748
816.103	28493
816.244	28390
816.385	28242
816.526	28379
816.666	28306
816.807	28036
816.948	28051
817.089	28253
817.23	28044
817.371	28086
817.512	28059
817.653	27956
817.793	28017
817.934	28086
818.075	28010
818.216	28109
818.356	27960
818.497	27911
818.638	27892
818.778	27827
818.919	27861
819.06	27884
819.2	27972
819.341	28059
819.481	28021
819.622	28181
819.762	28508
819.903	28265
820.043	28272
820.184	28234
820.324	28249
820.465	28154
820.605	28219
820.746	28192
820.886	27983
821.026	28150
821.167	28162
821.307	28253
821.447	27979
821.588	28025
821.728	27934
821.868	27770
822.008	27580
822.149	27595
822.289	27412
822.429	27306
822.569	27184
822.709	27116
822.849	27127
822.99	27104
823.13	26883
823.27	26998
823.41	26804
823.55	26712
823.69	26948
823.83	26785
823.97	26708
824.11	26701
824.25	26575
824.389	26590
824.529	26895
824.669	26804
824.809	26735
824.949	26716
825.089	26648
825.228	26720
825.368	26697
825.508	26457
825.648	26469
825.787	26636
825.927	26571
826.067	26533
826.206	26560
826.346	26583
826.485	26659
826.625	26492
826.765	26682
826.904	26549
827.044	26282
827.183	26385
827.323	26286
827.462	26237
827.601	26225
827.741	26256
827.88	26210
828.02	26233
828.159	26408
828.298	26320
828.437	26305
828.577	26362
828.716	26317
828.855	26282
828.994	25970
829.134	25955
829.273	26031
829.412	25928
829.551	25947
829.69	26031
829.829	25925
829.968	25974
830.107	26043
830.246	26077
830.385	25997
830.524	26016
830.663	25803
830.802	25807
830.941	25597
831.08	25552
831.219	25662
831.357	25719
831.496	25932
831.635	25750
831.774	25548
831.913	25438
832.051	25499
832.19	25346
832.329	25381
832.467	25320
832.606	25107
832.744	25236
832.883	25251
833.022	25289
833.16	25156
833.299	25247
833.437	25289
833.576	25354
833.714	25411
833.852	25350
833.991	25354
834.129	25537
834.267	25464
834.406	25381
834.544	25316
834.682	25335
834.821	25263
834.959	25544
835.097	25316
835.235	25312
835.373	25339
835.511	25324
835.65	25110
835.788	25179
835.926	25053
836.064	24981
836.202	24981
836.34	25171
836.478	25282
836.615	25289
836.753	25221
836.891	25209
837.029	25194
837.167	25057
837.305	24996
837.443	25065
837.58	25034
837.718	24970
837.856	24962
837.993	25019
838.131	24886
838.269	24890
838.406	25023
838.544	24760
838.681	24555
838.819	24559
838.956	24502
839.094	24422
839.231	24494
839.369	24681
839.506	24810
839.643	24722
839.781	24551
839.918	24403
840.055	24456
840.193	24426
840.33	24323
840.467	24426
840.604	24273
840.742	24722
840.879	24388
841.016	24315
841.153	24334
841.29	24460
841.427	24456
841.564	24369
841.701	24445
841.838	24384
841.975	24201
842.112	24247
842.249	24148
842.385	24186
842.522	24186
842.659	24228
842.796	24197
842.933	24167
843.069	24026
843.206	24121
843.343	24072
843.479	24201
843.616	24079
843.752	23965
843.889	23931
844.025	24091
844.162	23935
844.298	23939
844.435	23847
844.571	23897
844.708	23885
844.844	24003
844.98	24041
845.117	23996
845.253	23786
845.389	23729
845.525	23779
845.661	23729
845.798	23554
845.934	23684
846.07	23577
846.206	23592
846.342	23657
846.478	23642
846.614	23395
846.75	23216
846.886	23383
847.022	23387
847.158	23429
847.294	23299
847.429	23368
847.565	23334
847.701	23551
847.837	23105
847.972	23090
848.108	23307
848.244	23132
848.379	22991
848.515	22919
848.65	22881
848.786	22862
848.921	22839
849.057	22968
849.192	22968
849.328	23003
849.463	22984
849.598	22915
849.734	22702
849.869	22828
850.004	22664
850.14	22683
850.275	22809
850.41	22725
850.545	22607
850.68	22805
850.815	22740
850.95	22660
851.085	22839
851.22	22938
851.355	22656
851.49	22630
851.625	22771
851.76	22649
851.895	22554
852.03	22679
852.165	22660
852.299	22664
852.434	22805
852.569	22694
852.703	22694
852.838	22755
852.973	22763
853.107	22790
853.242	22736
853.376	22497
853.511	22405
853.645	22573
853.78	22599
853.914	22504
854.048	22470
854.183	22531
854.317	22405
854.451	22660
854.585	22512
854.72	22519
854.854	22557
854.988	22394
855.122	22451
855.256	22432
855.39	22603
855.524	22459
855.658	22592
855.792	22470
855.926	22531
856.06	22573
856.194	22611
856.327	22573
856.461	22523
856.595	22542
856.729	22436
856.862	22721
856.996	22550
857.13	22580
857.263	22710
857.397	22516
857.53	22535
857.664	22744
857.797	22531
857.931	22557
858.064	22603
858.197	22649
858.331	22504
858.464	22451
858.597	22409
858.731	22462
858.864	22455
858.997	22481
859.13	22523
859.263	22504
859.396	22588
859.529	22603
859.662	22470
859.795	22405
859.928	22523
860.061	22698
860.194	22828
860.327	22577
860.46	22508
860.592	22675
860.725	22717
860.858	22603
860.99	22447
861.123	22580
861.256	22375
861.388	22607
861.521	23258
861.653	22504
861.786	22295
861.918	22466
862.05	22394
862.183	22386
862.315	22375
862.447	22508
862.58	22436
862.712	22166
862.844	22109
862.976	22306
863.108	22356
863.24	22607
863.372	22078
863.504	22192
863.636	22238
863.768	22295
863.9	22207
864.032	22051
864.164	22204
864.296	22185
864.428	22253
864.559	22310
864.691	22360
864.823	22242
864.954	22234
865.086	22173
865.217	22040
865.349	22063
865.48	22112
865.612	22116
865.743	22318
865.875	22135
866.006	22032
866.137	22070
866.269	22211
866.4	22158
866.531	22051
866.662	22067
866.793	22013
866.924	22032
867.055	22124
867.186	21975
867.317	22013
867.448	21975
867.579	22059
867.71	21880
867.841	21953
867.972	22147
868.103	22048
868.233	21968
868.364	22021
868.495	22215
868.625	22348
868.756	22421
868.886	22169
869.017	22204
869.147	22280
869.278	22344
869.408	22356
869.539	22143
869.669	22352
869.799	22341
869.929	22291
870.06	22394
870.19	22603
870.32	22573
870.45	22645
870.58	22626
870.71	22717
870.84	22721
870.97	22702
871.1	22778
871.23	22839
871.36	22759
871.489	22721
871.619	22835
871.749	22839
871.879	22911
872.008	22980
872.138	22953
872.267	22843
872.397	22698
872.526	22767
872.656	22675
872.785	22656
872.915	22831
873.044	22976
873.173	22881
873.303	23056
873.432	23029
873.561	22938
873.69	22957
873.819	22854
873.948	22965
874.077	23029
874.206	22869
874.335	22938
874.464	22911
874.593	23227
874.722	23041
874.851	23124
874.979	23136
875.108	23094
875.237	23067
875.365	22965
875.494	23052
875.623	23181
875.751	23140
875.88	23067
876.008	23197
876.136	23315
876.265	23486
876.393	23661
876.521	23653
876.65	23535
876.778	23570
876.906	23376
877.034	23452
877.162	23490
877.29	23368
877.418	23410
877.546	23414
877.674	23528
877.802	23444
877.93	23356
878.058	23345
878.185	23288
878.313	23452
878.441	23417
878.568	23181
878.696	23402
878.824	23433
878.951	23459
879.079	23493
879.206	23680
879.333	23577
879.461	23364
879.588	23634
879.715	23524
879.842	23802
879.97	23554
880.097	23296
880.224	23227
880.351	23353
880.478	23311
880.605	23239
880.732	23231
880.859	23452
880.986	23280
881.112	23341
881.239	23117
881.366	23105
881.493	22923
881.619	22698
881.746	22843
881.872	22763
881.999	22778
882.125	22691
882.252	22793
882.378	22923
882.505	22919
882.631	22588
882.757	22504
882.883	22603
883.01	22580
883.136	22402
883.262	22276
883.388	22230
883.514	22550
883.64	22580
883.766	22413
883.892	22303
884.018	22318
884.143	22455
884.269	22542
884.395	22173
884.52	22143
884.646	22166
884.772	22116
884.897	22074
885.023	22234
885.148	22325
885.274	22310
885.399	22226
885.524	22048
885.65	22185
885.775	22128
885.9	22059
886.025	22097
886.15	22173
886.275	22048
886.4	21979
886.525	22120
886.65	22021
886.775	21994
886.9	22272
887.025	22337
887.149	21994
887.274	21934
887.399	21903
887.523	21972
887.648	21778
887.773	21823
887.897	22013
888.021	21949
888.146	21838
888.27	21934
888.395	21838
888.519	21873
888.643	21915
888.767	21865
888.891	21778
889.015	21625
889.139	21816
889.263	21603
889.387	21709
889.511	21949
889.635	21819
889.759	21747
889.883	21553
890.006	21739
890.13	21663
890.254	21652
890.377	21530
890.501	21420
890.624	21310
890.748	21526
890.871	21298
890.995	21272
891.118	21157
891.241	21207
891.364	21272
891.488	21389
891.611	21199
891.734	21203
891.857	21264
891.98	21180
892.103	21146
892.226	21154
892.349	21131
892.471	20910
892.594	21119
892.717	21173
892.839	21028
892.962	21188
893.085	21245
893.207	21199
893.33	20933
893.452	21009
893.575	21150
893.697	21207
893.819	21226
893.941	21287
894.064	21230
894.186	20982
894.308	21085
894.43	21127
894.552	21119
894.674	21207
894.796	20895
894.918	20971
895.04	21055
895.161	21180
895.283	21116
895.405	21104
895.526	21085
895.648	21108
895.769	21055
895.891	21104
896.012	21081
896.134	21085
896.255	21074
896.376	21039
896.498	21062
896.619	21176
896.74	21100
896.861	21146
896.982	21340
897.103	21408
897.224	21233
897.345	21340
897.466	21283
897.587	21218
897.708	21462
897.828	21420
897.949	21241
898.07	21230
898.19	21226
898.311	21294
898.431	21256
898.552	21321
898.672	21367
898.792	21287
898.913	21332
899.033	21218
899.153	21062
899.273	20960
899.393	20971
899.513	21005
899.633	21123
899.753	21135
899.873	20956
899.993	21127
900.113	20948
900.232	20971
900.352	20872
900.472	20830
900.591	20743
900.711	20838
900.83	20792
900.95	20998
901.069	20952
901.189	20594
901.308	20454
901.427	20278
901.546	20434
901.665	20336
901.784	20290
901.904	20233
902.023	20172
902.141	19845
902.26	19833
902.379	19932
902.498	19864
902.617	19814
902.735	19837
902.854	19769
902.973	19757
903.091	19525
903.21	19674
903.328	19544
903.446	19434
903.565	19388
903.683	19240
903.801	19187
903.919	19289
904.038	19278
904.156	19137
904.274	19194
904.392	19000
904.51	19080
904.627	19072
904.745	19072
904.863	19129
904.981	18871
905.098	18684
905.216	18798
905.334	18768
905.451	18726
905.569	18692
905.686	18825
905.803	18681
905.921	18566
906.038	18642
906.155	18623
906.272	18471
906.389	18407
906.506	18254
906.623	18407
906.74	18289
906.857	18254
906.974	18140
907.091	18308
907.208	18410
907.324	18190
907.441	18106
907.557	17931
907.674	17889
907.79	17961
907.907	18053
908.023	17988
908.139	18129
908.256	17882
908.372	17726
908.488	17794
908.604	17676
908.72	17680
908.836	17783
908.952	17726
909.068	17695
909.184	17767
909.3	17585
909.415	17718
909.531	17691
909.647	17425
909.762	17356
909.878	17406
909.993	17337
910.108	17269
910.224	17341
910.339	17315
910.454	17341
910.57	17178
910.685	17041
910.8	17467
910.915	17315
911.03	17193
911.145	17048
911.259	17033
911.374	16927
911.489	16923
911.604	16908
911.718	16771
911.833	16702
911.947	16542
912.062	16489
912.176	16607
912.291	16721
912.405	16752
912.519	16873
912.633	16877
912.748	16763
912.862	16706
912.976	16485
913.09	16314
913.204	16428
913.318	16443
913.431	16580
913.545	16497
913.659	16668
913.772	16436
913.886	16322
914	16341
914.113	16398
914.226	16363
914.34	16234
914.453	16200
914.566	16329
914.68	16166
914.793	16124
914.906	15888
915.019	15880
915.132	15838
915.245	15850
915.358	16006
915.47	15861
915.583	15861
915.696	15823
915.809	16010
915.921	15953
916.034	15701
916.146	15698
916.259	15732
916.371	15823
916.483	15831
916.595	15713
916.708	15572
916.82	15660
916.932	15644
917.044	15526
917.156	15557
917.268	15473
917.38	15580
917.491	15443
917.603	15504
917.715	15542
917.826	15549
917.938	15401
918.049	15374
918.161	15481
918.272	15587
918.384	15568
918.495	15447
918.606	15294
918.717	15104
918.828	15192
918.939	15237
919.05	15100
919.161	15291
919.272	15005
919.383	15112
919.494	15321
919.604	15492
919.715	15199
919.826	15116
919.936	15074
920.047	15222
920.157	15279
920.267	15370
920.378	15195
920.488	15135
920.598	15481
920.708	15504
920.818	15355
920.928	15302
921.038	15450
921.148	15275
921.258	15188
921.368	15017
921.477	14956
921.587	14899
921.697	14727
921.806	14910
921.916	14823
922.025	14644
922.134	14522
922.244	14495
922.353	14560
922.462	14431
922.571	14320
922.68	14164
922.789	14218
922.898	14176
923.007	14100
923.116	14202
923.224	14172
923.333	14195
923.442	13997
923.55	13989
923.659	13986
923.767	14024
923.876	13913
923.984	14046
924.092	13879
924.201	13967
924.309	13833
924.417	13925
924.525	13746
924.633	13814
924.741	14807
924.849	13674
924.956	13776
925.064	13685
925.172	13559
925.279	13502
925.387	13563
925.494	13525
925.602	13674
925.709	13540
925.816	13499
925.924	13529
926.031	13567
926.138	13552
926.245	13457
926.352	13362
926.459	13487
926.566	13533
926.673	13400
926.779	13225
926.886	13312
926.993	13225
927.099	13156
927.206	13118
927.312	13076
927.419	13217
927.525	13080
927.631	13198
927.737	13019
927.843	12905
927.95	12833
928.056	12985
928.162	12973
928.267	12958
928.373	13430
928.479	13034
928.585	12650
928.69	12848
928.796	12856
928.901	12791
929.007	12692
929.112	12734
929.218	12844
929.323	12616
929.428	12639
929.533	12688
929.638	12578
929.743	12513
929.848	12639
929.953	12566
930.058	12365
930.163	12304
930.267	12350
930.372	12429
930.477	12243
930.581	12517
930.685	12232
930.79	12148
930.894	12201
930.998	12125
931.103	12235
931.207	11893
931.311	11870
931.415	11775
931.519	11604
931.623	11486
