Data from test_V78500241_1850.txt Node
Date: Fri Mar 25 15:54:36 CST 2022
User: usil
Spectrometer: V785-0024
Trigger mode: 0
Integration Time (sec): 4.000000E-1
Scans to average: 1
Nonlinearity correction enabled: false
Boxcar width: 0
Storing dark spectrum: false
XAxis mode: Wavelengths
Number of Pixels in Spectrum: 1024
>>>>>Begin Spectral Data<<<<<
801.071	28561
801.214	28561
801.356	28379
801.499	28306
801.641	28048
801.783	28147
801.926	28253
802.068	28093
802.211	28063
802.353	27934
802.496	27869
802.638	27808
802.78	27713
802.923	27819
803.065	27686
803.208	27759
803.35	27793
803.492	27835
803.635	27934
803.777	27941
803.919	28013
804.061	28360
804.204	28067
804.346	28013
804.488	27918
804.63	27983
804.773	27979
804.915	28154
805.057	28204
805.199	28021
805.341	28150
805.483	28067
805.626	28169
805.768	28109
805.91	28181
806.052	28078
806.194	28109
806.336	28242
806.478	28188
806.62	28032
806.762	28249
806.904	28489
807.046	28618
807.188	28679
807.33	28573
807.472	28637
807.614	28615
807.756	28580
807.898	28436
808.04	28322
808.182	28443
808.324	28596
808.465	28599
808.607	28748
808.749	28850
808.891	28862
809.033	28896
809.174	28968
809.316	28847
809.458	28892
809.6	28949
809.741	29003
809.883	29018
810.025	29105
810.166	29071
810.308	29083
810.45	29052
810.591	29006
810.733	28957
810.875	28843
811.016	28736
811.158	28649
811.299	28949
811.441	28957
811.582	28949
811.724	28953
811.865	28771
812.007	28721
812.148	28793
812.29	28961
812.431	28995
812.573	29208
812.714	29383
812.855	29364
812.997	29482
813.138	29528
813.279	29463
813.421	29239
813.562	29296
813.703	29121
813.845	29155
813.986	28752
814.127	28634
814.268	28440
814.41	28481
814.551	28371
814.692	28489
814.833	28554
814.974	28440
815.115	28565
815.256	28379
815.397	28382
815.539	28523
815.68	28268
815.821	28276
815.962	28306
816.103	28367
816.244	28242
816.385	28211
816.526	28006
816.666	27968
816.807	27823
816.948	28055
817.089	27888
817.23	27823
817.371	27869
817.512	27808
817.653	27831
817.793	27778
817.934	27846
818.075	28029
818.216	27781
818.356	27831
818.497	27603
818.638	27606
818.778	27576
818.919	27644
819.06	27652
819.2	27656
819.341	27823
819.481	27778
819.622	27865
819.762	28207
819.903	28067
820.043	27975
820.184	27914
820.324	27998
820.465	28147
820.605	28067
820.746	27800
820.886	27781
821.026	27816
821.167	27850
821.307	28006
821.447	27869
821.588	27747
821.728	27686
821.868	27542
822.008	27325
822.149	27302
822.289	27427
822.429	27085
822.569	27055
822.709	26891
822.849	26872
822.99	26861
823.13	26769
823.27	26811
823.41	26815
823.55	26606
823.69	26663
823.83	26636
823.97	26533
824.11	26400
824.25	26370
824.389	26549
824.529	26374
824.669	26438
824.809	26545
824.949	26511
825.089	26549
825.228	26476
825.368	26351
825.508	26259
825.648	26317
825.787	26404
825.927	26461
826.067	26320
826.206	26339
826.346	26240
826.485	26313
826.625	26385
826.765	26473
826.904	26362
827.044	26187
827.183	26161
827.323	26031
827.462	26111
827.601	26008
827.741	26039
827.88	26050
828.02	26035
828.159	26126
828.298	25982
828.437	26088
828.577	25963
828.716	26096
828.855	25997
828.994	25799
829.134	25723
829.273	25818
829.412	25818
829.551	25620
829.69	25788
829.829	25833
829.968	25993
830.107	25769
830.246	25731
830.385	25521
830.524	25502
830.663	25674
830.802	25563
830.941	25358
831.08	25327
831.219	25430
831.357	25388
831.496	25719
831.635	25502
831.774	25282
831.913	25156
832.051	25129
832.19	25145
832.329	25217
832.467	24970
832.606	24996
832.744	25072
832.883	24951
833.022	25012
833.16	24878
833.299	25065
833.437	25183
833.576	25137
833.714	25088
833.852	25091
833.991	25232
834.129	25160
834.267	25080
834.406	25012
834.544	25114
834.682	25107
834.821	24954
834.959	25228
835.097	25042
835.235	24973
835.373	25137
835.511	25110
835.65	24856
835.788	24913
835.926	24772
836.064	24703
836.202	24795
836.34	24966
836.478	25046
836.615	24943
836.753	24901
836.891	24909
837.029	24867
837.167	24924
837.305	24764
837.443	24688
837.58	24715
837.718	24798
837.856	24741
837.993	24772
838.131	24612
838.269	24517
838.406	24582
838.544	24460
838.681	24490
838.819	24285
838.956	24167
839.094	24190
839.231	24342
839.369	24353
839.506	24604
839.643	24445
839.781	24083
839.918	24353
840.055	24091
840.193	24091
840.33	24045
840.467	24091
840.604	24030
840.742	24254
840.879	23935
841.016	23954
841.153	24007
841.29	24106
841.427	24110
841.564	24087
841.701	24076
841.838	23958
841.975	23992
842.112	23969
842.249	23931
842.385	23954
842.522	24022
842.659	23885
842.796	23882
842.933	23874
843.069	23836
843.206	23851
843.343	23965
843.479	23840
843.616	23878
843.752	23646
843.889	23634
844.025	23805
844.162	23623
844.298	23790
844.435	23634
844.571	23653
844.708	23547
844.844	23832
844.98	23726
845.117	23741
845.253	23551
845.389	23478
845.525	23471
845.661	23471
845.798	23326
845.934	23444
846.07	23334
846.206	23341
846.342	23554
846.478	23269
846.614	23094
846.75	23029
846.886	23048
847.022	23079
847.158	23064
847.294	23140
847.429	23037
847.565	23090
847.701	23250
847.837	22790
847.972	22694
848.108	22980
848.244	23006
848.379	22736
848.515	22649
848.65	22641
848.786	22733
848.921	22649
849.057	22812
849.192	22748
849.328	22717
849.463	22622
849.598	22649
849.734	22519
849.869	22599
850.004	22455
850.14	22424
850.275	22588
850.41	22405
850.545	22371
850.68	22447
850.815	22409
850.95	22421
851.085	22740
851.22	22592
851.355	22542
851.49	22538
851.625	22367
851.76	22348
851.895	22409
852.03	22402
852.165	22367
852.299	22409
852.434	22611
852.569	22512
852.703	22432
852.838	22443
852.973	22535
853.107	22630
853.242	22375
853.376	22219
853.511	22150
853.645	22207
853.78	22382
853.914	22188
854.048	22356
854.183	22303
854.317	22310
854.451	22512
854.585	22215
854.72	22280
854.854	22367
854.988	22268
855.122	22409
855.256	22261
855.39	22333
855.524	22402
855.658	22211
855.792	22280
855.926	22272
856.06	22398
856.194	22325
856.327	22348
856.461	22272
856.595	22143
856.729	22226
856.862	22405
856.996	22253
857.13	22303
857.263	22474
857.397	22424
857.53	22333
857.664	22394
857.797	22402
857.931	22413
858.064	22204
858.197	22421
858.331	22238
858.464	22318
858.597	22226
858.731	22360
858.864	22219
858.997	22067
859.13	22181
859.263	22287
859.396	22322
859.529	22261
859.662	22242
859.795	22299
859.928	22207
860.061	22234
860.194	22462
860.327	22257
860.46	22344
860.592	22295
860.725	22421
860.858	22394
860.99	22337
861.123	22120
861.256	22306
861.388	22295
861.521	23075
861.653	22242
861.786	22070
861.918	21956
862.05	22314
862.183	22215
862.315	22234
862.447	22238
862.58	22162
862.712	22074
862.844	21884
862.976	22055
863.108	21941
863.24	22310
863.372	21842
863.504	21983
863.636	22013
863.768	21926
863.9	21987
864.032	21880
864.164	21987
864.296	22093
864.428	21987
864.559	22070
864.691	21953
864.823	21960
864.954	21937
865.086	21915
865.217	21930
865.349	21671
865.48	21873
865.612	21899
865.743	22017
865.875	21922
866.006	21854
866.137	21785
866.269	21816
866.4	21835
866.531	21747
866.662	21720
866.793	21816
866.924	21785
867.055	21899
867.186	21724
867.317	21831
867.448	21694
867.579	21778
867.71	21583
867.841	21648
867.972	21804
868.103	21698
868.233	21819
868.364	21747
868.495	21892
868.625	21956
868.756	22150
868.886	21953
869.017	22025
869.147	22078
869.278	22093
869.408	21983
869.539	21838
869.669	22059
869.799	22116
869.929	22185
870.06	22249
870.19	22322
870.32	22268
870.45	22242
870.58	22379
870.71	22405
870.84	22436
870.97	22268
871.1	22489
871.23	22379
871.36	22599
871.489	22710
871.619	22649
871.749	22546
871.879	22668
872.008	22786
872.138	22710
872.267	22584
872.397	22508
872.526	22360
872.656	22577
872.785	22432
872.915	22538
873.044	22710
873.173	22725
873.303	22881
873.432	22721
873.561	22805
873.69	22637
873.819	22645
873.948	22778
874.077	22645
874.206	22641
874.335	22596
874.464	22713
874.593	22847
874.722	22835
874.851	22862
874.979	22839
875.108	22862
875.237	22740
875.365	22771
875.494	22850
875.623	22972
875.751	22797
875.88	22771
876.008	22976
876.136	22938
876.265	23265
876.393	23326
876.521	23254
876.65	23345
876.778	23273
876.906	23086
877.034	23231
877.162	23022
877.29	23170
877.418	23334
877.546	23239
877.674	23174
877.802	23052
877.93	23151
878.058	23102
878.185	23162
878.313	23098
878.441	23178
878.568	23018
878.696	23064
878.824	23246
878.951	23261
879.079	23490
879.206	23478
879.333	23269
879.461	23239
879.588	23322
879.715	23391
879.842	23421
879.97	23299
880.097	23003
880.224	23060
880.351	23083
880.478	23064
880.605	22987
880.732	23025
880.859	23235
880.986	22995
881.112	22961
881.239	22900
881.366	22694
881.493	22565
881.619	22630
881.746	22569
881.872	22725
881.999	22493
882.125	22500
882.252	22698
882.378	22512
882.505	22622
882.631	22497
882.757	22204
882.883	22344
883.01	22341
883.136	22261
883.262	22196
883.388	22109
883.514	22211
883.64	22265
883.766	22276
883.892	21968
884.018	22204
884.143	22303
884.269	22344
884.395	21968
884.52	21793
884.646	21934
884.772	21831
884.897	21827
885.023	21819
885.148	21861
885.274	22063
885.399	21972
885.524	21850
885.65	21884
885.775	21903
885.9	21846
886.025	21991
886.15	21934
886.275	21774
886.4	21732
886.525	21937
886.65	21789
886.775	21797
886.9	21911
887.025	22002
887.149	21751
887.274	21671
887.399	21709
887.523	21675
887.648	21477
887.773	21576
887.897	21717
888.021	21625
888.146	21572
888.27	21694
888.395	21701
888.519	21682
888.643	21717
888.767	21667
888.891	21545
889.015	21507
889.139	21405
889.263	21374
889.387	21618
889.511	21660
889.635	21557
889.759	21412
889.883	21355
890.006	21359
890.13	21447
890.254	21241
890.377	21359
890.501	21272
890.624	21085
890.748	21199
890.871	21047
890.995	21100
891.118	21020
891.241	21081
891.364	21077
891.488	21138
891.611	21081
891.734	20956
891.857	21077
891.98	20933
892.103	21017
892.226	20906
892.349	21051
892.471	20842
892.594	20864
892.717	21127
892.839	20777
892.962	20887
893.085	21066
893.207	20933
893.33	20826
893.452	20952
893.575	20933
893.697	20868
893.819	21043
893.941	21142
894.064	21001
894.186	20872
894.308	20792
894.43	20941
894.552	21055
894.674	20952
894.796	20765
894.918	20815
895.04	20868
895.161	20887
895.283	20861
895.405	20857
895.526	20948
895.648	20811
895.769	20910
895.891	20876
896.012	20921
896.134	20830
896.255	20891
896.376	20804
896.498	20861
896.619	20963
896.74	20891
896.861	20876
896.982	21116
897.103	21348
897.224	21154
897.345	21112
897.466	21074
897.587	21074
897.708	21241
897.828	21074
897.949	20933
898.07	20998
898.19	20982
898.311	21119
898.431	20933
898.552	21024
898.672	21085
898.792	21119
898.913	21116
899.033	20952
899.153	20952
899.273	20769
899.393	20842
899.513	20807
899.633	20769
899.753	20849
899.873	20765
899.993	20914
900.113	20754
900.232	20815
900.352	20743
900.472	20594
900.591	20552
900.711	20571
900.83	20396
900.95	20701
901.069	20670
901.189	20328
901.308	20290
901.427	20119
901.546	20134
901.665	20183
901.784	20240
901.904	19894
902.023	19951
902.141	19689
902.26	19620
902.379	19902
902.498	19632
902.617	19586
902.735	19738
902.854	19571
902.973	19552
903.091	19266
903.21	19362
903.328	19331
903.446	19312
903.565	19156
903.683	19133
903.801	19053
903.919	19099
904.038	19004
904.156	18833
904.274	18977
904.392	18981
904.51	18981
904.627	18905
904.745	18951
904.863	18905
904.981	18715
905.098	18502
905.216	18570
905.334	18589
905.451	18540
905.569	18502
905.686	18555
905.803	18498
905.921	18289
906.038	18456
906.155	18384
906.272	18083
906.389	18289
906.506	18007
906.623	18060
906.74	18106
906.857	17961
906.974	17870
907.091	17996
907.208	18205
907.324	18182
907.441	17920
907.557	17809
907.674	17775
907.79	17722
907.907	17840
908.023	17752
908.139	17821
908.256	17653
908.372	17676
908.488	17589
908.604	17619
908.72	17455
908.836	17551
908.952	17448
909.068	17585
909.184	17608
909.3	17490
909.415	17448
909.531	17452
909.647	17200
909.762	17216
909.878	17292
909.993	17322
910.108	17185
910.224	17006
910.339	17109
910.454	17090
910.57	16980
910.685	16877
910.8	17170
910.915	17083
911.03	16995
911.145	16782
911.259	16782
911.374	16824
911.489	16694
911.604	16637
911.718	16584
911.833	16474
911.947	16405
912.062	16325
912.176	16497
912.291	16554
912.405	16436
912.519	16740
912.633	16706
912.748	16497
912.862	16493
912.976	16310
913.09	16352
913.204	16352
913.318	16272
913.431	16508
913.545	16360
913.659	16440
913.772	16226
913.886	16147
914	16105
914.113	16219
914.226	16211
914.34	16158
914.453	15991
914.566	16147
914.68	16074
914.793	15994
914.906	15778
915.019	15679
915.132	15739
915.245	15739
915.358	15713
915.47	15625
915.583	15747
915.696	15679
915.809	15800
915.921	15854
916.034	15637
916.146	15679
916.259	15564
916.371	15724
916.483	15648
916.595	15526
916.708	15500
916.82	15530
916.932	15485
917.044	15363
917.156	15504
917.268	15378
917.38	15325
917.491	15264
917.603	15393
917.715	15466
917.826	15481
917.938	15272
918.049	15199
918.161	15203
918.272	15321
918.384	15389
918.495	15241
918.606	15131
918.717	14902
918.828	15085
918.939	15119
919.05	14979
919.161	15093
919.272	14944
919.383	14902
919.494	15154
919.604	15256
919.715	15108
919.826	15024
919.936	15020
920.047	15013
920.157	15013
920.267	15154
920.378	15055
920.488	15001
920.598	15214
920.708	15340
920.818	15203
920.928	15173
921.038	15382
921.148	15291
921.258	14925
921.368	14979
921.477	14750
921.587	14731
921.697	14579
921.806	14693
921.916	14674
922.025	14488
922.134	14442
922.244	14275
922.353	14385
922.462	14404
922.571	14259
922.68	14073
922.789	14058
922.898	14012
923.007	13997
923.116	14035
923.224	14054
923.333	13978
923.442	13776
923.55	13833
923.659	13921
923.767	13959
923.876	13799
923.984	13898
924.092	13674
924.201	13799
924.309	13750
924.417	13727
924.525	13636
924.633	13674
924.741	14507
924.849	13426
924.956	13651
925.064	13392
925.172	13430
925.279	13381
925.387	13438
925.494	13362
925.602	13620
925.709	13502
925.816	13270
925.924	13331
926.031	13438
926.138	13365
926.245	13464
926.352	13270
926.459	13457
926.566	13400
926.673	13354
926.779	13175
926.886	13091
926.993	13027
927.099	12996
927.206	12833
927.312	13000
927.419	12954
927.525	12958
927.631	12951
927.737	12878
927.843	12753
927.95	12760
928.056	12779
928.162	12840
928.267	12772
928.373	13472
928.479	12901
928.585	12509
928.69	12719
928.796	12760
928.901	12574
929.007	12498
929.112	12547
929.218	12608
929.323	12502
929.428	12525
929.533	12669
929.638	12414
929.743	12407
929.848	12502
929.953	12456
930.058	12369
930.163	12216
930.267	12144
930.372	12384
930.477	12136
930.581	12407
930.685	12213
930.79	12129
930.894	12087
930.998	11988
931.103	12144
931.207	11885
931.311	11737
931.415	11592
931.519	11444
931.623	11410
