Data from test_V78500241_1187.txt Node
Date: Fri Mar 25 15:50:01 CST 2022
User: usil
Spectrometer: V785-0024
Trigger mode: 0
Integration Time (sec): 4.000000E-1
Scans to average: 1
Nonlinearity correction enabled: false
Boxcar width: 0
Storing dark spectrum: false
XAxis mode: Wavelengths
Number of Pixels in Spectrum: 1024
>>>>>Begin Spectral Data<<<<<
801.071	28622
801.214	28481
801.356	28375
801.499	28196
801.641	28154
801.783	28112
801.926	28219
802.068	28287
802.211	27979
802.353	27949
802.496	27861
802.638	27918
802.78	27675
802.923	27622
803.065	27781
803.208	27778
803.35	27781
803.492	28048
803.635	28090
803.777	27983
803.919	28143
804.061	28360
804.204	28139
804.346	27960
804.488	27861
804.63	27994
804.773	27903
804.915	28025
805.057	28337
805.199	27861
805.341	28166
805.483	28116
805.626	28139
805.768	28295
805.91	28181
806.052	28249
806.194	28223
806.336	28516
806.478	28185
806.62	28265
806.762	28459
806.904	28565
807.046	28710
807.188	28755
807.33	28656
807.472	28721
807.614	28512
807.756	28717
807.898	28603
808.04	28546
808.182	28440
808.324	28462
808.465	28607
808.607	28850
808.749	28942
808.891	29010
809.033	28995
809.174	29006
809.316	28919
809.458	29003
809.6	28877
809.741	29006
809.883	29056
810.025	29239
810.166	29223
810.308	29284
810.45	29155
810.591	29060
810.733	29064
810.875	28854
811.016	28869
811.158	28953
811.299	28900
811.441	29162
811.582	29105
811.724	29060
811.865	28961
812.007	29037
812.148	28854
812.29	29033
812.431	29162
812.573	29315
812.714	29330
812.855	29474
812.997	29455
813.138	29684
813.279	29520
813.421	29455
813.562	29433
813.703	29208
813.845	29151
813.986	28896
814.127	28767
814.268	28546
814.41	28744
814.551	28653
814.692	28691
814.833	28634
814.974	28634
815.115	28664
815.256	28504
815.397	28630
815.539	28386
815.68	28405
815.821	28379
815.962	28440
816.103	28443
816.244	28401
816.385	28154
816.526	28070
816.666	27983
816.807	28013
816.948	28139
817.089	28006
817.23	27960
817.371	27983
817.512	27831
817.653	27857
817.793	27937
817.934	27842
818.075	27972
818.216	27922
818.356	27892
818.497	27797
818.638	27682
818.778	27728
818.919	27751
819.06	27747
819.2	27785
819.341	27808
819.481	27831
819.622	28036
819.762	28333
819.903	28154
820.043	28116
820.184	28093
820.324	28139
820.465	28272
820.605	28105
820.746	28006
820.886	28013
821.026	28070
821.167	28109
821.307	28097
821.447	27861
821.588	27953
821.728	27739
821.868	27526
822.008	27561
822.149	27458
822.289	27549
822.429	27176
822.569	27176
822.709	27233
822.849	27119
822.99	27009
823.13	27051
823.27	26883
823.41	26815
823.55	26716
823.69	26750
823.83	26708
823.97	26697
824.11	26663
824.25	26727
824.389	26644
824.529	26636
824.669	26594
824.809	26686
824.949	26788
825.089	26625
825.228	26689
825.368	26461
825.508	26442
825.648	26473
825.787	26522
825.927	26606
826.067	26594
826.206	26644
826.346	26560
826.485	26560
826.625	26473
826.765	26442
826.904	26385
827.044	26153
827.183	26317
827.323	26149
827.462	26214
827.601	26317
827.741	26164
827.88	26256
828.02	26092
828.159	26077
828.298	26183
828.437	26275
828.577	26134
828.716	26256
828.855	26107
828.994	26043
829.134	25875
829.273	25871
829.412	25944
829.551	25814
829.69	25856
829.829	25864
829.968	25970
830.107	26012
830.246	25788
830.385	25780
830.524	25799
830.663	25723
830.802	25693
830.941	25521
831.08	25422
831.219	25495
831.357	25502
831.496	25849
831.635	25510
831.774	25502
831.913	25483
832.051	25316
832.19	25270
832.329	25396
832.467	25129
832.606	25179
832.744	25133
832.883	25122
833.022	25133
833.16	25263
833.299	25209
833.437	25126
833.576	25255
833.714	25362
833.852	25343
833.991	25194
834.129	25285
834.267	25221
834.406	25282
834.544	25293
834.682	25137
834.821	25141
834.959	25449
835.097	25057
835.235	25247
835.373	25236
835.511	25137
835.65	25031
835.788	25027
835.926	24958
836.064	24966
836.202	24920
836.34	24958
836.478	25225
836.615	24947
836.753	24905
836.891	25103
837.029	25046
837.167	24973
837.305	24852
837.443	25057
837.58	24878
837.718	24939
837.856	25004
837.993	24840
838.131	24829
838.269	24791
838.406	24943
838.544	24760
838.681	24650
838.819	24509
838.956	24399
839.094	24467
839.231	24342
839.369	24429
839.506	24722
839.643	24623
839.781	24350
839.918	24357
840.055	24369
840.193	24292
840.33	24213
840.467	24205
840.604	24216
840.742	24544
840.879	24194
841.016	24239
841.153	24205
841.29	24353
841.427	24148
841.564	24247
841.701	24247
841.838	24095
841.975	24053
842.112	24095
842.249	24098
842.385	24057
842.522	24167
842.659	24003
842.796	24106
842.933	24064
843.069	23912
843.206	23942
843.343	24079
843.479	24038
843.616	24018
843.752	23764
843.889	23843
844.025	23996
844.162	23748
844.298	23897
844.435	23817
844.571	23646
844.708	23745
844.844	23889
844.98	23920
845.117	23790
845.253	23687
845.389	23520
845.525	23649
845.661	23695
845.798	23497
845.934	23535
846.07	23406
846.206	23543
846.342	23691
846.478	23421
846.614	23200
846.75	23189
846.886	23280
847.022	23220
847.158	23277
847.294	23261
847.429	23315
847.565	23197
847.701	23474
847.837	22896
847.972	22927
848.108	23064
848.244	23014
848.379	22858
848.515	22835
848.65	22675
848.786	22892
848.921	22820
849.057	22949
849.192	22881
849.328	22843
849.463	22729
849.598	22820
849.734	22672
849.869	22778
850.004	22618
850.14	22531
850.275	22592
850.41	22508
850.545	22542
850.68	22641
850.815	22645
850.95	22607
851.085	22759
851.22	22717
851.355	22622
851.49	22554
851.625	22584
851.76	22615
851.895	22428
852.03	22508
852.165	22508
852.299	22569
852.434	22736
852.569	22660
852.703	22588
852.838	22599
852.973	22577
853.107	22675
853.242	22557
853.376	22382
853.511	22257
853.645	22295
853.78	22421
853.914	22310
854.048	22485
854.183	22341
854.317	22455
854.451	22668
854.585	22405
854.72	22375
854.854	22360
854.988	22363
855.122	22481
855.256	22238
855.39	22280
855.524	22379
855.658	22344
855.792	22424
855.926	22447
856.06	22478
856.194	22382
856.327	22322
856.461	22409
856.595	22363
856.729	22344
856.862	22561
856.996	22375
857.13	22580
857.263	22485
857.397	22489
857.53	22314
857.664	22390
857.797	22432
857.931	22481
858.064	22356
858.197	22504
858.331	22386
858.464	22341
858.597	22356
858.731	22375
858.864	22390
858.997	22386
859.13	22344
859.263	22367
859.396	22504
859.529	22371
859.662	22322
859.795	22318
859.928	22440
860.061	22538
860.194	22500
860.327	22459
860.46	22527
860.592	22504
860.725	22569
860.858	22455
860.99	22455
861.123	22375
861.256	22348
861.388	22333
861.521	23121
861.653	22249
861.786	22059
861.918	22059
862.05	22257
862.183	22337
862.315	22341
862.447	22398
862.58	22333
862.712	22040
862.844	22150
862.976	22299
863.108	22147
863.24	22634
863.372	22051
863.504	22124
863.636	22074
863.768	22162
863.9	22063
864.032	22086
864.164	22067
864.296	22226
864.428	22093
864.559	22078
864.691	22192
864.823	22109
864.954	22109
865.086	22063
865.217	22036
865.349	21861
865.48	22010
865.612	22040
865.743	22150
865.875	22090
866.006	21968
866.137	22013
866.269	21945
866.4	21987
866.531	21922
866.662	21922
866.793	21785
866.924	21941
867.055	21956
867.186	21880
867.317	21865
867.448	21869
867.579	21934
867.71	21850
867.841	21850
867.972	21816
868.103	21850
868.233	21804
868.364	21972
868.495	21979
868.625	22196
868.756	22268
868.886	22097
869.017	22105
869.147	22200
869.278	22295
869.408	22147
869.539	22086
869.669	22150
869.799	22291
869.929	22322
870.06	22135
870.19	22489
870.32	22402
870.45	22402
870.58	22497
870.71	22641
870.84	22710
870.97	22493
871.1	22527
871.23	22774
871.36	22752
871.489	22592
871.619	22622
871.749	22793
871.879	22869
872.008	22862
872.138	22725
872.267	22577
872.397	22618
872.526	22641
872.656	22535
872.785	22466
872.915	22862
873.044	22869
873.173	22763
873.303	22862
873.432	22915
873.561	22771
873.69	22831
873.819	22736
873.948	22725
874.077	22812
874.206	22660
874.335	22790
874.464	22782
874.593	22915
874.722	22957
874.851	22881
874.979	22908
875.108	23003
875.237	23025
875.365	22824
875.494	22984
875.623	23094
875.751	22904
875.88	23090
876.008	23102
876.136	23140
876.265	23414
876.393	23452
876.521	23471
876.65	23383
876.778	23376
876.906	23311
877.034	23318
877.162	23296
877.29	23273
877.418	23349
877.546	23330
877.674	23223
877.802	23231
877.93	23353
878.058	23273
878.185	23159
878.313	23162
878.441	23345
878.568	23181
878.696	23235
878.824	23155
878.951	23353
879.079	23398
879.206	23604
879.333	23398
879.461	23334
879.588	23474
879.715	23585
879.842	23611
879.97	23235
880.097	23178
880.224	23170
880.351	23044
880.478	23265
880.605	23003
880.732	23048
880.859	23353
880.986	23003
881.112	23189
881.239	22976
881.366	22847
881.493	22771
881.619	22668
881.746	22607
881.872	22801
881.999	22649
882.125	22569
882.252	22805
882.378	22599
882.505	22752
882.631	22504
882.757	22409
882.883	22478
883.01	22428
883.136	22337
883.262	22238
883.388	22265
883.514	22356
883.64	22303
883.766	22363
883.892	22048
884.018	22147
884.143	22314
884.269	22367
884.395	22059
884.52	21899
884.646	21907
884.772	21949
884.897	21983
885.023	21983
885.148	22211
885.274	22112
885.399	21994
885.524	22002
885.65	21945
885.775	21911
885.9	22063
886.025	22154
886.15	22070
886.275	21926
886.4	21873
886.525	21907
886.65	21956
886.775	21819
886.9	22093
887.025	22158
887.149	22044
887.274	21770
887.399	21842
887.523	21724
887.648	21679
887.773	21561
887.897	21819
888.021	21778
888.146	21728
888.27	21804
888.395	21880
888.519	21766
888.643	21720
888.767	21835
888.891	21682
889.015	21587
889.139	21447
889.263	21439
889.387	21701
889.511	21705
889.635	21652
889.759	21496
889.883	21507
890.006	21637
890.13	21641
890.254	21519
890.377	21420
890.501	21154
890.624	21150
890.748	21359
890.871	21199
890.995	21116
891.118	21131
891.241	21138
891.364	21100
891.488	21142
891.611	21203
891.734	21077
891.857	21116
891.98	21226
892.103	21180
892.226	21074
892.349	21058
892.471	20853
892.594	21085
892.717	20971
892.839	21058
892.962	21017
893.085	21062
893.207	20994
893.33	20864
893.452	20872
893.575	21070
893.697	20952
893.819	21131
893.941	21226
894.064	20960
894.186	20861
894.308	20952
894.43	21077
894.552	21119
894.674	21001
894.796	20785
894.918	20872
895.04	21055
895.161	20990
895.283	21005
895.405	20815
895.526	20975
895.648	21096
895.769	21028
895.891	21013
896.012	20967
896.134	21085
896.255	20929
896.376	20925
896.498	21051
896.619	21028
896.74	20921
896.861	20975
896.982	21222
897.103	21325
897.224	21260
897.345	21180
897.466	21131
897.587	21119
897.708	21245
897.828	21317
897.949	21055
898.07	21020
898.19	21226
898.311	21211
898.431	21032
898.552	21138
898.672	21214
898.792	21249
898.913	21222
899.033	21024
899.153	21066
899.273	20986
899.393	20895
899.513	20952
899.633	20838
899.753	20937
899.873	20861
899.993	20990
900.113	20861
900.232	20868
900.352	20861
900.472	20781
900.591	20682
900.711	20743
900.83	20602
900.95	20750
901.069	20785
901.189	20648
901.308	20263
901.427	20191
901.546	20168
901.665	20256
901.784	20275
901.904	20161
902.023	20088
902.141	19826
902.26	19708
902.379	19849
902.498	19811
902.617	19689
902.735	19803
902.854	19731
902.973	19632
903.091	19392
903.21	19354
903.328	19441
903.446	19373
903.565	19274
903.683	19122
903.801	19076
903.919	19266
904.038	19171
904.156	19004
904.274	18943
904.392	18875
904.51	18935
904.627	18916
904.745	18985
904.863	19057
904.981	18795
905.098	18677
905.216	18597
905.334	18665
905.451	18673
905.569	18525
905.686	18646
905.803	18540
905.921	18433
906.038	18521
906.155	18448
906.272	18304
906.389	18353
906.506	18220
906.623	18213
906.74	18152
906.857	18034
906.974	18155
907.091	18239
907.208	18311
907.324	18091
907.441	17980
907.557	17908
907.674	17847
907.79	17847
907.907	17912
908.023	17916
908.139	17923
908.256	17783
908.372	17710
908.488	17676
908.604	17627
908.72	17512
908.836	17573
908.952	17482
909.068	17547
909.184	17623
909.3	17501
909.415	17501
909.531	17600
909.647	17425
909.762	17269
909.878	17269
909.993	17330
910.108	17349
910.224	17261
910.339	17200
910.454	17197
910.57	17086
910.685	16999
910.8	17170
910.915	17246
911.03	16968
911.145	16934
911.259	16820
911.374	16900
911.489	16740
911.604	16713
911.718	16497
911.833	16645
911.947	16558
912.062	16481
912.176	16580
912.291	16672
912.405	16691
912.519	16839
912.633	16717
912.748	16637
912.862	16535
912.976	16382
913.09	16299
913.204	16481
913.318	16405
913.431	16447
913.545	16558
913.659	16466
913.772	16443
913.886	16226
914	16204
914.113	16268
914.226	16295
914.34	16287
914.453	16059
914.566	16291
914.68	16086
914.793	15994
914.906	15778
915.019	15797
915.132	15675
915.245	15770
915.358	15717
915.47	15812
915.583	15717
915.696	15823
915.809	15774
915.921	16013
916.034	15663
916.146	15709
916.259	15671
916.371	15785
916.483	15686
916.595	15545
916.708	15656
916.82	15580
916.932	15477
917.044	15553
917.156	15534
917.268	15393
917.38	15401
917.491	15447
917.603	15462
917.715	15534
917.826	15389
917.938	15344
918.049	15264
918.161	15344
918.272	15450
918.384	15420
918.495	15321
918.606	15192
918.717	15085
918.828	15161
918.939	15203
919.05	15024
919.161	15093
919.272	14960
919.383	15020
919.494	15104
919.604	15302
919.715	15093
919.826	15127
919.936	15032
920.047	15157
920.157	15176
920.267	15382
920.378	15093
920.488	15058
920.598	15161
920.708	15370
920.818	15317
920.928	15233
921.038	15363
921.148	15310
921.258	15009
921.368	15017
921.477	14963
921.587	14876
921.697	14667
921.806	14807
921.916	14617
922.025	14590
922.134	14461
922.244	14396
922.353	14503
922.462	14286
922.571	14267
922.68	14138
922.789	14180
922.898	14100
923.007	14058
923.116	14077
923.224	14138
923.333	13951
923.442	14005
923.55	13913
923.659	13940
923.767	14001
923.876	13868
923.984	14024
924.092	13769
924.201	13856
924.309	13807
924.417	13753
924.525	13765
924.633	13738
924.741	14545
924.849	13556
924.956	13811
925.064	13464
925.172	13400
925.279	13441
925.387	13521
925.494	13480
925.602	13636
925.709	13578
925.816	13343
925.924	13468
926.031	13487
926.138	13438
926.245	13430
926.352	13293
926.459	13438
926.566	13556
926.673	13327
926.779	13202
926.886	13187
926.993	13050
927.099	13088
927.206	13088
927.312	12958
927.419	13133
927.525	13057
927.631	13072
927.737	13019
927.843	12886
927.95	12730
928.056	12840
928.162	12989
928.267	12844
928.373	13548
928.479	12901
928.585	12631
928.69	12814
928.796	12787
928.901	12658
929.007	12597
929.112	12764
929.218	12684
929.323	12570
929.428	12646
929.533	12631
929.638	12506
929.743	12578
929.848	12517
929.953	12517
930.058	12422
930.163	12289
930.267	12270
930.372	12380
930.477	12155
930.581	12422
930.685	12334
930.79	12155
930.894	12190
930.998	12076
931.103	12178
931.207	11878
931.311	11840
931.415	11745
931.519	11520
931.623	11543
