Data from test_V78500241_3223.txt Node
Date: Fri Mar 25 16:04:07 CST 2022
User: usil
Spectrometer: V785-0024
Trigger mode: 0
Integration Time (sec): 4.000000E-1
Scans to average: 1
Nonlinearity correction enabled: false
Boxcar width: 0
Storing dark spectrum: false
XAxis mode: Wavelengths
Number of Pixels in Spectrum: 1024
>>>>>Begin Spectral Data<<<<<
801.071	28740
801.214	28759
801.356	28573
801.499	28428
801.641	28299
801.783	28500
801.926	28325
802.068	28363
802.211	28215
802.353	28284
802.496	28124
802.638	28070
802.78	27975
802.923	27934
803.065	27857
803.208	27953
803.35	28143
803.492	28154
803.635	28306
803.777	28116
803.919	28295
804.061	28584
804.204	28257
804.346	28150
804.488	28230
804.63	28272
804.773	28192
804.915	28405
805.057	28451
805.199	28234
805.341	28310
805.483	28462
805.626	28474
805.768	28363
805.91	28436
806.052	28344
806.194	28417
806.336	28577
806.478	28519
806.62	28474
806.762	28588
806.904	28908
807.046	29105
807.188	28972
807.33	28896
807.472	28923
807.614	29022
807.756	28812
807.898	28729
808.04	28736
808.182	28710
808.324	28710
808.465	28904
808.607	28980
808.749	29105
808.891	29296
809.033	29288
809.174	29208
809.316	29067
809.458	29113
809.6	29079
809.741	29299
809.883	29239
810.025	29493
810.166	29497
810.308	29520
810.45	29474
810.591	29433
810.733	29246
810.875	29220
811.016	29162
811.158	29124
811.299	29155
811.441	29254
811.582	29212
811.724	29121
811.865	29284
812.007	29208
812.148	29307
812.29	29322
812.431	29345
812.573	29524
812.714	29627
812.855	29642
812.997	29718
813.138	29904
813.279	29642
813.421	29714
813.562	29630
813.703	29478
813.845	29395
813.986	29132
814.127	28793
814.268	28805
814.41	28839
814.551	28900
814.692	28862
814.833	28691
814.974	28900
815.115	28831
815.256	28805
815.397	28809
815.539	28809
815.68	28710
815.821	28641
815.962	28774
816.103	28691
816.244	28607
816.385	28497
816.526	28512
816.666	28360
816.807	28287
816.948	28196
817.089	28246
817.23	28291
817.371	28139
817.512	28112
817.653	28147
817.793	28207
817.934	28230
818.075	28181
818.216	28280
818.356	28322
818.497	28154
818.638	28025
818.778	27888
818.919	28086
819.06	27850
819.2	28090
819.341	28150
819.481	28116
819.622	28382
819.762	28668
819.903	28497
820.043	28455
820.184	28440
820.324	28413
820.465	28436
820.605	28272
820.746	28432
820.886	28215
821.026	28333
821.167	28421
821.307	28409
821.447	28325
821.588	28093
821.728	28036
821.868	27907
822.008	27709
822.149	27694
822.289	27633
822.429	27477
822.569	27374
822.709	27321
822.849	27264
822.99	27264
823.13	27085
823.27	27104
823.41	27150
823.55	26891
823.69	27085
823.83	26967
823.97	26929
824.11	26914
824.25	26910
824.389	26868
824.529	26982
824.669	26880
824.809	26982
824.949	26998
825.089	26956
825.228	26773
825.368	26743
825.508	26746
825.648	26796
825.787	26880
825.927	26674
826.067	26663
826.206	26750
826.346	26686
826.485	26613
826.625	26838
826.765	26872
826.904	26765
827.044	26518
827.183	26621
827.323	26526
827.462	26514
827.601	26453
827.741	26526
827.88	26590
828.02	26339
828.159	26438
828.298	26473
828.437	26613
828.577	26442
828.716	26457
828.855	26248
828.994	26111
829.134	26039
829.273	26206
829.412	26126
829.551	26195
829.69	26290
829.829	26134
829.968	26259
830.107	26149
830.246	26145
830.385	26157
830.524	26077
830.663	25868
830.802	25826
830.941	25750
831.08	25788
831.219	25803
831.357	25791
831.496	25974
831.635	25776
831.774	25647
831.913	25632
832.051	25559
832.19	25460
832.329	25457
832.467	25510
832.606	25377
832.744	25434
832.883	25316
833.022	25491
833.16	25350
833.299	25350
833.437	25449
833.576	25567
833.714	25373
833.852	25426
833.991	25468
834.129	25552
834.267	25537
834.406	25415
834.544	25567
834.682	25426
834.821	25487
834.959	25597
835.097	25388
835.235	25563
835.373	25514
835.511	25445
835.65	25324
835.788	25346
835.926	25346
836.064	25099
836.202	25194
836.34	25362
836.478	25388
836.615	25297
836.753	25343
836.891	25297
837.029	25213
837.167	25297
837.305	25225
837.443	25255
837.58	25152
837.718	25217
837.856	25209
837.993	25042
838.131	25156
838.269	25000
838.406	24973
838.544	24992
838.681	24700
838.819	24787
838.956	24669
839.094	24582
839.231	24688
839.369	24665
839.506	25004
839.643	24878
839.781	24559
839.918	24593
840.055	24673
840.193	24608
840.33	24582
840.467	24456
840.604	24620
840.742	24757
840.879	24266
841.016	24483
841.153	24315
841.29	24521
841.427	24486
841.564	24483
841.701	24399
841.838	24350
841.975	24445
842.112	24380
842.249	24517
842.385	24319
842.522	24460
842.659	24418
842.796	24228
842.933	24232
843.069	24182
843.206	24235
843.343	24376
843.479	24243
843.616	24289
843.752	24106
843.889	24038
844.025	24076
844.162	24072
844.298	24106
844.435	23973
844.571	24155
844.708	24102
844.844	24182
844.98	24281
845.117	24190
845.253	24026
845.389	23882
845.525	23923
845.661	23851
845.798	23729
845.934	23878
846.07	23790
846.206	23760
846.342	23901
846.478	23642
846.614	23741
846.75	23478
846.886	23376
847.022	23493
847.158	23573
847.294	23528
847.429	23558
847.565	23429
847.701	23699
847.837	23208
847.972	23200
848.108	23307
848.244	23208
848.379	23170
848.515	23079
848.65	23037
848.786	23006
848.921	23143
849.057	23147
849.192	23200
849.328	23094
849.463	23006
849.598	22995
849.734	23014
849.869	22972
850.004	22801
850.14	22885
850.275	22816
850.41	22790
850.545	22713
850.68	22797
850.815	22812
850.95	22843
851.085	23044
851.22	22904
851.355	22934
851.49	22801
851.625	22702
851.76	22896
851.895	22797
852.03	22729
852.165	22816
852.299	22911
852.434	22866
852.569	22812
852.703	22793
852.838	22892
852.973	22885
853.107	22953
853.242	22805
853.376	22675
853.511	22611
853.645	22588
853.78	22797
853.914	22660
854.048	22691
854.183	22565
854.317	22729
854.451	22812
854.585	22679
854.72	22634
854.854	22649
854.988	22519
855.122	22733
855.256	22630
855.39	22634
855.524	22790
855.658	22584
855.792	22672
855.926	22767
856.06	22675
856.194	22713
856.327	22516
856.461	22592
856.595	22599
856.729	22554
856.862	22710
856.996	22645
857.13	22744
857.263	22778
857.397	22698
857.53	22649
857.664	22725
857.797	22748
857.931	22793
858.064	22694
858.197	22801
858.331	22599
858.464	22508
858.597	22607
858.731	22641
858.864	22622
858.997	22637
859.13	22569
859.263	22641
859.396	22767
859.529	22569
859.662	22634
859.795	22736
859.928	22630
860.061	22797
860.194	22915
860.327	22717
860.46	22687
860.592	22805
860.725	22816
860.858	22843
860.99	22637
861.123	22592
861.256	22702
861.388	22573
861.521	23391
861.653	22428
861.786	22466
861.918	22417
862.05	22561
862.183	22432
862.315	22550
862.447	22618
862.58	22527
862.712	22538
862.844	22417
862.976	22512
863.108	22538
863.24	22763
863.372	22333
863.504	22363
863.636	22447
863.768	22352
863.9	22329
864.032	22341
864.164	22318
864.296	22386
864.428	22451
864.559	22219
864.691	22405
864.823	22329
864.954	22436
865.086	22329
865.217	22181
865.349	22120
865.48	22215
865.612	22082
865.743	22382
865.875	22261
866.006	22310
866.137	22310
866.269	22116
866.4	22200
866.531	22230
866.662	22070
866.793	22265
866.924	22139
867.055	22124
867.186	22154
867.317	22192
867.448	22055
867.579	22078
867.71	22090
867.841	22032
867.972	22070
868.103	22150
868.233	22097
868.364	22143
868.495	22325
868.625	22459
868.756	22485
868.886	22272
869.017	22481
869.147	22428
869.278	22584
869.408	22443
869.539	22367
869.669	22443
869.799	22519
869.929	22523
870.06	22459
870.19	22755
870.32	22774
870.45	22786
870.58	22809
870.71	22961
870.84	22908
870.97	22710
871.1	22774
871.23	22991
871.36	23006
871.489	22889
871.619	22892
871.749	22980
871.879	23117
872.008	23170
872.138	23113
872.267	22957
872.397	22828
872.526	22790
872.656	22854
872.785	22805
872.915	23147
873.044	23056
873.173	23025
873.303	23067
873.432	23025
873.561	23060
873.69	23128
873.819	23048
873.948	23090
874.077	23102
874.206	22927
874.335	22972
874.464	23052
874.593	23265
874.722	23303
874.851	23204
874.979	23364
875.108	23341
875.237	23147
875.365	23105
875.494	23231
875.623	23292
875.751	23273
875.88	23223
876.008	23322
876.136	23448
876.265	23615
876.393	23851
876.521	23642
876.65	23733
876.778	23707
876.906	23581
877.034	23429
877.162	23627
877.29	23596
877.418	23528
877.546	23501
877.674	23455
877.802	23551
877.93	23512
878.058	23474
878.185	23524
878.313	23585
878.441	23547
878.568	23444
878.696	23425
878.824	23486
878.951	23512
879.079	23729
879.206	23935
879.333	23771
879.461	23520
879.588	23577
879.715	23760
879.842	23783
879.97	23676
880.097	23429
880.224	23463
880.351	23330
880.478	23383
880.605	23379
880.732	23368
880.859	23627
880.986	23398
881.112	23459
881.239	23356
881.366	23151
881.493	22892
881.619	22976
881.746	22984
881.872	22896
881.999	22987
882.125	22953
882.252	22965
882.378	22923
882.505	22968
882.631	22691
882.757	22687
882.883	22713
883.01	22683
883.136	22592
883.262	22523
883.388	22394
883.514	22641
883.64	22679
883.766	22717
883.892	22363
884.018	22421
884.143	22462
884.269	22557
884.395	22470
884.52	22291
884.646	22272
884.772	22192
884.897	22185
885.023	22303
885.148	22413
885.274	22405
885.399	22318
885.524	22291
885.65	22318
885.775	22207
885.9	22325
886.025	22413
886.15	22112
886.275	22177
886.4	22261
886.525	22226
886.65	22078
886.775	22169
886.9	22306
887.025	22322
887.149	22101
887.274	22063
887.399	22025
887.523	22128
887.648	21998
887.773	21972
887.897	22036
888.021	22059
888.146	21884
888.27	22010
888.395	22120
888.519	22067
888.643	21953
888.767	22101
888.891	21945
889.015	21793
889.139	21895
889.263	21819
889.387	21953
889.511	22013
889.635	21949
889.759	21827
889.883	21934
890.006	21789
890.13	21884
890.254	21785
890.377	21724
890.501	21515
890.624	21526
890.748	21557
890.871	21428
890.995	21412
891.118	21294
891.241	21291
891.364	21363
891.488	21435
891.611	21389
891.734	21260
891.857	21351
891.98	21416
892.103	21298
892.226	21344
892.349	21199
892.471	21112
892.594	21268
892.717	21332
892.839	21329
892.962	21317
893.085	21344
893.207	21264
893.33	21211
893.452	21058
893.575	21359
893.697	21199
893.819	21397
893.941	21428
894.064	21351
894.186	21195
894.308	21039
894.43	21302
894.552	21431
894.674	21207
894.796	20982
894.918	21142
895.04	21173
895.161	21241
895.283	21310
895.405	21157
895.526	21142
895.648	21116
895.769	21161
895.891	21348
896.012	21313
896.134	21382
896.255	21268
896.376	21207
896.498	21157
896.619	21173
896.74	21279
896.861	21135
896.982	21576
897.103	21660
897.224	21591
897.345	21348
897.466	21382
897.587	21443
897.708	21530
897.828	21313
897.949	21252
898.07	21165
898.19	21249
898.311	21408
898.431	21260
898.552	21367
898.672	21401
898.792	21462
898.913	21374
899.033	21241
899.153	21237
899.273	21039
899.393	21119
899.513	21165
899.633	21112
899.753	21176
899.873	21005
899.993	21123
900.113	21188
900.232	21146
900.352	21131
900.472	20967
900.591	20861
900.711	20982
900.83	20864
900.95	21017
901.069	21051
901.189	20781
901.308	20613
901.427	20499
901.546	20526
901.665	20457
901.784	20476
901.904	20305
902.023	20290
902.141	20031
902.26	19951
902.379	20103
902.498	20069
902.617	19890
902.735	19982
902.854	20031
902.973	19830
903.091	19731
903.21	19693
903.328	19651
903.446	19567
903.565	19487
903.683	19491
903.801	19358
903.919	19434
904.038	19293
904.156	19156
904.274	19263
904.392	19148
904.51	19110
904.627	19202
904.745	19107
904.863	19308
904.981	18973
905.098	18863
905.216	18901
905.334	18913
905.451	18817
905.569	18829
905.686	18890
905.803	18738
905.921	18795
906.038	18760
906.155	18642
906.272	18563
906.389	18547
906.506	18399
906.623	18376
906.74	18346
906.857	18190
906.974	18330
907.091	18384
907.208	18528
907.324	18384
907.441	18315
907.557	18136
907.674	18026
907.79	18072
907.907	17984
908.023	18034
908.139	18102
908.256	17912
908.372	17935
908.488	17958
908.604	17840
908.72	17748
908.836	17714
908.952	17745
909.068	17809
909.184	17863
909.3	17756
909.415	17802
909.531	17684
909.647	17551
909.762	17486
909.878	17440
909.993	17493
910.108	17463
910.224	17474
910.339	17436
910.454	17292
910.57	17379
910.685	17178
910.8	17391
910.915	17398
911.03	17185
911.145	17181
911.259	17048
911.374	17113
911.489	17052
911.604	16942
911.718	16706
911.833	16869
911.947	16809
912.062	16706
912.176	16835
912.291	16771
912.405	16801
912.519	16961
912.633	16976
912.748	16869
912.862	16816
912.976	16535
913.09	16527
913.204	16550
913.318	16592
913.431	16729
913.545	16626
913.659	16653
913.772	16592
913.886	16497
914	16371
914.113	16462
914.226	16428
914.34	16409
914.453	16284
914.566	16398
914.68	16169
914.793	16166
914.906	16059
915.019	16010
915.132	15956
915.245	15968
915.358	15941
915.47	15972
915.583	15949
915.696	15960
915.809	16059
915.921	16036
916.034	15819
916.146	15899
916.259	15827
916.371	16040
916.483	15949
916.595	15850
916.708	15759
916.82	15762
916.932	15808
917.044	15667
917.156	15739
917.268	15603
917.38	15622
917.491	15561
917.603	15542
917.715	15637
917.826	15705
917.938	15610
918.049	15450
918.161	15393
918.272	15709
918.384	15542
918.495	15534
918.606	15378
918.717	15310
918.828	15405
918.939	15370
919.05	15214
919.161	15241
919.272	15176
919.383	15131
919.494	15332
919.604	15549
919.715	15252
919.826	15211
919.936	15332
920.047	15351
920.157	15237
920.267	15545
920.378	15325
920.488	15230
920.598	15386
920.708	15576
920.818	15412
920.928	15447
921.038	15603
921.148	15572
921.258	15165
921.368	15081
921.477	14963
921.587	14937
921.697	14853
921.806	15020
921.916	14819
922.025	14686
922.134	14610
922.244	14564
922.353	14716
922.462	14488
922.571	14507
922.68	14294
922.789	14252
922.898	14218
923.007	14172
923.116	14282
923.224	14210
923.333	14259
923.442	14073
923.55	13997
923.659	14039
923.767	14214
923.876	13993
923.984	14092
924.092	14008
924.201	14008
924.309	13951
924.417	13974
924.525	13970
924.633	14005
924.741	14762
924.849	13666
924.956	13761
925.064	13605
925.172	13632
925.279	13632
925.387	13571
925.494	13620
925.602	13780
925.709	13639
925.816	13674
925.924	13525
926.031	13791
926.138	13594
926.245	13609
926.352	13510
926.459	13525
926.566	13620
926.673	13480
926.779	13419
926.886	13403
926.993	13316
927.099	13350
927.206	13110
927.312	13171
927.419	13202
927.525	13221
927.631	13221
927.737	13149
927.843	12985
927.95	12947
928.056	12954
928.162	12947
928.267	13080
928.373	13613
928.479	13065
928.585	12897
928.69	12951
928.796	13012
928.901	12776
929.007	12749
929.112	12837
929.218	12745
929.323	12722
929.428	12730
929.533	12837
929.638	12627
929.743	12662
929.848	12635
929.953	12715
930.058	12601
930.163	12342
930.267	12372
930.372	12467
930.477	12380
930.581	12620
930.685	12388
930.79	12201
930.894	12262
930.998	12216
931.103	12380
931.207	11977
931.311	12019
931.415	11775
931.519	11672
931.623	11585
