Data from test_V78500241_3672.txt Node
Date: Fri Mar 25 16:07:14 CST 2022
User: usil
Spectrometer: V785-0024
Trigger mode: 0
Integration Time (sec): 4.000000E-1
Scans to average: 1
Nonlinearity correction enabled: false
Boxcar width: 0
Storing dark spectrum: false
XAxis mode: Wavelengths
Number of Pixels in Spectrum: 1024
>>>>>Begin Spectral Data<<<<<
801.071	28447
801.214	28280
801.356	28188
801.499	28093
801.641	28051
801.783	27854
801.926	27895
802.068	28048
802.211	27842
802.353	27831
802.496	27770
802.638	27660
802.78	27534
802.923	27572
803.065	27603
803.208	27614
803.35	27667
803.492	27747
803.635	27873
803.777	27793
803.919	27941
804.061	28135
804.204	27949
804.346	27800
804.488	27720
804.63	27835
804.773	27759
804.915	27960
805.057	27960
805.199	27922
805.341	27956
805.483	28013
805.626	28017
805.768	27899
805.91	27991
806.052	27975
806.194	27880
806.336	28287
806.478	27914
806.62	28021
806.762	28109
806.904	28322
807.046	28440
807.188	28447
807.33	28466
807.472	28451
807.614	28478
807.756	28542
807.898	28329
808.04	28200
808.182	28284
808.324	28329
808.465	28371
808.607	28630
808.749	28634
808.891	28927
809.033	28839
809.174	28706
809.316	28729
809.458	28793
809.6	28611
809.741	28812
809.883	28923
810.025	28942
810.166	28995
810.308	28968
810.45	28923
810.591	28953
810.733	28759
810.875	28729
811.016	28561
811.158	28645
811.299	28679
811.441	28957
811.582	28873
811.724	28771
811.865	28748
812.007	28634
812.148	28702
812.29	28805
812.431	28965
812.573	29075
812.714	29121
812.855	29197
812.997	29326
813.138	29299
813.279	29303
813.421	29170
813.562	29162
813.703	29014
813.845	28904
813.986	28790
814.127	28512
814.268	28428
814.41	28497
814.551	28291
814.692	28474
814.833	28303
814.974	28360
815.115	28455
815.256	28325
815.397	28261
815.539	28348
815.68	28253
815.821	28242
815.962	28215
816.103	28249
816.244	28055
816.385	28063
816.526	27861
816.666	27876
816.807	27701
816.948	27686
817.089	27842
817.23	27793
817.371	27751
817.512	27694
817.653	27724
817.793	27781
817.934	27698
818.075	27675
818.216	27743
818.356	27755
818.497	27485
818.638	27382
818.778	27329
818.919	27420
819.06	27427
819.2	27564
819.341	27686
819.481	27793
819.622	27770
819.762	28101
819.903	27911
820.043	27838
820.184	27778
820.324	27797
820.465	27991
820.605	27785
820.746	27823
820.886	27732
821.026	27694
821.167	27770
821.307	27739
821.447	27709
821.588	27637
821.728	27462
821.868	27336
822.008	27241
822.149	27150
822.289	27317
822.429	27081
822.569	26796
822.709	26826
822.849	26743
822.99	26533
823.13	26735
823.27	26678
823.41	26583
823.55	26332
823.69	26621
823.83	26476
823.97	26358
824.11	26362
824.25	26233
824.389	26199
824.529	26461
824.669	26286
824.809	26492
824.949	26438
825.089	26259
825.228	26355
825.368	26119
825.508	26339
825.648	26126
825.787	26168
825.927	26214
826.067	26149
826.206	26278
826.346	26259
826.485	26301
826.625	26221
826.765	26294
826.904	26263
827.044	26050
827.183	25894
827.323	25982
827.462	25913
827.601	25974
827.741	25955
827.88	26024
828.02	25784
828.159	25959
828.298	25913
828.437	25940
828.577	25780
828.716	25822
828.855	25788
828.994	25647
829.134	25658
829.273	25609
829.412	25571
829.551	25544
829.69	25613
829.829	25689
829.968	25750
830.107	25841
830.246	25537
830.385	25483
830.524	25491
830.663	25407
830.802	25301
830.941	25282
831.08	25225
831.219	25266
831.357	25327
831.496	25457
831.635	25206
831.774	25164
831.913	25175
832.051	25042
832.19	24932
832.329	25088
832.467	24970
832.606	24935
832.744	24875
832.883	24688
833.022	24939
833.16	24932
833.299	24935
833.437	24878
833.576	25057
833.714	24985
833.852	25046
833.991	24981
834.129	25110
834.267	24951
834.406	24916
834.544	25019
834.682	24973
834.821	24947
834.959	25194
835.097	24939
835.235	24981
835.373	24909
835.511	24973
835.65	24768
835.788	24779
835.926	24627
836.064	24597
836.202	24551
836.34	24821
836.478	24932
836.615	24779
836.753	24703
836.891	24894
837.029	24719
837.167	24639
837.305	24722
837.443	24707
837.58	24650
837.718	24555
837.856	24646
837.993	24570
838.131	24639
838.269	24452
838.406	24536
838.544	24483
838.681	24178
838.819	24330
838.956	24133
839.094	24117
839.231	23996
839.369	24194
839.506	24388
839.643	24350
839.781	24121
839.918	24098
840.055	24174
840.193	23927
840.33	24076
840.467	24060
840.604	24041
840.742	24311
840.879	23912
841.016	24038
841.153	23889
841.29	24110
841.427	24018
841.564	24121
841.701	23999
841.838	24076
841.975	23927
842.112	23893
842.249	23802
842.385	23809
842.522	24076
842.659	23870
842.796	23642
842.933	23737
843.069	23699
843.206	23794
843.343	23714
843.479	23760
843.616	23737
843.752	23596
843.889	23490
844.025	23668
844.162	23520
844.298	23642
844.435	23570
844.571	23497
844.708	23554
844.844	23657
844.98	23478
845.117	23638
845.253	23364
845.389	23414
845.525	23440
845.661	23368
845.798	23242
845.934	23242
846.07	23273
846.206	23345
846.342	23406
846.478	23277
846.614	23098
846.75	22892
846.886	23022
847.022	23170
847.158	23003
847.294	22949
847.429	23044
847.565	22946
847.701	23098
847.837	22702
847.972	22668
848.108	22816
848.244	22752
848.379	22443
848.515	22474
848.65	22550
848.786	22596
848.921	22622
849.057	22710
849.192	22592
849.328	22721
849.463	22573
849.598	22603
849.734	22538
849.869	22363
850.004	22287
850.14	22306
850.275	22325
850.41	22287
850.545	22325
850.68	22223
850.815	22390
850.95	22375
851.085	22390
851.22	22344
851.355	22356
851.49	22398
851.625	22299
851.76	22322
851.895	22318
852.03	22242
852.165	22348
852.299	22367
852.434	22573
852.569	22398
852.703	22249
852.838	22310
852.973	22470
853.107	22344
853.242	22188
853.376	22139
853.511	22192
853.645	22185
853.78	22322
853.914	22143
854.048	22188
854.183	22109
854.317	22154
854.451	22207
854.585	22101
854.72	22226
854.854	22234
854.988	22070
855.122	22120
855.256	22097
855.39	22207
855.524	22147
855.658	22276
855.792	22013
855.926	22234
856.06	22128
856.194	22215
856.327	22188
856.461	22048
856.595	22044
856.729	22112
856.862	22242
856.996	22265
857.13	22169
857.263	22249
857.397	22318
857.53	22101
857.664	22188
857.797	22116
857.931	22265
858.064	22131
858.197	22341
858.331	22093
858.464	22169
858.597	22006
858.731	22154
858.864	22070
858.997	22093
859.13	22036
859.263	22242
859.396	22287
859.529	22154
859.662	22173
859.795	22154
859.928	22211
860.061	22272
860.194	22322
860.327	22105
860.46	22097
860.592	22272
860.725	22272
860.858	22310
860.99	22135
861.123	22048
861.256	22139
861.388	22230
861.521	22885
861.653	22059
861.786	21941
861.918	22070
862.05	22101
862.183	21991
862.315	22051
862.447	22112
862.58	22124
862.712	21922
862.844	21823
862.976	21994
863.108	21991
863.24	22272
863.372	21869
863.504	21888
863.636	21873
863.768	21968
863.9	21869
864.032	21899
864.164	21793
864.296	21972
864.428	21865
864.559	21930
864.691	21953
864.823	21895
864.954	21759
865.086	21846
865.217	21850
865.349	21732
865.48	21808
865.612	21629
865.743	21964
865.875	21835
866.006	21732
866.137	21690
866.269	21720
866.4	21686
866.531	21720
866.662	21720
866.793	21663
866.924	21663
867.055	21774
867.186	21759
867.317	21698
867.448	21553
867.579	21599
867.71	21660
867.841	21606
867.972	21694
868.103	21705
868.233	21785
868.364	21724
868.495	21720
868.625	21876
868.756	21960
868.886	21850
869.017	21937
869.147	22078
869.278	22040
869.408	21808
869.539	21956
869.669	21899
869.799	22036
869.929	22139
870.06	22055
870.19	22280
870.32	22230
870.45	22306
870.58	22329
870.71	22493
870.84	22367
870.97	22371
871.1	22455
871.23	22409
871.36	22538
871.489	22527
871.619	22462
871.749	22573
871.879	22497
872.008	22660
872.138	22466
872.267	22424
872.397	22443
872.526	22272
872.656	22375
872.785	22413
872.915	22611
873.044	22554
873.173	22637
873.303	22535
873.432	22577
873.561	22672
873.69	22470
873.819	22409
873.948	22725
874.077	22546
874.206	22535
874.335	22527
874.464	22603
874.593	22710
874.722	22694
874.851	22801
874.979	22790
875.108	22771
875.237	22668
875.365	22664
875.494	22637
875.623	22786
875.751	22759
875.88	22824
876.008	22824
876.136	22965
876.265	23258
876.393	23345
876.521	23220
876.65	23185
876.778	23174
876.906	23113
877.034	23006
877.162	23098
877.29	23204
877.418	22980
877.546	23155
877.674	23124
877.802	22999
877.93	23265
878.058	23003
878.185	22919
878.313	23162
878.441	23044
878.568	22953
878.696	22976
878.824	23041
878.951	23250
879.079	23193
879.206	23372
879.333	23337
879.461	23159
879.588	23322
879.715	23440
879.842	23364
879.97	23132
880.097	22942
880.224	22908
880.351	22919
880.478	22946
880.605	22850
880.732	22862
880.859	23170
880.986	22953
881.112	22896
881.239	22839
881.366	22759
881.493	22500
881.619	22596
881.746	22618
881.872	22493
881.999	22504
882.125	22371
882.252	22546
882.378	22462
882.505	22550
882.631	22398
882.757	22223
882.883	22314
883.01	22158
883.136	22211
883.262	22017
883.388	22025
883.514	22150
883.64	22219
883.766	22070
883.892	21854
884.018	21941
884.143	22150
884.269	22162
884.395	21873
884.52	21861
884.646	21892
884.772	21705
884.897	21610
885.023	21869
885.148	21831
885.274	21892
885.399	21926
885.524	21850
885.65	21865
885.775	21831
885.9	21789
886.025	21934
886.15	21926
886.275	21789
886.4	21747
886.525	21724
886.65	21606
886.775	21759
886.9	21964
887.025	22078
887.149	21854
887.274	21629
887.399	21568
887.523	21625
887.648	21450
887.773	21488
887.897	21606
888.021	21595
888.146	21557
888.27	21557
888.395	21675
888.519	21637
888.643	21519
888.767	21599
888.891	21458
889.015	21401
889.139	21431
889.263	21351
889.387	21473
889.511	21557
889.635	21424
889.759	21272
889.883	21435
890.006	21321
890.13	21424
890.254	21397
890.377	21317
890.501	21165
890.624	21241
890.748	21146
890.871	21009
890.995	20864
891.118	20861
891.241	21028
891.364	20941
891.488	21020
891.611	20743
891.734	20868
891.857	20906
891.98	20895
892.103	20952
892.226	21001
892.349	20887
892.471	20697
892.594	20689
892.717	20845
892.839	20716
892.962	20842
893.085	20807
893.207	20777
893.33	20720
893.452	20716
893.575	20906
893.697	20788
893.819	20944
893.941	20944
894.064	20895
894.186	20720
894.308	20830
894.43	20868
894.552	20921
894.674	20788
894.796	20689
894.918	20823
895.04	20823
895.161	20830
895.283	20849
895.405	20689
895.526	20906
895.648	20788
895.769	20804
895.891	20857
896.012	20925
896.134	20834
896.255	20883
896.376	20765
896.498	20708
896.619	20743
896.74	20765
896.861	20883
896.982	21047
897.103	21154
897.224	21062
897.345	20960
897.466	20941
897.587	20952
897.708	21112
897.828	21058
897.949	20872
898.07	20811
898.19	20861
898.311	21154
898.431	20982
898.552	20944
898.672	21062
898.792	20979
898.913	21058
899.033	20819
899.153	20937
899.273	20648
899.393	20804
899.513	20788
899.633	20773
899.753	20777
899.873	20663
899.993	20739
900.113	20826
900.232	20701
900.352	20655
900.472	20659
900.591	20389
900.711	20541
900.83	20343
900.95	20659
901.069	20682
901.189	20446
901.308	20233
901.427	20168
901.546	20130
901.665	20149
901.784	20043
901.904	19887
902.023	19719
902.141	19693
902.26	19677
902.379	19727
902.498	19552
902.617	19537
902.735	19601
902.854	19727
902.973	19407
903.091	19221
903.21	19251
903.328	19244
903.446	19274
903.565	19050
903.683	19019
903.801	18859
903.919	18996
904.038	18962
904.156	18779
904.274	18890
904.392	18772
904.51	18795
904.627	18787
904.745	18802
904.863	18913
904.981	18475
905.098	18479
905.216	18467
905.334	18555
905.451	18391
905.569	18445
905.686	18486
905.803	18433
905.921	18266
906.038	18384
906.155	18273
906.272	18270
906.389	18186
906.506	17984
906.623	18034
906.74	17996
906.857	17805
906.974	17843
907.091	18057
907.208	18152
907.324	17996
907.441	17802
907.557	17611
907.674	17703
907.79	17718
907.907	17703
908.023	17813
908.139	17653
908.256	17638
908.372	17646
908.488	17573
908.604	17463
908.72	17414
908.836	17493
908.952	17452
909.068	17490
909.184	17539
909.3	17551
909.415	17497
909.531	17364
909.647	17235
909.762	17098
909.878	17124
909.993	17204
910.108	17098
910.224	16965
910.339	17060
910.454	17025
910.57	16934
910.685	16904
910.8	17197
910.915	17090
911.03	16904
911.145	16809
911.259	16698
911.374	16744
911.489	16691
911.604	16611
911.718	16516
911.833	16413
911.947	16363
912.062	16344
912.176	16519
912.291	16462
912.405	16303
912.519	16679
912.633	16527
912.748	16497
912.862	16474
912.976	16287
913.09	16268
913.204	16181
913.318	16211
913.431	16379
913.545	16341
913.659	16287
913.772	16169
913.886	16169
914	16032
914.113	16082
914.226	16188
914.34	16128
914.453	16059
914.566	16105
914.68	15968
914.793	15884
914.906	15743
915.019	15648
915.132	15618
915.245	15694
915.358	15660
915.47	15705
915.583	15663
915.696	15648
915.809	15812
915.921	15827
916.034	15523
916.146	15485
916.259	15511
916.371	15572
916.483	15599
916.595	15450
916.708	15485
916.82	15382
916.932	15405
917.044	15382
917.156	15416
917.268	15245
917.38	15416
917.491	15268
917.603	15291
917.715	15408
917.826	15412
917.938	15279
918.049	15089
918.161	15321
918.272	15294
918.384	15283
918.495	15207
918.606	15108
918.717	14990
918.828	15100
918.939	15070
919.05	14918
919.161	15081
919.272	14785
919.383	14857
919.494	15093
919.604	15264
919.715	14956
919.826	14834
919.936	14971
920.047	15116
920.157	15077
920.267	15173
920.378	14979
920.488	14933
920.598	15104
920.708	15188
920.818	15104
920.928	15123
921.038	15249
921.148	15233
921.258	14952
921.368	14830
921.477	14743
921.587	14743
921.697	14522
921.806	14701
921.916	14522
922.025	14404
922.134	14366
922.244	14248
922.353	14320
922.462	14221
922.571	14153
922.68	14035
922.789	13963
922.898	13993
923.007	13936
923.116	14065
923.224	14005
923.333	14100
923.442	13826
923.55	13852
923.659	13864
923.767	13894
923.876	13719
923.984	13795
924.092	13704
924.201	13807
924.309	13719
924.417	13727
924.525	13677
924.633	13738
924.741	14594
924.849	13499
924.956	13628
925.064	13411
925.172	13354
925.279	13502
925.387	13354
925.494	13434
925.602	13506
925.709	13396
925.816	13247
925.924	13217
926.031	13392
926.138	13384
926.245	13301
926.352	13133
926.459	13324
926.566	13415
926.673	13251
926.779	13107
926.886	13103
926.993	12882
927.099	12954
927.206	12901
927.312	12932
927.419	12913
927.525	12916
927.631	12916
927.737	12837
927.843	12821
927.95	12612
928.056	12757
928.162	12779
928.267	12783
928.373	13384
928.479	12844
928.585	12620
928.69	12593
928.796	12734
928.901	12540
929.007	12498
929.112	12688
929.218	12521
929.323	12513
929.428	12441
929.533	12578
929.638	12426
929.743	12380
929.848	12437
929.953	12353
930.058	12258
930.163	12030
930.267	12095
930.372	12315
930.477	12110
930.581	12258
930.685	12213
930.79	11999
930.894	12011
930.998	11961
931.103	12125
931.207	11840
931.311	11707
931.415	11619
931.519	11410
931.623	11372
