Data from test_V78500241_3024.txt Node
Date: Fri Mar 25 16:02:44 CST 2022
User: usil
Spectrometer: V785-0024
Trigger mode: 0
Integration Time (sec): 4.000000E-1
Scans to average: 1
Nonlinearity correction enabled: false
Boxcar width: 0
Storing dark spectrum: false
XAxis mode: Wavelengths
Number of Pixels in Spectrum: 1024
>>>>>Begin Spectral Data<<<<<
801.071	28725
801.214	28702
801.356	28489
801.499	28485
801.641	28356
801.783	28257
801.926	28287
802.068	28390
802.211	28204
802.353	28109
802.496	28032
802.638	28013
802.78	27918
802.923	27903
803.065	27903
803.208	27983
803.35	27926
803.492	28238
803.635	28223
803.777	28036
803.919	28219
804.061	28367
804.204	28200
804.346	28147
804.488	28246
804.63	28303
804.773	28086
804.915	28348
805.057	28443
805.199	28314
805.341	28310
805.483	28527
805.626	28462
805.768	28257
805.91	28329
806.052	28459
806.194	28386
806.336	28691
806.478	28344
806.62	28348
806.762	28584
806.904	28733
807.046	28968
807.188	28877
807.33	28847
807.472	28976
807.614	28828
807.756	28831
807.898	28698
808.04	28645
808.182	28653
808.324	28653
808.465	28721
808.607	28900
808.749	29121
808.891	29318
809.033	29318
809.174	29041
809.316	29060
809.458	29064
809.6	29147
809.741	29242
809.883	29216
810.025	29448
810.166	29379
810.308	29406
810.45	29360
810.591	29261
810.733	29121
810.875	28927
811.016	29136
811.158	28904
811.299	29288
811.441	29322
811.582	29387
811.724	28999
811.865	29075
812.007	29155
812.148	29086
812.29	29185
812.431	29372
812.573	29402
812.714	29512
812.855	29600
812.997	29585
813.138	29862
813.279	29783
813.421	29653
813.562	29543
813.703	29459
813.845	29395
813.986	29223
814.127	28946
814.268	28908
814.41	28847
814.551	28778
814.692	28995
814.833	28656
814.974	28740
815.115	28835
815.256	28801
815.397	28626
815.539	28786
815.68	28774
815.821	28599
815.962	28698
816.103	28698
816.244	28573
816.385	28474
816.526	28455
816.666	28147
816.807	28112
816.948	28219
817.089	28318
817.23	28253
817.371	28234
817.512	28051
817.653	28207
817.793	27945
817.934	28074
818.075	28143
818.216	28090
818.356	28188
818.497	28109
818.638	27861
818.778	27884
818.919	27991
819.06	27953
819.2	28131
819.341	28226
819.481	28090
819.622	28432
819.762	28542
819.903	28413
820.043	28424
820.184	28322
820.324	28192
820.465	28401
820.605	28459
820.746	28310
820.886	28074
821.026	28318
821.167	28188
821.307	28204
821.447	28124
821.588	28093
821.728	27987
821.868	27698
822.008	27618
822.149	27606
822.289	27561
822.429	27370
822.569	27302
822.709	27252
822.849	27222
822.99	27245
823.13	27051
823.27	27024
823.41	26979
823.55	26952
823.69	26971
823.83	27036
823.97	26921
824.11	26651
824.25	26762
824.389	26746
824.529	26826
824.669	26792
824.809	26883
824.949	26880
825.089	26815
825.228	26845
825.368	26731
825.508	26693
825.648	26670
825.787	26746
825.927	26765
826.067	26632
826.206	26629
826.346	26678
826.485	26720
826.625	26686
826.765	26849
826.904	26727
827.044	26648
827.183	26385
827.323	26351
827.462	26370
827.601	26473
827.741	26374
827.88	26461
828.02	26332
828.159	26419
828.298	26446
828.437	26400
828.577	26400
828.716	26393
828.855	26233
828.994	26077
829.134	26130
829.273	26180
829.412	25894
829.551	25947
829.69	26100
829.829	26202
829.968	26050
830.107	26107
830.246	25978
830.385	25963
830.524	26058
830.663	25917
830.802	25776
830.941	25674
831.08	25738
831.219	25791
831.357	25788
831.496	26008
831.635	25594
831.774	25624
831.913	25575
832.051	25464
832.19	25419
832.329	25472
832.467	25422
832.606	25373
832.744	25384
832.883	25251
833.022	25282
833.16	25358
833.299	25422
833.437	25430
833.576	25441
833.714	25464
833.852	25559
833.991	25590
834.129	25502
834.267	25411
834.406	25422
834.544	25419
834.682	25335
834.821	25495
834.959	25567
835.097	25343
835.235	25476
835.373	25324
835.511	25354
835.65	25293
835.788	25183
835.926	25141
836.064	25072
836.202	25095
836.34	25282
836.478	25266
836.615	25365
836.753	25365
836.891	25377
837.029	25244
837.167	25122
837.305	25168
837.443	25217
837.58	25080
837.718	25183
837.856	25133
837.993	24962
838.131	25004
838.269	24825
838.406	24947
838.544	24856
838.681	24719
838.819	24639
838.956	24460
839.094	24513
839.231	24612
839.369	24817
839.506	24928
839.643	24859
839.781	24521
839.918	24540
840.055	24544
840.193	24578
840.33	24380
840.467	24403
840.604	24486
840.742	24536
840.879	24323
841.016	24376
841.153	24350
841.29	24483
841.427	24350
841.564	24418
841.701	24429
841.838	24467
841.975	24319
842.112	24372
842.249	24429
842.385	24220
842.522	24422
842.659	24205
842.796	24304
842.933	24266
843.069	24243
843.206	24140
843.343	24194
843.479	24167
843.616	24262
843.752	24083
843.889	23992
844.025	24079
844.162	24072
844.298	24007
844.435	23893
844.571	24110
844.708	24018
844.844	24144
844.98	24110
845.117	24057
845.253	24083
845.389	23904
845.525	23885
845.661	23874
845.798	23760
845.934	23748
846.07	23531
846.206	23764
846.342	23821
846.478	23661
846.614	23509
846.75	23444
846.886	23383
847.022	23471
847.158	23482
847.294	23490
847.429	23425
847.565	23402
847.701	23672
847.837	23189
847.972	23166
848.108	23322
848.244	23102
848.379	22946
848.515	22946
848.65	23033
848.786	23010
848.921	23086
849.057	23075
849.192	23086
849.328	23071
849.463	22972
849.598	22889
849.734	22949
849.869	22862
850.004	22847
850.14	22820
850.275	22672
850.41	22725
850.545	22771
850.68	22885
850.815	22862
850.95	22755
851.085	22972
851.22	22869
851.355	22847
851.49	22752
851.625	22733
851.76	22687
851.895	22767
852.03	22740
852.165	22721
852.299	22733
852.434	22831
852.569	22805
852.703	22721
852.838	22809
852.973	22976
853.107	22938
853.242	22660
853.376	22687
853.511	22607
853.645	22618
853.78	22763
853.914	22485
854.048	22504
854.183	22622
854.317	22698
854.451	22790
854.585	22687
854.72	22653
854.854	22660
854.988	22535
855.122	22565
855.256	22519
855.39	22565
855.524	22683
855.658	22580
855.792	22645
855.926	22580
856.06	22615
856.194	22744
856.327	22599
856.461	22432
856.595	22512
856.729	22641
856.862	22748
856.996	22698
857.13	22599
857.263	22569
857.397	22691
857.53	22599
857.664	22713
857.797	22607
857.931	22740
858.064	22622
858.197	22713
858.331	22607
858.464	22554
858.597	22390
858.731	22618
858.864	22569
858.997	22478
859.13	22577
859.263	22603
859.396	22706
859.529	22508
859.662	22577
859.795	22622
859.928	22535
860.061	22740
860.194	22885
860.327	22687
860.46	22675
860.592	22717
860.725	22752
860.858	22687
860.99	22596
861.123	22493
861.256	22592
861.388	22497
861.521	23337
861.653	22531
861.786	22512
861.918	22470
862.05	22493
862.183	22561
862.315	22561
862.447	22664
862.58	22546
862.712	22402
862.844	22284
862.976	22474
863.108	22386
863.24	22752
863.372	22230
863.504	22360
863.636	22348
863.768	22466
863.9	22333
864.032	22181
864.164	22238
864.296	22424
864.428	22424
864.559	22516
864.691	22341
864.823	22352
864.954	22295
865.086	22166
865.217	22173
865.349	22082
865.48	22238
865.612	22177
865.743	22405
865.875	22204
866.006	22109
866.137	22181
866.269	22188
866.4	22219
866.531	22177
866.662	22013
866.793	22147
866.924	22154
867.055	22188
867.186	22143
867.317	22181
867.448	22120
867.579	22086
867.71	22082
867.841	21979
867.972	22090
868.103	22185
868.233	22070
868.364	22093
868.495	22265
868.625	22352
868.756	22455
868.886	22284
869.017	22219
869.147	22432
869.278	22550
869.408	22379
869.539	22386
869.669	22466
869.799	22451
869.929	22455
870.06	22538
870.19	22755
870.32	22618
870.45	22782
870.58	22710
870.71	22809
870.84	22934
870.97	22831
871.1	22831
871.23	22957
871.36	23010
871.489	22835
871.619	22904
871.749	23018
871.879	23048
872.008	23033
872.138	22869
872.267	23003
872.397	22900
872.526	22831
872.656	22805
872.785	22801
872.915	22942
873.044	22961
873.173	22949
873.303	23010
873.432	23143
873.561	23025
873.69	23044
873.819	22911
873.948	23147
874.077	22942
874.206	22896
874.335	22885
874.464	23117
874.593	23227
874.722	23181
874.851	23220
874.979	23239
875.108	23250
875.237	23178
875.365	23056
875.494	23216
875.623	23330
875.751	23197
875.88	23197
876.008	23265
876.136	23372
876.265	23509
876.393	23684
876.521	23638
876.65	23752
876.778	23604
876.906	23566
877.034	23425
877.162	23634
877.29	23528
877.418	23668
877.546	23573
877.674	23577
877.802	23516
877.93	23623
878.058	23509
878.185	23455
878.313	23395
878.441	23531
878.568	23391
878.696	23566
878.824	23600
878.951	23585
879.079	23646
879.206	23885
879.333	23718
879.461	23592
879.588	23646
879.715	23733
879.842	23752
879.97	23497
880.097	23322
880.224	23360
880.351	23410
880.478	23406
880.605	23326
880.732	23334
880.859	23554
880.986	23239
881.112	23284
881.239	23360
881.366	23113
881.493	22942
881.619	22923
881.746	22942
881.872	22900
881.999	22866
882.125	22862
882.252	22892
882.378	22824
882.505	22976
882.631	22839
882.757	22668
882.883	22634
883.01	22508
883.136	22596
883.262	22447
883.388	22447
883.514	22573
883.64	22611
883.766	22508
883.892	22318
884.018	22402
884.143	22500
884.269	22645
884.395	22325
884.52	22211
884.646	22272
884.772	22109
884.897	22078
885.023	22158
885.148	22287
885.274	22322
885.399	22265
885.524	22261
885.65	22249
885.775	22188
885.9	22211
886.025	22314
886.15	22272
886.275	22120
886.4	22192
886.525	22265
886.65	22257
886.775	22162
886.9	22325
887.025	22478
887.149	22230
887.274	22116
887.399	22044
887.523	22044
887.648	22044
887.773	21835
887.897	22097
888.021	21987
888.146	21983
888.27	22192
888.395	22093
888.519	22040
888.643	21979
888.767	21926
888.891	21991
889.015	21804
889.139	21880
889.263	21770
889.387	21964
889.511	22048
889.635	21774
889.759	21720
889.883	21755
890.006	21743
890.13	21915
890.254	21755
890.377	21747
890.501	21557
890.624	21545
890.748	21656
890.871	21511
890.995	21408
891.118	21207
891.241	21279
891.364	21310
891.488	21408
891.611	21230
891.734	21313
891.857	21321
891.98	21268
892.103	21340
892.226	21386
892.349	21226
892.471	21077
892.594	21207
892.717	21241
892.839	21302
892.962	21272
893.085	21397
893.207	21184
893.33	21116
893.452	21237
893.575	21245
893.697	21150
893.819	21313
893.941	21325
894.064	21313
894.186	21116
894.308	21173
894.43	21214
894.552	21450
894.674	21199
894.796	21096
894.918	21199
895.04	21173
895.161	21218
895.283	21173
895.405	21165
895.526	21222
895.648	21138
895.769	21081
895.891	21226
896.012	21325
896.134	21256
896.255	21184
896.376	21165
896.498	21154
896.619	21218
896.74	21279
896.861	21256
896.982	21462
897.103	21447
897.224	21469
897.345	21321
897.466	21272
897.587	21420
897.708	21561
897.828	21401
897.949	21283
898.07	21135
898.19	21256
898.311	21389
898.431	21252
898.552	21363
898.672	21317
898.792	21412
898.913	21351
899.033	21355
899.153	21165
899.273	21047
899.393	21108
899.513	21150
899.633	21127
899.753	21142
899.873	21150
899.993	21093
900.113	21081
900.232	21043
900.352	21009
900.472	21039
900.591	20804
900.711	20849
900.83	20796
900.95	20979
901.069	21074
901.189	20678
901.308	20526
901.427	20427
901.546	20434
901.665	20450
901.784	20400
901.904	20244
902.023	20233
902.141	19978
902.26	20031
902.379	19932
902.498	19967
902.617	19818
902.735	20081
902.854	19856
902.973	19860
903.091	19620
903.21	19597
903.328	19662
903.446	19575
903.565	19483
903.683	19388
903.801	19301
903.919	19213
904.038	19460
904.156	19179
904.274	19240
904.392	19168
904.51	19171
904.627	19095
904.745	19027
904.863	19232
904.981	18973
905.098	18924
905.216	18795
905.334	18863
905.451	18867
905.569	18852
905.686	18760
905.803	18795
905.921	18551
906.038	18616
906.155	18661
906.272	18559
906.389	18483
906.506	18460
906.623	18391
906.74	18209
906.857	18159
906.974	18292
907.091	18361
907.208	18369
907.324	18395
907.441	18178
907.557	18019
907.674	18057
907.79	17996
907.907	17988
908.023	18026
908.139	18133
908.256	18011
908.372	18007
908.488	17992
908.604	17832
908.72	17805
908.836	17764
908.952	17786
909.068	17817
909.184	17893
909.3	17687
909.415	17741
909.531	17737
909.647	17589
909.762	17535
909.878	17376
909.993	17395
910.108	17402
910.224	17280
910.339	17455
910.454	17280
910.57	17356
910.685	17250
910.8	17398
910.915	17433
911.03	17318
911.145	17056
911.259	17022
911.374	16987
911.489	16942
911.604	16923
911.718	16729
911.833	16748
911.947	16710
912.062	16512
912.176	16862
912.291	16793
912.405	16759
912.519	16946
912.633	16881
912.748	16797
912.862	16698
912.976	16577
913.09	16535
913.204	16459
913.318	16653
913.431	16611
913.545	16664
913.659	16736
913.772	16618
913.886	16413
914	16344
914.113	16432
914.226	16474
914.34	16447
914.453	16253
914.566	16402
914.68	16322
914.793	16257
914.906	16093
915.019	15983
915.132	15876
915.245	15964
915.358	15941
915.47	15972
915.583	16017
915.696	15964
915.809	16093
915.921	16181
916.034	15907
916.146	15953
916.259	15819
916.371	15949
916.483	15800
916.595	15698
916.708	15797
916.82	15751
916.932	15717
917.044	15694
917.156	15671
917.268	15591
917.38	15572
917.491	15591
917.603	15667
917.715	15606
917.826	15675
917.938	15496
918.049	15458
918.161	15599
918.272	15675
918.384	15720
918.495	15466
918.606	15329
918.717	15272
918.828	15294
918.939	15458
919.05	15241
919.161	15233
919.272	15039
919.383	15218
919.494	15306
919.604	15515
919.715	15287
919.826	15119
919.936	15272
920.047	15325
920.157	15272
920.267	15447
920.378	15283
920.488	15207
920.598	15363
920.708	15618
920.818	15351
920.928	15428
921.038	15496
921.148	15618
921.258	15169
921.368	15150
921.477	15097
921.587	15013
921.697	14887
921.806	14963
921.916	14933
922.025	14705
922.134	14651
922.244	14549
922.353	14659
922.462	14461
922.571	14351
922.68	14343
922.789	14282
922.898	14240
923.007	14130
923.116	14339
923.224	14153
923.333	14275
923.442	14062
923.55	14054
923.659	14058
923.767	14111
923.876	14084
923.984	14092
924.092	14016
924.201	14024
924.309	14005
924.417	14058
924.525	13928
924.633	13849
924.741	14644
924.849	13708
924.956	13826
925.064	13662
925.172	13620
925.279	13529
925.387	13609
925.494	13643
925.602	13696
925.709	13609
925.816	13510
925.924	13571
926.031	13643
926.138	13571
926.245	13586
926.352	13476
926.459	13544
926.566	13594
926.673	13518
926.779	13373
926.886	13381
926.993	13183
927.099	13164
927.206	13088
927.312	13149
927.419	13202
927.525	13190
927.631	13206
927.737	13088
927.843	12989
927.95	12935
928.056	12981
928.162	13034
928.267	13057
928.373	13639
928.479	13000
928.585	12848
928.69	12981
928.796	12871
928.901	12890
929.007	12802
929.112	12772
929.218	12722
929.323	12639
929.428	12601
929.533	12795
929.638	12585
929.743	12566
929.848	12692
929.953	12585
930.058	12544
930.163	12369
930.267	12357
930.372	12494
930.477	12266
930.581	12448
930.685	12311
930.79	12262
930.894	12232
930.998	12178
931.103	12380
931.207	11988
931.311	11847
931.415	11828
931.519	11539
931.623	11573
