Data from test_V78500241_1469.txt Node
Date: Fri Mar 25 15:51:58 CST 2022
User: usil
Spectrometer: V785-0024
Trigger mode: 0
Integration Time (sec): 4.000000E-1
Scans to average: 1
Nonlinearity correction enabled: false
Boxcar width: 0
Storing dark spectrum: false
XAxis mode: Wavelengths
Number of Pixels in Spectrum: 1024
>>>>>Begin Spectral Data<<<<<
801.071	27618
801.214	27599
801.356	27397
801.499	27184
801.641	27173
801.783	27184
801.926	27218
802.068	27241
802.211	27112
802.353	27161
802.496	26826
802.638	26743
802.78	26746
802.923	26788
803.065	26720
803.208	26845
803.35	26758
803.492	26925
803.635	27047
803.777	26838
803.919	26910
804.061	27275
804.204	27070
804.346	26994
804.488	27009
804.63	26982
804.773	26880
804.915	26887
805.057	27058
805.199	27074
805.341	27138
805.483	27211
805.626	27169
805.768	26899
805.91	27176
806.052	27138
806.194	27085
806.336	27401
806.478	27340
806.62	27169
806.762	27291
806.904	27412
807.046	27610
807.188	27469
807.33	27507
807.472	27618
807.614	27500
807.756	27462
807.898	27397
808.04	27405
808.182	27458
808.324	27420
808.465	27477
808.607	27698
808.749	27797
808.891	27778
809.033	27857
809.174	27876
809.316	27766
809.458	27709
809.6	27728
809.741	27934
809.883	27789
810.025	28032
810.166	27884
810.308	27960
810.45	28074
810.591	27972
810.733	27918
810.875	27755
811.016	27679
811.158	27842
811.299	27816
811.441	27682
811.582	27888
811.724	27728
811.865	27732
812.007	27652
812.148	27698
812.29	27762
812.431	27972
812.573	27983
812.714	28086
812.855	28086
812.997	28341
813.138	28459
813.279	28310
813.421	28219
813.562	28101
813.703	28086
813.845	27907
813.986	27759
814.127	27393
814.268	27382
814.41	27401
814.551	27283
814.692	27564
814.833	27317
814.974	27401
815.115	27370
815.256	27355
815.397	27180
815.539	27374
815.68	27184
815.821	27074
815.962	27222
816.103	27313
816.244	27001
816.385	27043
816.526	26925
816.666	26773
816.807	26609
816.948	26739
817.089	26842
817.23	26663
817.371	26788
817.512	26625
817.653	26564
817.793	26530
817.934	26727
818.075	26689
818.216	26598
818.356	26583
818.497	26617
818.638	26400
818.778	26453
818.919	26400
819.06	26476
819.2	26590
819.341	26545
819.481	26568
819.622	26758
819.762	26899
819.903	27020
820.043	26849
820.184	26712
820.324	26743
820.465	26788
820.605	26804
820.746	26925
820.886	26629
821.026	26777
821.167	26758
821.307	26777
821.447	26739
821.588	26503
821.728	26594
821.868	26286
822.008	26237
822.149	26027
822.289	26237
822.429	25917
822.569	25791
822.709	25784
822.849	25765
822.99	25575
823.13	25719
823.27	25567
823.41	25331
823.55	25422
823.69	25559
823.83	25548
823.97	25453
824.11	25324
824.25	25297
824.389	25350
824.529	25384
824.669	25297
824.809	25514
824.949	25350
825.089	25358
825.228	25365
825.368	25190
825.508	25194
825.648	25263
825.787	25240
825.927	25251
826.067	25137
826.206	25168
826.346	25171
826.485	25255
826.625	25251
826.765	25209
826.904	25236
827.044	24962
827.183	24932
827.323	24992
827.462	25072
827.601	24833
827.741	24859
827.88	24996
828.02	24681
828.159	24943
828.298	24875
828.437	24966
828.577	24844
828.716	24909
828.855	24738
828.994	24547
829.134	24639
829.273	24669
829.412	24593
829.551	24422
829.69	24582
829.829	24612
829.968	24540
830.107	24437
830.246	24658
830.385	24418
830.524	24570
830.663	24388
830.802	24384
830.941	24209
831.08	24216
831.219	24289
831.357	24308
831.496	24391
831.635	24129
831.774	24098
831.913	24140
832.051	23931
832.19	23942
832.329	24072
832.467	23920
832.606	23813
832.744	23790
832.883	23882
833.022	23668
833.16	23885
833.299	23923
833.437	23893
833.576	23874
833.714	23843
833.852	23988
833.991	24117
834.129	24007
834.267	23954
834.406	23946
834.544	23847
834.682	24018
834.821	23923
834.959	24144
835.097	23794
835.235	23916
835.373	23809
835.511	23840
835.65	23726
835.788	23718
835.926	23661
836.064	23585
836.202	23642
836.34	23699
836.478	23878
836.615	23752
836.753	23718
836.891	23859
837.029	23752
837.167	23653
837.305	23558
837.443	23619
837.58	23672
837.718	23699
837.856	23577
837.993	23436
838.131	23459
838.269	23410
838.406	23516
838.544	23429
838.681	23307
838.819	23166
838.956	23037
839.094	23006
839.231	23048
839.369	23242
839.506	23440
839.643	23296
839.781	23197
839.918	23071
840.055	23098
840.193	23003
840.33	22961
840.467	22938
840.604	23044
840.742	23185
840.879	22793
841.016	22858
841.153	22885
841.29	23033
841.427	22991
841.564	22965
841.701	22957
841.838	22942
841.975	22862
842.112	22793
842.249	22873
842.385	22664
842.522	23086
842.659	22702
842.796	22694
842.933	22755
843.069	22706
843.206	22672
843.343	22763
843.479	22668
843.616	22660
843.752	22497
843.889	22615
844.025	22622
844.162	22527
844.298	22550
844.435	22462
844.571	22375
844.708	22588
844.844	22664
844.98	22637
845.117	22554
845.253	22489
845.389	22390
845.525	22371
845.661	22440
845.798	22219
845.934	22382
846.07	22211
846.206	22356
846.342	22379
846.478	22147
846.614	21979
846.75	21846
846.886	21918
847.022	22169
847.158	21865
847.294	21892
847.429	22021
847.565	21907
847.701	22223
847.837	21698
847.972	21568
848.108	21838
848.244	21671
848.379	21504
848.515	21561
848.65	21477
848.786	21564
848.921	21507
849.057	21785
849.192	21614
849.328	21530
849.463	21671
849.598	21519
849.734	21485
849.869	21302
850.004	21336
850.14	21275
850.275	21340
850.41	21279
850.545	21169
850.68	21241
850.815	21279
850.95	21294
851.085	21557
851.22	21389
851.355	21351
851.49	21329
851.625	21408
851.76	21211
851.895	21302
852.03	21241
852.165	21306
852.299	21416
852.434	21291
852.569	21393
852.703	21454
852.838	21367
852.973	21382
853.107	21306
853.242	21252
853.376	21203
853.511	21081
853.645	21195
853.78	21226
853.914	21123
854.048	21161
854.183	21127
854.317	21188
854.451	21283
854.585	21142
854.72	21028
854.854	21131
854.988	21051
855.122	21157
855.256	21028
855.39	21127
855.524	21268
855.658	21249
855.792	21154
855.926	21241
856.06	21184
856.194	21146
856.327	21245
856.461	21051
856.595	21089
856.729	21081
856.862	21325
856.996	21127
857.13	21096
857.263	21123
857.397	21203
857.53	21100
857.664	21169
857.797	21180
857.931	21184
858.064	21256
858.197	21260
858.331	21089
858.464	21157
858.597	20979
858.731	21047
858.864	21138
858.997	21226
859.13	21112
859.263	21009
859.396	21207
859.529	21135
859.662	21203
859.795	20982
859.928	21294
860.061	21207
860.194	21313
860.327	21184
860.46	21264
860.592	21348
860.725	21382
860.858	21275
860.99	21268
861.123	21135
861.256	21013
861.388	21150
861.521	21854
861.653	20990
861.786	20944
861.918	20994
862.05	20986
862.183	21020
862.315	21104
862.447	21127
862.58	21005
862.712	20842
862.844	20948
862.976	20918
863.108	20861
863.24	21306
863.372	20754
863.504	20853
863.636	20880
863.768	20906
863.9	20960
864.032	20686
864.164	20739
864.296	20895
864.428	21043
864.559	20883
864.691	20868
864.823	20830
864.954	20800
865.086	20883
865.217	20686
865.349	20746
865.48	20838
865.612	20743
865.743	20830
865.875	20823
866.006	20663
866.137	20819
866.269	20819
866.4	20750
866.531	20739
866.662	20651
866.793	20781
866.924	20629
867.055	20663
867.186	20663
867.317	20598
867.448	20541
867.579	20731
867.71	20602
867.841	20556
867.972	20731
868.103	20701
868.233	20655
868.364	20712
868.495	20712
868.625	20941
868.756	21070
868.886	20823
869.017	20845
869.147	20986
869.278	21089
869.408	21024
869.539	20956
869.669	20914
869.799	20994
869.929	21047
870.06	21100
870.19	21176
870.32	21233
870.45	21222
870.58	21268
870.71	21393
870.84	21393
870.97	21344
871.1	21397
871.23	21515
871.36	21435
871.489	21416
871.619	21466
871.749	21496
871.879	21477
872.008	21462
872.138	21542
872.267	21591
872.397	21294
872.526	21344
872.656	21321
872.785	21302
872.915	21564
873.044	21580
873.173	21485
873.303	21595
873.432	21656
873.561	21690
873.69	21656
873.819	21530
873.948	21545
874.077	21671
874.206	21511
874.335	21652
874.464	21778
874.593	21743
874.722	21838
874.851	21876
874.979	21778
875.108	21888
875.237	21816
875.365	21766
875.494	21701
875.623	21915
875.751	21724
875.88	21698
876.008	21983
876.136	21987
876.265	22188
876.393	22325
876.521	22120
876.65	22314
876.778	22284
876.906	22223
877.034	22249
877.162	22169
877.29	22169
877.418	22120
877.546	22162
877.674	22169
877.802	22059
877.93	22200
878.058	22139
878.185	22070
878.313	22150
878.441	22154
878.568	21873
878.696	22097
878.824	22192
878.951	22303
879.079	22382
879.206	22523
879.333	22147
879.461	22154
879.588	22200
879.715	22318
879.842	22360
879.97	22348
880.097	22036
880.224	21960
880.351	22048
880.478	22063
880.605	21956
880.732	22032
880.859	22276
880.986	22017
881.112	21918
881.239	21838
881.366	21739
881.493	21686
881.619	21557
881.746	21439
881.872	21625
881.999	21466
882.125	21469
882.252	21545
882.378	21469
882.505	21705
882.631	21500
882.757	21378
882.883	21382
883.01	21294
883.136	21184
883.262	21188
883.388	21150
883.514	21268
883.64	21291
883.766	21218
883.892	20986
884.018	21032
884.143	21245
884.269	21317
884.395	20960
884.52	21005
884.646	20933
884.772	20785
884.897	20830
885.023	20899
885.148	20918
885.274	21096
885.399	21085
885.524	20925
885.65	20971
885.775	20857
885.9	20807
886.025	20891
886.15	20902
886.275	20853
886.4	20758
886.525	20826
886.65	20739
886.775	20765
886.9	20956
887.025	21036
887.149	20731
887.274	20708
887.399	20621
887.523	20678
887.648	20590
887.773	20621
887.897	20762
888.021	20705
888.146	20602
888.27	20845
888.395	20765
888.519	20659
888.643	20765
888.767	20670
888.891	20583
889.015	20446
889.139	20533
889.263	20332
889.387	20537
889.511	20590
889.635	20571
889.759	20374
889.883	20423
890.006	20594
890.13	20648
890.254	20381
890.377	20362
890.501	20282
890.624	20161
890.748	20267
890.871	20191
890.995	20043
891.118	19967
891.241	20020
891.364	19967
891.488	20153
891.611	20020
891.734	19982
891.857	19951
891.98	19967
892.103	20164
892.226	20039
892.349	20001
892.471	19883
892.594	19906
892.717	20065
892.839	19963
892.962	20005
893.085	19970
893.207	19959
893.33	19818
893.452	19887
893.575	20065
893.697	19932
893.819	20122
893.941	20046
894.064	20119
894.186	19944
894.308	19826
894.43	19986
894.552	20024
894.674	19940
894.796	19959
894.918	19978
895.04	19921
895.161	19887
895.283	19951
895.405	19864
895.526	19894
895.648	20012
895.769	19986
895.891	20054
896.012	20073
896.134	19993
896.255	19944
896.376	19947
896.498	19917
896.619	20001
896.74	19989
896.861	19989
896.982	20301
897.103	20438
897.224	20336
897.345	20229
897.466	20008
897.587	20107
897.708	20313
897.828	20183
897.949	20039
898.07	20012
898.19	20027
898.311	20358
898.431	20187
898.552	20157
898.672	20362
898.792	20324
898.913	20210
899.033	20142
899.153	19947
899.273	19890
899.393	19993
899.513	19989
899.633	20073
899.753	19959
899.873	19921
899.993	19947
900.113	19811
900.232	19993
900.352	19970
900.472	19799
900.591	19674
900.711	19811
900.83	19651
900.95	19833
901.069	19909
901.189	19616
901.308	19312
901.427	19198
901.546	19320
901.665	19335
901.784	19335
901.904	19179
902.023	19141
902.141	18886
902.26	18810
902.379	18939
902.498	18825
902.617	18852
902.735	18844
902.854	18692
902.973	18677
903.091	18540
903.21	18429
903.328	18589
903.446	18334
903.565	18205
903.683	18308
903.801	18159
903.919	18300
904.038	18285
904.156	18117
904.274	18102
904.392	18003
904.51	18076
904.627	18076
904.745	18174
904.863	18019
904.981	17775
905.098	17687
905.216	17710
905.334	17767
905.451	17729
905.569	17600
905.686	17752
905.803	17821
905.921	17562
906.038	17642
906.155	17539
906.272	17334
906.389	17398
906.506	17242
906.623	17398
906.74	17223
906.857	17136
906.974	17140
907.091	17334
907.208	17429
907.324	17231
907.441	17223
907.557	17136
907.674	16904
907.79	16938
907.907	16885
908.023	17056
908.139	17010
908.256	16934
908.372	16847
908.488	16854
908.604	16752
908.72	16656
908.836	16679
908.952	16679
909.068	16649
909.184	16687
909.3	16736
909.415	16729
909.531	16653
909.647	16459
909.762	16459
909.878	16295
909.993	16523
910.108	16333
910.224	16352
910.339	16424
910.454	16204
910.57	16135
910.685	16120
910.8	16382
910.915	16459
911.03	16173
911.145	16048
911.259	15975
911.374	15869
911.489	16036
911.604	15895
911.718	15739
911.833	15861
911.947	15629
912.062	15667
912.176	15701
912.291	15743
912.405	15751
912.519	16002
912.633	16040
912.748	15793
912.862	15698
912.976	15462
913.09	15424
913.204	15595
913.318	15625
913.431	15625
913.545	15614
913.659	15717
913.772	15519
913.886	15416
914	15447
914.113	15496
914.226	15504
914.34	15393
914.453	15252
914.566	15378
914.68	15146
914.793	15131
914.906	15066
915.019	14963
915.132	14986
915.245	15001
915.358	14982
915.47	14971
915.583	15020
915.696	14952
915.809	15188
915.921	15097
916.034	14918
916.146	14876
916.259	14902
916.371	14948
916.483	14944
916.595	14819
916.708	14815
916.82	14804
916.932	14845
917.044	14785
917.156	14758
917.268	14583
917.38	14697
917.491	14651
917.603	14659
917.715	14762
917.826	14739
917.938	14571
918.049	14499
918.161	14579
918.272	14697
918.384	14705
918.495	14545
918.606	14454
918.717	14271
918.828	14370
918.939	14415
919.05	14358
919.161	14473
919.272	14210
919.383	14225
919.494	14446
919.604	14568
919.715	14393
919.826	14332
919.936	14358
920.047	14469
920.157	14396
920.267	14613
920.378	14358
920.488	14396
920.598	14488
920.708	14606
920.818	14575
920.928	14564
921.038	14667
921.148	14629
921.258	14358
921.368	14233
921.477	14134
921.587	14142
921.697	13986
921.806	14103
921.916	13875
922.025	13879
922.134	13719
922.244	13784
922.353	13753
922.462	13704
922.571	13616
922.68	13438
922.789	13434
922.898	13438
923.007	13320
923.116	13415
923.224	13430
923.333	13320
923.442	13392
923.55	13266
923.659	13343
923.767	13304
923.876	13171
923.984	13278
924.092	13122
924.201	13274
924.309	13107
924.417	13179
924.525	13050
924.633	13103
924.741	13989
924.849	12878
924.956	13019
925.064	12863
925.172	12837
925.279	12909
925.387	12825
925.494	12844
925.602	12913
925.709	12909
925.816	12711
925.924	12859
926.031	12795
926.138	12806
926.245	12894
926.352	12597
926.459	12840
926.566	12795
926.673	12787
926.779	12604
926.886	12612
926.993	12479
927.099	12407
927.206	12311
927.312	12426
927.419	12350
927.525	12418
927.631	12327
927.737	12285
927.843	12254
927.95	12190
928.056	12194
928.162	12148
928.267	12300
928.373	12909
928.479	12277
928.585	12045
928.69	12171
928.796	12232
928.901	12091
929.007	11935
929.112	12125
929.218	12015
929.323	11977
929.428	11996
929.533	12045
929.638	11920
929.743	11980
929.848	11923
929.953	11912
930.058	11790
930.163	11619
930.267	11665
930.372	11752
930.477	11619
930.581	11851
930.685	11657
930.79	11520
930.894	11551
930.998	11482
931.103	11623
931.207	11307
931.311	11258
931.415	11113
931.519	10942
931.623	10900
