Data from test_V78500241_2553.txt Node
Date: Fri Mar 25 15:59:29 CST 2022
User: usil
Spectrometer: V785-0024
Trigger mode: 0
Integration Time (sec): 4.000000E-1
Scans to average: 1
Nonlinearity correction enabled: false
Boxcar width: 0
Storing dark spectrum: false
XAxis mode: Wavelengths
Number of Pixels in Spectrum: 1024
>>>>>Begin Spectral Data<<<<<
801.071	28763
801.214	28706
801.356	28451
801.499	28139
801.641	28287
801.783	28390
801.926	28371
802.068	28306
802.211	28211
802.353	28280
802.496	27979
802.638	27991
802.78	27941
802.923	27854
803.065	27854
803.208	28025
803.35	28002
803.492	28051
803.635	28284
803.777	28246
803.919	28226
804.061	28462
804.204	28192
804.346	28234
804.488	28059
804.63	28249
804.773	28105
804.915	28360
805.057	28322
805.199	28303
805.341	28348
805.483	28398
805.626	28344
805.768	28185
805.91	28318
806.052	28421
806.194	28276
806.336	28333
806.478	28257
806.62	28447
806.762	28596
806.904	28672
807.046	28866
807.188	28824
807.33	28888
807.472	28904
807.614	28820
807.756	28797
807.898	28637
808.04	28717
808.182	28618
808.324	28664
808.465	28820
808.607	28888
808.749	29006
808.891	29083
809.033	29231
809.174	29064
809.316	29128
809.458	28888
809.6	29094
809.741	29200
809.883	29315
810.025	29360
810.166	29315
810.308	29379
810.45	29284
810.591	29334
810.733	29033
810.875	29204
811.016	29029
811.158	28968
811.299	29170
811.441	29185
811.582	29391
811.724	29060
811.865	29235
812.007	29033
812.148	29006
812.29	29105
812.431	29143
812.573	29311
812.714	29417
812.855	29581
812.997	29687
813.138	29904
813.279	29733
813.421	29646
813.562	29414
813.703	29337
813.845	29212
813.986	29044
814.127	28767
814.268	28881
814.41	28752
814.551	28710
814.692	28717
814.833	28698
814.974	28790
815.115	28759
815.256	28641
815.397	28653
815.539	28580
815.68	28466
815.821	28672
815.962	28577
816.103	28504
816.244	28474
816.385	28478
816.526	28272
816.666	28177
816.807	28097
816.948	28219
817.089	28055
817.23	28124
817.371	28188
817.512	28135
817.653	27975
817.793	28059
817.934	28013
818.075	28131
818.216	28055
818.356	27998
818.497	28051
818.638	27770
818.778	27895
818.919	27812
819.06	27838
819.2	28059
819.341	27937
819.481	28173
819.622	28295
819.762	28413
819.903	28428
820.043	28280
820.184	28249
820.324	28219
820.465	28284
820.605	28276
820.746	28261
820.886	28059
821.026	28246
821.167	28173
821.307	28207
821.447	28135
821.588	28078
821.728	27899
821.868	27762
822.008	27644
822.149	27568
822.289	27557
822.429	27321
822.569	27294
822.709	27348
822.849	27192
822.99	27074
823.13	26956
823.27	27032
823.41	26975
823.55	26823
823.69	27009
823.83	26906
823.97	26849
824.11	26640
824.25	26655
824.389	26842
824.529	26781
824.669	26838
824.809	26921
824.949	26838
825.089	26811
825.228	26880
825.368	26503
825.508	26667
825.648	26765
825.787	26693
825.927	26739
826.067	26606
826.206	26583
826.346	26735
826.485	26625
826.625	26598
826.765	26921
826.904	26701
827.044	26469
827.183	26492
827.323	26362
827.462	26339
827.601	26385
827.741	26298
827.88	26438
828.02	26305
828.159	26385
828.298	26282
828.437	26278
828.577	26267
828.716	26465
828.855	26267
828.994	26005
829.134	26046
829.273	26263
829.412	26130
829.551	26180
829.69	26263
829.829	26138
829.968	26187
830.107	26145
830.246	26001
830.385	25928
830.524	26024
830.663	25776
830.802	25761
830.941	25761
831.08	25620
831.219	25791
831.357	25693
831.496	25852
831.635	25791
831.774	25575
831.913	25544
832.051	25533
832.19	25449
832.329	25544
832.467	25346
832.606	25419
832.744	25278
832.883	25308
833.022	25327
833.16	25464
833.299	25327
833.437	25426
833.576	25327
833.714	25384
833.852	25381
833.991	25430
834.129	25502
834.267	25483
834.406	25453
834.544	25506
834.682	25365
834.821	25438
834.959	25521
835.097	25190
835.235	25362
835.373	25384
835.511	25392
835.65	25179
835.788	25285
835.926	25114
836.064	25107
836.202	25000
836.34	25396
836.478	25304
836.615	25190
836.753	25183
836.891	25358
837.029	25251
837.167	24981
837.305	25198
837.443	25053
837.58	25019
837.718	25103
837.856	25152
837.993	24886
838.131	25076
838.269	24932
838.406	25046
838.544	24848
838.681	24646
838.819	24768
838.956	24513
839.094	24566
839.231	24521
839.369	24715
839.506	24954
839.643	24856
839.781	24532
839.918	24410
840.055	24437
840.193	24528
840.33	24422
840.467	24391
840.604	24475
840.742	24681
840.879	24315
841.016	24304
841.153	24182
841.29	24502
841.427	24384
841.564	24536
841.701	24395
841.838	24319
841.975	24391
842.112	24247
842.249	24311
842.385	24114
842.522	24357
842.659	24270
842.796	24148
842.933	24167
843.069	24235
843.206	24018
843.343	24140
843.479	24224
843.616	24155
843.752	23927
843.889	24045
844.025	24038
844.162	24011
844.298	23992
844.435	23946
844.571	23908
844.708	23878
844.844	24136
844.98	24136
845.117	24072
845.253	23851
845.389	23851
845.525	23851
845.661	23771
845.798	23771
845.934	23863
846.07	23718
846.206	23676
846.342	23828
846.478	23668
846.614	23398
846.75	23364
846.886	23307
847.022	23516
847.158	23421
847.294	23398
847.429	23402
847.565	23239
847.701	23615
847.837	23044
847.972	23044
848.108	23170
848.244	23178
848.379	22915
848.515	23018
848.65	23006
848.786	22938
848.921	23166
849.057	23113
849.192	23044
849.328	23109
849.463	23056
849.598	22987
849.734	22824
849.869	22797
850.004	22668
850.14	22713
850.275	22763
850.41	22645
850.545	22630
850.68	22702
850.815	22702
850.95	22691
851.085	22968
851.22	22839
851.355	22713
851.49	22683
851.625	22611
851.76	22755
851.895	22744
852.03	22592
852.165	22839
852.299	22687
852.434	22736
852.569	22782
852.703	22793
852.838	22744
852.973	22904
853.107	22850
853.242	22672
853.376	22485
853.511	22512
853.645	22504
853.78	22752
853.914	22508
854.048	22596
854.183	22622
854.317	22485
854.451	22713
854.585	22565
854.72	22599
854.854	22474
854.988	22417
855.122	22596
855.256	22417
855.39	22618
855.524	22607
855.658	22557
855.792	22611
855.926	22569
856.06	22599
856.194	22637
856.327	22634
856.461	22474
856.595	22428
856.729	22538
856.862	22683
856.996	22538
857.13	22691
857.263	22713
857.397	22771
857.53	22542
857.664	22596
857.797	22694
857.931	22637
858.064	22508
858.197	22622
858.331	22432
858.464	22592
858.597	22348
858.731	22542
858.864	22538
858.997	22577
859.13	22672
859.263	22565
859.396	22634
859.529	22599
859.662	22478
859.795	22580
859.928	22489
860.061	22668
860.194	22824
860.327	22615
860.46	22550
860.592	22694
860.725	22622
860.858	22679
860.99	22611
861.123	22432
861.256	22440
861.388	22569
861.521	23193
861.653	22478
861.786	22318
861.918	22421
862.05	22329
862.183	22382
862.315	22481
862.447	22466
862.58	22470
862.712	22230
862.844	22341
862.976	22219
863.108	22230
863.24	22736
863.372	22295
863.504	22265
863.636	22291
863.768	22185
863.9	22215
864.032	22211
864.164	22215
864.296	22169
864.428	22246
864.559	22246
864.691	22280
864.823	22223
864.954	22356
865.086	22287
865.217	22082
865.349	21975
865.48	22226
865.612	22093
865.743	22226
865.875	22116
866.006	21998
866.137	22150
866.269	22063
866.4	22101
866.531	22128
866.662	21998
866.793	21987
866.924	22093
867.055	22158
867.186	22021
867.317	22101
867.448	21956
867.579	21915
867.71	21918
867.841	21975
867.972	22086
868.103	22230
868.233	22070
868.364	22139
868.495	22112
868.625	22306
868.756	22329
868.886	22215
869.017	22352
869.147	22466
869.278	22470
869.408	22318
869.539	22287
869.669	22287
869.799	22333
869.929	22440
870.06	22337
870.19	22557
870.32	22485
870.45	22622
870.58	22683
870.71	22831
870.84	22839
870.97	22660
871.1	22516
871.23	22965
871.36	22866
871.489	22816
871.619	22854
871.749	22793
871.879	22892
872.008	22946
872.138	22938
872.267	22843
872.397	22771
872.526	22733
872.656	22679
872.785	22721
872.915	22896
873.044	22980
873.173	22873
873.303	22869
873.432	22938
873.561	23029
873.69	23067
873.819	22904
873.948	23064
874.077	22915
874.206	22953
874.335	22923
874.464	23102
874.593	23151
874.722	23147
874.851	23227
874.979	23178
875.108	23162
875.237	23121
875.365	23079
875.494	23181
875.623	23121
875.751	23155
875.88	23105
876.008	23254
876.136	23444
876.265	23577
876.393	23714
876.521	23630
876.65	23543
876.778	23570
876.906	23463
877.034	23448
877.162	23463
877.29	23429
877.418	23501
877.546	23395
877.674	23596
877.802	23391
877.93	23535
878.058	23398
878.185	23307
878.313	23398
878.441	23452
878.568	23258
878.696	23478
878.824	23493
878.951	23573
879.079	23585
879.206	23752
879.333	23493
879.461	23467
879.588	23501
879.715	23646
879.842	23760
879.97	23490
880.097	23368
880.224	23307
880.351	23330
880.478	23474
880.605	23307
880.732	23368
880.859	23433
880.986	23216
881.112	23318
881.239	23159
881.366	22976
881.493	22881
881.619	22949
881.746	22820
881.872	23006
881.999	22866
882.125	22835
882.252	22725
882.378	22763
882.505	23022
882.631	22702
882.757	22489
882.883	22641
883.01	22535
883.136	22519
883.262	22379
883.388	22314
883.514	22459
883.64	22557
883.766	22390
883.892	22318
884.018	22234
884.143	22546
884.269	22478
884.395	22268
884.52	22257
884.646	22265
884.772	22051
884.897	22173
885.023	22200
885.148	22230
885.274	22337
885.399	22257
885.524	22276
885.65	22090
885.775	22112
885.9	22166
886.025	22226
886.15	22162
886.275	22093
886.4	22070
886.525	21998
886.65	22078
886.775	21979
886.9	22204
887.025	22291
887.149	22090
887.274	21949
887.399	21926
887.523	21915
887.648	21884
887.773	21755
887.897	22044
888.021	21930
888.146	21762
888.27	22051
888.395	21972
888.519	21960
888.643	21953
888.767	21998
888.891	21793
889.015	21759
889.139	21819
889.263	21610
889.387	21755
889.511	21846
889.635	21861
889.759	21671
889.883	21561
890.006	21759
890.13	21804
890.254	21682
890.377	21724
890.501	21447
890.624	21519
890.748	21526
890.871	21348
890.995	21397
891.118	21294
891.241	21302
891.364	21287
891.488	21310
891.611	21264
891.734	21264
891.857	21329
891.98	21146
892.103	21211
892.226	21230
892.349	21165
892.471	21081
892.594	21180
892.717	21207
892.839	21237
892.962	21142
893.085	21287
893.207	21093
893.33	21135
893.452	21085
893.575	21150
893.697	21108
893.819	21310
893.941	21325
894.064	21245
894.186	21074
894.308	20956
894.43	21207
894.552	21264
894.674	21188
894.796	20979
894.918	21009
895.04	21051
895.161	21195
895.283	21192
895.405	21157
895.526	21001
895.648	21108
895.769	21131
895.891	21066
896.012	21218
896.134	21119
896.255	21104
896.376	21036
896.498	21218
896.619	20982
896.74	21184
896.861	21321
896.982	21397
897.103	21530
897.224	21481
897.345	21306
897.466	21165
897.587	21329
897.708	21382
897.828	21351
897.949	21142
898.07	21074
898.19	21237
898.311	21226
898.431	21260
898.552	21310
898.672	21344
898.792	21462
898.913	21313
899.033	21226
899.153	21119
899.273	20899
899.393	21036
899.513	21001
899.633	21085
899.753	21108
899.873	21176
899.993	20975
900.113	20948
900.232	21024
900.352	20990
900.472	20895
900.591	20754
900.711	20910
900.83	20708
900.95	20956
901.069	20902
901.189	20625
901.308	20442
901.427	20431
901.546	20526
901.665	20503
901.784	20366
901.904	20218
902.023	20164
902.141	19963
902.26	19841
902.379	20016
902.498	19959
902.617	19803
902.735	19928
902.854	19875
902.973	19856
903.091	19548
903.21	19548
903.328	19434
903.446	19506
903.565	19491
903.683	19354
903.801	19228
903.919	19232
904.038	19293
904.156	19027
904.274	19137
904.392	19137
904.51	19072
904.627	19023
904.745	19122
904.863	19213
904.981	18802
905.098	18760
905.216	18802
905.334	18707
905.451	18821
905.569	18779
905.686	18768
905.803	18711
905.921	18483
906.038	18597
906.155	18620
906.272	18361
906.389	18506
906.506	18311
906.623	18258
906.74	18311
906.857	18178
906.974	18194
907.091	18266
907.208	18433
907.324	18361
907.441	18289
907.557	18102
907.674	17980
907.79	17916
907.907	17950
908.023	17939
908.139	17939
908.256	18053
908.372	17904
908.488	17821
908.604	17756
908.72	17771
908.836	17703
908.952	17672
909.068	17874
909.184	17828
909.3	17729
909.415	17703
909.531	17661
909.647	17532
909.762	17414
909.878	17398
909.993	17486
910.108	17433
910.224	17265
910.339	17334
910.454	17204
910.57	17254
910.685	17197
910.8	17395
910.915	17239
911.03	17231
911.145	17010
911.259	17048
911.374	17018
911.489	17003
911.604	16946
911.718	16687
911.833	16702
911.947	16596
912.062	16558
912.176	16763
912.291	16831
912.405	16672
912.519	16904
912.633	16866
912.748	16694
912.862	16679
912.976	16649
913.09	16466
913.204	16512
913.318	16596
913.431	16550
913.545	16519
913.659	16706
913.772	16546
913.886	16367
914	16356
914.113	16440
914.226	16394
914.34	16341
914.453	16177
914.566	16242
914.68	16200
914.793	16173
914.906	15956
915.019	15827
915.132	15876
915.245	15873
915.358	15876
915.47	15876
915.583	15930
915.696	15922
915.809	15934
915.921	15975
916.034	15911
916.146	15831
916.259	15823
916.371	15838
916.483	15884
916.595	15656
916.708	15709
916.82	15633
916.932	15667
917.044	15713
917.156	15660
917.268	15462
917.38	15652
917.491	15561
917.603	15485
917.715	15622
917.826	15644
917.938	15492
918.049	15370
918.161	15458
918.272	15686
918.384	15538
918.495	15389
918.606	15351
918.717	15222
918.828	15408
918.939	15252
919.05	15142
919.161	15226
919.272	15043
919.383	15146
919.494	15310
919.604	15485
919.715	15249
919.826	15192
919.936	15138
920.047	15260
920.157	15214
920.267	15439
920.378	15272
920.488	15138
920.598	15336
920.708	15500
920.818	15275
920.928	15275
921.038	15492
921.148	15439
921.258	15192
921.368	14941
921.477	14956
921.587	15009
921.697	14788
921.806	14902
921.916	14864
922.025	14602
922.134	14549
922.244	14507
922.353	14625
922.462	14423
922.571	14317
922.68	14237
922.789	14240
922.898	14290
923.007	14172
923.116	14183
923.224	14195
923.333	14214
923.442	14062
923.55	13963
923.659	14020
923.767	14126
923.876	13944
923.984	14138
924.092	13898
924.201	14062
924.309	13940
924.417	13940
924.525	13864
924.633	13883
924.741	14823
924.849	13662
924.956	13841
925.064	13704
925.172	13480
925.279	13506
925.387	13666
925.494	13559
925.602	13742
925.709	13605
925.816	13502
925.924	13529
926.031	13559
926.138	13502
926.245	13544
926.352	13419
926.459	13533
926.566	13525
926.673	13457
926.779	13339
926.886	13282
926.993	13171
927.099	13126
927.206	13050
927.312	13118
927.419	13152
927.525	13149
927.631	13122
927.737	12989
927.843	12970
927.95	12859
928.056	12817
928.162	13000
928.267	12905
928.373	13491
928.479	13008
928.585	12703
928.69	12878
928.796	12996
928.901	12806
929.007	12631
929.112	12886
929.218	12753
929.323	12726
929.428	12684
929.533	12772
929.638	12540
929.743	12540
929.848	12604
929.953	12669
930.058	12528
930.163	12213
930.267	12285
930.372	12433
930.477	12175
930.581	12486
930.685	12471
930.79	12213
930.894	12186
930.998	12178
931.103	12357
931.207	11889
931.311	11802
931.415	11805
931.519	11554
931.623	11638
