Data from test_V78500241_3604.txt Node
Date: Fri Mar 25 16:06:46 CST 2022
User: usil
Spectrometer: V785-0024
Trigger mode: 0
Integration Time (sec): 4.000000E-1
Scans to average: 1
Nonlinearity correction enabled: false
Boxcar width: 0
Storing dark spectrum: false
XAxis mode: Wavelengths
Number of Pixels in Spectrum: 1024
>>>>>Begin Spectral Data<<<<<
801.071	28462
801.214	28261
801.356	28070
801.499	28063
801.641	27991
801.783	27770
801.926	28048
802.068	28006
802.211	27869
802.353	27812
802.496	27705
802.638	27671
802.78	27606
802.923	27519
803.065	27549
803.208	27526
803.35	27656
803.492	27800
803.635	27880
803.777	27686
803.919	27774
804.061	28101
804.204	27907
804.346	27846
804.488	27766
804.63	27804
804.773	27816
804.915	27998
805.057	28036
805.199	27994
805.341	28048
805.483	27987
805.626	28036
805.768	27838
805.91	27972
806.052	28025
806.194	27953
806.336	28188
806.478	27903
806.62	28086
806.762	28154
806.904	28356
807.046	28459
807.188	28417
807.33	28459
807.472	28470
807.614	28516
807.756	28466
807.898	28181
808.04	28333
808.182	28295
808.324	28333
808.465	28196
808.607	28474
808.749	28641
808.891	28729
809.033	28797
809.174	28748
809.316	28729
809.458	28679
809.6	28542
809.741	28797
809.883	28816
810.025	28995
810.166	28850
810.308	29022
810.45	28877
810.591	28828
810.733	28744
810.875	28698
811.016	28687
811.158	28656
811.299	28763
811.441	28904
811.582	28850
811.724	28748
811.865	28675
812.007	28702
812.148	28649
812.29	28782
812.431	28824
812.573	29022
812.714	29197
812.855	29166
812.997	29326
813.138	29448
813.279	29349
813.421	29143
813.562	29227
813.703	29102
813.845	28911
813.986	28599
814.127	28489
814.268	28337
814.41	28474
814.551	28360
814.692	28485
814.833	28287
814.974	28382
815.115	28413
815.256	28215
815.397	28253
815.539	28265
815.68	28166
815.821	28207
815.962	28238
816.103	28181
816.244	28070
816.385	28013
816.526	28013
816.666	27739
816.807	27641
816.948	27819
817.089	27747
817.23	27679
817.371	27648
817.512	27660
817.653	27686
817.793	27766
817.934	27728
818.075	27625
818.216	27762
818.356	27720
818.497	27564
818.638	27313
818.778	27424
818.919	27523
819.06	27587
819.2	27652
819.341	27793
819.481	27713
819.622	27972
819.762	28131
819.903	27873
820.043	27842
820.184	27949
820.324	27797
820.465	27804
820.605	27724
820.746	27800
820.886	27751
821.026	27641
821.167	27717
821.307	27816
821.447	27633
821.588	27694
821.728	27481
821.868	27420
822.008	27176
822.149	27241
822.289	27112
822.429	27043
822.569	26933
822.709	26883
822.849	26693
822.99	26781
823.13	26632
823.27	26720
823.41	26480
823.55	26427
823.69	26503
823.83	26697
823.97	26423
824.11	26221
824.25	26294
824.389	26358
824.529	26434
824.669	26381
824.809	26594
824.949	26332
825.089	26457
825.228	26473
825.368	26111
825.508	26244
825.648	26218
825.787	26271
825.927	26142
826.067	26092
826.206	26210
826.346	26290
826.485	26271
826.625	26164
826.765	26309
826.904	26214
827.044	26008
827.183	25997
827.323	25879
827.462	26016
827.601	25944
827.741	25788
827.88	25875
828.02	25788
828.159	25917
828.298	25944
828.437	25974
828.577	25795
828.716	25997
828.855	25666
828.994	25620
829.134	25628
829.273	25567
829.412	25655
829.551	25723
829.69	25624
829.829	25620
829.968	25689
830.107	25677
830.246	25624
830.385	25571
830.524	25753
830.663	25411
830.802	25358
830.941	25266
831.08	25236
831.219	25381
831.357	25247
831.496	25369
831.635	25156
831.774	25110
831.913	25179
832.051	25099
832.19	24985
832.329	24981
832.467	24867
832.606	24875
832.744	24806
832.883	24863
833.022	24859
833.16	24798
833.299	24909
833.437	24992
833.576	24947
833.714	24791
833.852	24875
833.991	24913
834.129	25012
834.267	25061
834.406	25038
834.544	24951
834.682	24916
834.821	24878
834.959	25042
835.097	24943
835.235	25031
835.373	25019
835.511	24829
835.65	24886
835.788	24635
835.926	24505
836.064	24593
836.202	24696
836.34	24749
836.478	24856
836.615	24821
836.753	24616
836.891	24875
837.029	24768
837.167	24791
837.305	24677
837.443	24563
837.58	24464
837.718	24593
837.856	24776
837.993	24574
838.131	24456
838.269	24433
838.406	24566
838.544	24391
838.681	24258
838.819	24201
838.956	24060
839.094	24140
839.231	24121
839.369	24330
839.506	24505
839.643	24308
839.781	24049
839.918	23950
840.055	24114
840.193	24018
840.33	23954
840.467	23904
840.604	24030
840.742	24330
840.879	23828
841.016	23878
841.153	23836
841.29	24083
841.427	23961
841.564	23954
841.701	23935
841.838	23878
841.975	23840
842.112	23946
842.249	23764
842.385	23657
842.522	23961
842.659	23824
842.796	23748
842.933	23756
843.069	23608
843.206	23649
843.343	23756
843.479	23718
843.616	23733
843.752	23581
843.889	23562
844.025	23623
844.162	23497
844.298	23566
844.435	23657
844.571	23524
844.708	23619
844.844	23634
844.98	23619
845.117	23611
845.253	23402
845.389	23349
845.525	23524
845.661	23326
845.798	23162
845.934	23360
846.07	23246
846.206	23349
846.342	23398
846.478	23200
846.614	23052
846.75	22934
846.886	22927
847.022	23105
847.158	22953
847.294	22919
847.429	22999
847.565	22850
847.701	23140
847.837	22702
847.972	22763
848.108	22790
848.244	22710
848.379	22527
848.515	22485
848.65	22588
848.786	22417
848.921	22538
849.057	22740
849.192	22721
849.328	22672
849.463	22607
849.598	22394
849.734	22508
849.869	22421
850.004	22238
850.14	22375
850.275	22261
850.41	22200
850.545	22238
850.68	22257
850.815	22344
850.95	22223
851.085	22413
851.22	22371
851.355	22421
851.49	22246
851.625	22386
851.76	22276
851.895	22249
852.03	22223
852.165	22329
852.299	22238
852.434	22455
852.569	22367
852.703	22318
852.838	22352
852.973	22523
853.107	22352
853.242	22287
853.376	22078
853.511	22097
853.645	22131
853.78	22147
853.914	22112
854.048	22078
854.183	22131
854.317	22135
854.451	22371
854.585	22139
854.72	22074
854.854	22230
854.988	22055
855.122	22063
855.256	22131
855.39	22238
855.524	22211
855.658	22166
855.792	22158
855.926	22219
856.06	22177
856.194	22265
856.327	22139
856.461	22051
856.595	22025
856.729	22078
856.862	22249
856.996	22147
857.13	22276
857.263	22082
857.397	22325
857.53	22128
857.664	22181
857.797	22044
857.931	22246
858.064	22131
858.197	22177
858.331	22185
858.464	22070
858.597	22051
858.731	22044
858.864	22048
858.997	21968
859.13	22147
859.263	22166
859.396	22185
859.529	22090
859.662	22169
859.795	22204
859.928	22173
860.061	22215
860.194	22325
860.327	22192
860.46	22204
860.592	22196
860.725	22432
860.858	22299
860.99	22181
861.123	22029
861.256	22063
861.388	22059
861.521	22847
861.653	22051
861.786	21949
861.918	21930
862.05	21975
862.183	21987
862.315	21960
862.447	22093
862.58	22002
862.712	21854
862.844	21739
862.976	21804
863.108	21899
863.24	22371
863.372	21720
863.504	21797
863.636	21884
863.768	21880
863.9	21892
864.032	21739
864.164	21857
864.296	21827
864.428	21774
864.559	21922
864.691	21918
864.823	21778
864.954	21861
865.086	21804
865.217	21698
865.349	21564
865.48	21675
865.612	21709
865.743	21903
865.875	21743
866.006	21800
866.137	21755
866.269	21705
866.4	21759
866.531	21580
866.662	21656
866.793	21625
866.924	21633
867.055	21644
867.186	21671
867.317	21603
867.448	21595
867.579	21587
867.71	21614
867.841	21610
867.972	21797
868.103	21679
868.233	21747
868.364	21698
868.495	21823
868.625	21785
868.756	21857
868.886	21865
869.017	21972
869.147	22029
869.278	21960
869.408	21903
869.539	21804
869.669	21937
869.799	21895
869.929	21998
870.06	21987
870.19	22185
870.32	22200
870.45	22173
870.58	22196
870.71	22303
870.84	22379
870.97	22135
871.1	22284
871.23	22348
871.36	22424
871.489	22443
871.619	22382
871.749	22489
871.879	22637
872.008	22580
872.138	22512
872.267	22447
872.397	22394
872.526	22325
872.656	22405
872.785	22318
872.915	22550
873.044	22615
873.173	22561
873.303	22489
873.432	22668
873.561	22778
873.69	22630
873.819	22428
873.948	22607
874.077	22455
874.206	22512
874.335	22493
874.464	22535
874.593	22755
874.722	22752
874.851	22915
874.979	22820
875.108	22866
875.237	22805
875.365	22710
875.494	22698
875.623	22866
875.751	22683
875.88	22843
876.008	22953
876.136	22976
876.265	23170
876.393	23269
876.521	23223
876.65	23307
876.778	23056
876.906	23079
877.034	23090
877.162	23223
877.29	23086
877.418	23060
877.546	23208
877.674	23212
877.802	23147
877.93	22896
878.058	23109
878.185	22949
878.313	23071
878.441	23052
878.568	23056
878.696	23071
878.824	23010
878.951	23273
879.079	23151
879.206	23364
879.333	23334
879.461	23094
879.588	23269
879.715	23246
879.842	23501
879.97	23143
880.097	22946
880.224	22850
880.351	22885
880.478	22949
880.605	22793
880.732	22961
880.859	23136
880.986	22972
881.112	22953
881.239	22854
881.366	22702
881.493	22546
881.619	22527
881.746	22542
881.872	22481
881.999	22523
882.125	22508
882.252	22504
882.378	22375
882.505	22626
882.631	22291
882.757	22207
882.883	22284
883.01	22234
883.136	22242
883.262	21991
883.388	21991
883.514	22363
883.64	22185
883.766	22097
883.892	21937
884.018	21831
884.143	22051
884.269	22249
884.395	22002
884.52	21819
884.646	21892
884.772	21831
884.897	21660
885.023	21880
885.148	21918
885.274	21968
885.399	21865
885.524	21899
885.65	21793
885.775	21895
885.9	21873
886.025	21911
886.15	21808
886.275	21819
886.4	21644
886.525	21899
886.65	21701
886.775	21774
886.9	21960
887.025	22070
887.149	21800
887.274	21557
887.399	21454
887.523	21717
887.648	21580
887.773	21591
887.897	21759
888.021	21759
888.146	21469
888.27	21633
888.395	21583
888.519	21641
888.643	21660
888.767	21523
888.891	21405
889.015	21359
889.139	21412
889.263	21393
889.387	21545
889.511	21545
889.635	21507
889.759	21344
889.883	21363
890.006	21416
890.13	21542
890.254	21340
890.377	21176
890.501	21188
890.624	21081
890.748	21081
890.871	20986
890.995	20933
891.118	20971
891.241	21001
891.364	20960
891.488	20979
891.611	21036
891.734	20925
891.857	20982
891.98	20910
892.103	20921
892.226	21058
892.349	20910
892.471	20701
892.594	20819
892.717	20838
892.839	20811
892.962	20899
893.085	20876
893.207	20811
893.33	20739
893.452	20667
893.575	20777
893.697	20762
893.819	20921
893.941	20952
894.064	20944
894.186	20674
894.308	20743
894.43	20891
894.552	20979
894.674	20910
894.796	20731
894.918	20781
895.04	20773
895.161	20861
895.283	20785
895.405	20708
895.526	20819
895.648	20758
895.769	20811
895.891	20762
896.012	20918
896.134	20910
896.255	20853
896.376	20804
896.498	20815
896.619	20819
896.74	20823
896.861	20887
896.982	21157
897.103	21051
897.224	21013
897.345	21074
897.466	21017
897.587	21017
897.708	21207
897.828	21001
897.949	20998
898.07	20952
898.19	20967
898.311	21077
898.431	20929
898.552	21024
898.672	21077
898.792	21043
898.913	21085
899.033	20960
899.153	20929
899.273	20743
899.393	20659
899.513	20746
899.633	20773
899.753	20773
899.873	20826
899.993	20792
900.113	20632
900.232	20587
900.352	20705
900.472	20415
900.591	20522
900.711	20560
900.83	20507
900.95	20606
901.069	20609
901.189	20358
901.308	20145
901.427	20069
901.546	20077
901.665	20107
901.784	20046
901.904	19928
902.023	19849
902.141	19723
902.26	19632
902.379	19734
902.498	19487
902.617	19601
902.735	19635
902.854	19552
902.973	19620
903.091	19430
903.21	19301
903.328	19293
903.446	19297
903.565	19164
903.683	19034
903.801	18909
903.919	18993
904.038	19012
904.156	18764
904.274	18935
904.392	18787
904.51	18810
904.627	18802
904.745	18886
904.863	18825
904.981	18597
905.098	18566
905.216	18525
905.334	18486
905.451	18646
905.569	18494
905.686	18566
905.803	18536
905.921	18319
906.038	18357
906.155	18334
906.272	18182
906.389	18232
906.506	18060
906.623	18041
906.74	17969
906.857	17893
906.974	17980
907.091	18140
907.208	18243
907.324	17969
907.441	17836
907.557	17805
907.674	17809
907.79	17695
907.907	17638
908.023	17767
908.139	17722
908.256	17665
908.372	17501
908.488	17581
908.604	17459
908.72	17391
908.836	17387
908.952	17391
909.068	17581
909.184	17452
909.3	17505
909.415	17482
909.531	17421
909.647	17178
909.762	17174
909.878	16991
909.993	17200
910.108	17140
910.224	17102
910.339	17052
910.454	17029
910.57	16999
910.685	16831
910.8	17132
910.915	17109
911.03	16911
911.145	16824
911.259	16725
911.374	16679
911.489	16596
911.604	16523
911.718	16519
911.833	16500
911.947	16508
912.062	16257
912.176	16394
912.291	16470
912.405	16470
912.519	16634
912.633	16607
912.748	16497
912.862	16470
912.976	16337
913.09	16253
913.204	16287
913.318	16204
913.431	16272
913.545	16325
913.659	16367
913.772	16143
913.886	16086
914	16013
914.113	16109
914.226	16162
914.34	16097
914.453	16002
914.566	16105
914.68	15991
914.793	15956
914.906	15717
915.019	15698
915.132	15644
915.245	15606
915.358	15663
915.47	15671
915.583	15644
915.696	15549
915.809	15766
915.921	15785
916.034	15675
916.146	15587
916.259	15580
916.371	15610
916.483	15644
916.595	15458
916.708	15538
916.82	15424
916.932	15466
917.044	15481
917.156	15370
917.268	15249
917.38	15237
917.491	15268
917.603	15283
917.715	15355
917.826	15321
917.938	15222
918.049	15192
918.161	15252
918.272	15378
918.384	15424
918.495	15222
918.606	15112
918.717	14982
918.828	14979
918.939	15093
919.05	14929
919.161	15017
919.272	14895
919.383	14971
919.494	15070
919.604	15211
919.715	15005
919.826	14971
919.936	14887
920.047	15077
920.157	14979
920.267	15180
920.378	15005
920.488	15028
920.598	15222
920.708	15275
920.818	15074
920.928	14990
921.038	15279
921.148	15218
921.258	14925
921.368	14864
921.477	14712
921.587	14754
921.697	14533
921.806	14754
921.916	14610
922.025	14457
922.134	14324
922.244	14351
922.353	14385
922.462	14221
922.571	14123
922.68	13978
922.789	13963
922.898	13989
923.007	13944
923.116	14050
923.224	13986
923.333	13986
923.442	13788
923.55	13849
923.659	13898
923.767	13864
923.876	13753
923.984	13818
924.092	13696
924.201	13723
924.309	13655
924.417	13662
924.525	13628
924.633	13636
924.741	14454
924.849	13491
924.956	13537
925.064	13460
925.172	13285
925.279	13384
925.387	13426
925.494	13373
925.602	13518
925.709	13415
925.816	13297
925.924	13358
926.031	13365
926.138	13312
926.245	13453
926.352	13251
926.459	13274
926.566	13464
926.673	13282
926.779	13213
926.886	13118
926.993	12939
927.099	12954
927.206	12867
927.312	12859
927.419	12981
927.525	12894
927.631	12935
927.737	12859
927.843	12757
927.95	12566
928.056	12688
928.162	12764
928.267	12810
928.373	13373
928.479	12840
928.585	12566
928.69	12738
928.796	12654
928.901	12601
929.007	12513
929.112	12669
929.218	12601
929.323	12452
929.428	12509
929.533	12582
929.638	12384
929.743	12365
929.848	12467
929.953	12372
930.058	12243
930.163	12152
930.267	12106
930.372	12209
930.477	12076
930.581	12289
930.685	12163
930.79	11988
930.894	12003
930.998	12034
931.103	12129
931.207	11775
931.311	11707
931.415	11547
931.519	11398
931.623	11414
