Data from test_V78500241_2138.txt Node
Date: Fri Mar 25 15:56:36 CST 2022
User: usil
Spectrometer: V785-0024
Trigger mode: 0
Integration Time (sec): 4.000000E-1
Scans to average: 1
Nonlinearity correction enabled: false
Boxcar width: 0
Storing dark spectrum: false
XAxis mode: Wavelengths
Number of Pixels in Spectrum: 1024
>>>>>Begin Spectral Data<<<<<
801.071	29159
801.214	29121
801.356	28790
801.499	28774
801.641	28831
801.783	28649
801.926	28733
802.068	28721
802.211	28592
802.353	28618
802.496	28512
802.638	28504
802.78	28474
802.923	28257
803.065	28234
803.208	28303
803.35	28325
803.492	28626
803.635	28531
803.777	28607
803.919	28542
804.061	29064
804.204	28580
804.346	28592
804.488	28599
804.63	28656
804.773	28565
804.915	28679
805.057	28828
805.199	28649
805.341	28866
805.483	28793
805.626	28706
805.768	28630
805.91	28816
806.052	28812
806.194	28687
806.336	28911
806.478	28892
806.62	28831
806.762	29022
806.904	29197
807.046	29520
807.188	29296
807.33	29322
807.472	29395
807.614	29037
807.756	29318
807.898	29166
808.04	28991
808.182	29037
808.324	29181
808.465	29155
808.607	29417
808.749	29581
808.891	29680
809.033	29748
809.174	29634
809.316	29551
809.458	29657
809.6	29455
809.741	29600
809.883	29840
810.025	29824
810.166	29813
810.308	29767
810.45	29756
810.591	29718
810.733	29642
810.875	29554
811.016	29410
811.158	29459
811.299	29676
811.441	29855
811.582	29767
811.724	29733
811.865	29619
812.007	29680
812.148	29615
812.29	29627
812.431	29707
812.573	29866
812.714	30041
812.855	29923
812.997	30235
813.138	30232
813.279	30213
813.421	30106
813.562	30011
813.703	29977
813.845	29783
813.986	29379
814.127	29155
814.268	29296
814.41	29315
814.551	29239
814.692	29375
814.833	29372
814.974	29269
815.115	29258
815.256	29086
815.397	29242
815.539	29269
815.68	29193
815.821	29014
815.962	29220
816.103	28995
816.244	28987
816.385	28869
816.526	28953
816.666	28771
816.807	28401
816.948	28588
817.089	28839
817.23	28603
817.371	28653
817.512	28607
817.653	28584
817.793	28508
817.934	28573
818.075	28607
818.216	28702
818.356	28717
818.497	28584
818.638	28325
818.778	28443
818.919	28344
819.06	28489
819.2	28447
819.341	28584
819.481	28531
819.622	28752
819.762	28961
819.903	28881
820.043	28888
820.184	28660
820.324	28717
820.465	28938
820.605	28881
820.746	28797
820.886	28664
821.026	28702
821.167	28778
821.307	28752
821.447	28565
821.588	28542
821.728	28523
821.868	28299
822.008	28074
822.149	28150
822.289	28124
822.429	27770
822.569	27660
822.709	27694
822.849	27671
822.99	27591
823.13	27622
823.27	27511
823.41	27439
823.55	27405
823.69	27564
823.83	27363
823.97	27481
824.11	27344
824.25	27173
824.389	27325
824.529	27443
824.669	27302
824.809	27275
824.949	27298
825.089	27367
825.228	27252
825.368	27043
825.508	27146
825.648	27081
825.787	27112
825.927	27131
826.067	27024
826.206	27127
826.346	27154
826.485	27245
826.625	27112
826.765	27226
826.904	27127
827.044	26842
827.183	26998
827.323	26693
827.462	26937
827.601	27066
827.741	26834
827.88	26914
828.02	26746
828.159	26864
828.298	27058
828.437	26845
828.577	26739
828.716	26998
828.855	26811
828.994	26575
829.134	26537
829.273	26705
829.412	26473
829.551	26560
829.69	26415
829.829	26511
829.968	26663
830.107	26560
830.246	26503
830.385	26434
830.524	26393
830.663	26328
830.802	26294
830.941	26248
831.08	26062
831.219	26233
831.357	26229
831.496	26317
831.635	26176
831.774	26062
831.913	26130
832.051	25986
832.19	25818
832.329	25936
832.467	26050
832.606	25837
832.744	25830
832.883	25772
833.022	25776
833.16	25765
833.299	25799
833.437	25803
833.576	25871
833.714	25883
833.852	26016
833.991	25936
834.129	25849
834.267	26020
834.406	25845
834.544	25955
834.682	25769
834.821	25784
834.959	26046
835.097	25753
835.235	25883
835.373	25906
835.511	25849
835.65	25704
835.788	25807
835.926	25552
836.064	25514
836.202	25521
836.34	25655
836.478	25788
836.615	25575
836.753	25605
836.891	25830
837.029	25693
837.167	25731
837.305	25639
837.443	25548
837.58	25521
837.718	25613
837.856	25548
837.993	25422
838.131	25548
838.269	25373
838.406	25388
838.544	25301
838.681	25297
838.819	25053
838.956	25004
839.094	25080
839.231	24970
839.369	25088
839.506	25499
839.643	25289
839.781	25069
839.918	24901
840.055	25008
840.193	25000
840.33	24840
840.467	24924
840.604	24871
840.742	25126
840.879	24673
841.016	24757
841.153	24757
841.29	24939
841.427	24875
841.564	25034
841.701	24920
841.838	24878
841.975	24703
842.112	24711
842.249	24726
842.385	24582
842.522	24863
842.659	24684
842.796	24570
842.933	24719
843.069	24658
843.206	24658
843.343	24635
843.479	24604
843.616	24650
843.752	24414
843.889	24475
844.025	24517
844.162	24464
844.298	24479
844.435	24369
844.571	24414
844.708	24505
844.844	24513
844.98	24631
845.117	24498
845.253	24369
845.389	24270
845.525	24311
845.661	24205
845.798	24254
845.934	24273
846.07	24190
846.206	24224
846.342	24232
846.478	24072
846.614	24038
846.75	23737
846.886	23855
847.022	23939
847.158	23999
847.294	23870
847.429	23977
847.565	23710
847.701	24148
847.837	23539
847.972	23463
848.108	23703
848.244	23649
848.379	23520
848.515	23433
848.65	23398
848.786	23459
848.921	23376
849.057	23505
849.192	23474
849.328	23455
849.463	23417
849.598	23265
849.734	23356
849.869	23277
850.004	23284
850.14	23181
850.275	23242
850.41	23086
850.545	23189
850.68	23284
850.815	23250
850.95	23193
851.085	23402
851.22	23284
851.355	23223
851.49	23143
851.625	23204
851.76	23193
851.895	23178
852.03	23060
852.165	23197
852.299	23254
852.434	23151
852.569	23185
852.703	23265
852.838	23239
852.973	23467
853.107	23299
853.242	23174
853.376	23022
853.511	23052
853.645	22980
853.78	23174
853.914	23083
854.048	22957
854.183	23037
854.317	23067
854.451	23178
854.585	23075
854.72	23136
854.854	23117
854.988	23056
855.122	23052
855.256	22869
855.39	22984
855.524	23003
855.658	23079
855.792	22980
855.926	23060
856.06	23136
856.194	23052
856.327	22923
856.461	22923
856.595	22873
856.729	22965
856.862	23109
856.996	23128
857.13	23204
857.263	23147
857.397	23018
857.53	23044
857.664	23098
857.797	23014
857.931	23079
858.064	23109
858.197	23170
858.331	23010
858.464	23006
858.597	22896
858.731	23029
858.864	22877
858.997	22980
859.13	22946
859.263	23006
859.396	23044
859.529	22885
859.662	22873
859.795	22946
859.928	23060
860.061	23181
860.194	23227
860.327	23117
860.46	23060
860.592	23246
860.725	23197
860.858	23159
860.99	23109
861.123	22946
861.256	22961
861.388	23075
861.521	23809
861.653	22873
861.786	22839
861.918	22873
862.05	22847
862.183	22866
862.315	22953
862.447	22942
862.58	22873
862.712	22752
862.844	22687
862.976	22744
863.108	22778
863.24	23102
863.372	22698
863.504	22611
863.636	22603
863.768	22759
863.9	22668
864.032	22615
864.164	22630
864.296	22748
864.428	22816
864.559	22694
864.691	22843
864.823	22691
864.954	22599
865.086	22645
865.217	22535
865.349	22481
865.48	22649
865.612	22565
865.743	22706
865.875	22580
866.006	22497
866.137	22565
866.269	22565
866.4	22577
866.531	22466
866.662	22493
866.793	22580
866.924	22546
867.055	22554
867.186	22538
867.317	22478
867.448	22356
867.579	22561
867.71	22363
867.841	22382
867.972	22546
868.103	22580
868.233	22554
868.364	22542
868.495	22649
868.625	22812
868.756	22801
868.886	22702
869.017	22793
869.147	22771
869.278	22831
869.408	22828
869.539	22759
869.669	22965
869.799	22831
869.929	22896
870.06	22877
870.19	23006
870.32	23037
870.45	23067
870.58	23083
870.71	23429
870.84	23315
870.97	23254
871.1	23132
871.23	23197
871.36	23353
871.489	23208
871.619	23227
871.749	23265
871.879	23395
872.008	23459
872.138	23322
872.267	23250
872.397	23166
872.526	23242
872.656	23223
872.785	23197
872.915	23444
873.044	23436
873.173	23433
873.303	23398
873.432	23356
873.561	23516
873.69	23311
873.819	23360
873.948	23265
874.077	23307
874.206	23341
874.335	23353
874.464	23448
874.593	23543
874.722	23562
874.851	23577
874.979	23547
875.108	23630
875.237	23562
875.365	23581
875.494	23573
875.623	23634
875.751	23440
875.88	23604
876.008	23691
876.136	23760
876.265	23908
876.393	24110
876.521	24079
876.65	24102
876.778	24022
876.906	23935
877.034	23874
877.162	23836
877.29	23874
877.418	23912
877.546	23935
877.674	23847
877.802	23996
877.93	23843
878.058	23847
878.185	23794
878.313	23855
878.441	23802
878.568	23600
878.696	24015
878.824	23866
878.951	24003
879.079	24018
879.206	24072
879.333	24106
879.461	23923
879.588	23977
879.715	24129
879.842	24174
879.97	24015
880.097	23707
880.224	23600
880.351	23851
880.478	23657
880.605	23642
880.732	23649
880.859	23973
880.986	23657
881.112	23703
881.239	23615
881.366	23558
881.493	23410
881.619	23277
881.746	23311
881.872	23239
881.999	23193
882.125	23200
882.252	23273
882.378	23235
882.505	23273
882.631	23147
882.757	22919
882.883	22968
883.01	23044
883.136	22835
883.262	22824
883.388	22748
883.514	22946
883.64	22999
883.766	22885
883.892	22660
884.018	22683
884.143	22953
884.269	22980
884.395	22630
884.52	22538
884.646	22626
884.772	22618
884.897	22504
885.023	22596
885.148	22649
885.274	22793
885.399	22611
885.524	22451
885.65	22588
885.775	22679
885.9	22451
886.025	22645
886.15	22706
886.275	22645
886.4	22592
886.525	22538
886.65	22542
886.775	22508
886.9	22710
887.025	22675
887.149	22527
887.274	22337
887.399	22360
887.523	22344
887.648	22265
887.773	22284
887.897	22405
888.021	22318
888.146	22375
888.27	22432
888.395	22295
888.519	22375
888.643	22295
888.767	22246
888.891	22177
889.015	22211
889.139	22173
889.263	22128
889.387	22188
889.511	22261
889.635	22276
889.759	22051
889.883	22067
890.006	22169
890.13	22238
890.254	22055
890.377	21945
890.501	21667
890.624	21793
890.748	21941
890.871	21724
890.995	21690
891.118	21587
891.241	21583
891.364	21549
891.488	21656
891.611	21614
891.734	21724
891.857	21652
891.98	21724
892.103	21694
892.226	21580
892.349	21625
892.471	21397
892.594	21679
892.717	21629
892.839	21519
892.962	21580
893.085	21644
893.207	21523
893.33	21431
893.452	21500
893.575	21530
893.697	21496
893.819	21778
893.941	21728
894.064	21641
894.186	21458
894.308	21397
894.43	21557
894.552	21637
894.674	21595
894.796	21401
894.918	21500
895.04	21344
895.161	21557
895.283	21564
895.405	21526
895.526	21610
895.648	21412
895.769	21519
895.891	21534
896.012	21564
896.134	21553
896.255	21530
896.376	21492
896.498	21568
896.619	21549
896.74	21416
896.861	21561
896.982	21755
897.103	21873
897.224	21720
897.345	21663
897.466	21610
897.587	21694
897.708	21869
897.828	21660
897.949	21599
898.07	21599
898.19	21557
898.311	21679
898.431	21705
898.552	21622
898.672	21789
898.792	21739
898.913	21812
899.033	21618
899.153	21564
899.273	21374
899.393	21511
899.513	21450
899.633	21447
899.753	21519
899.873	21329
899.993	21523
900.113	21321
900.232	21310
900.352	21306
900.472	21192
900.591	21108
900.711	21192
900.83	21020
900.95	21230
901.069	21127
901.189	21070
901.308	20895
901.427	20708
901.546	20693
901.665	20651
901.784	20727
901.904	20594
902.023	20530
902.141	20377
902.26	20210
902.379	20290
902.498	20240
902.617	20259
902.735	20237
902.854	20320
902.973	20172
903.091	20001
903.21	19940
903.328	19947
903.446	19841
903.565	19704
903.683	19639
903.801	19578
903.919	19605
904.038	19616
904.156	19506
904.274	19563
904.392	19438
904.51	19289
904.627	19472
904.745	19480
904.863	19499
904.981	19282
905.098	19126
905.216	19133
905.334	19160
905.451	19118
905.569	19072
905.686	19099
905.803	19069
905.921	18814
906.038	18973
906.155	18985
906.272	18681
906.389	18795
906.506	18658
906.623	18741
906.74	18627
906.857	18525
906.974	18597
907.091	18661
907.208	18719
907.324	18608
907.441	18471
907.557	18346
907.674	18300
907.79	18277
907.907	18270
908.023	18243
908.139	18471
908.256	18243
908.372	18232
908.488	18155
908.604	18076
908.72	17965
908.836	18144
908.952	18026
909.068	18015
909.184	18178
909.3	18045
909.415	18049
909.531	18129
909.647	17684
909.762	17802
909.878	17718
909.993	17684
910.108	17718
910.224	17718
910.339	17714
910.454	17573
910.57	17665
910.685	17410
910.8	17600
910.915	17592
911.03	17459
911.145	17227
911.259	17269
911.374	17288
911.489	17170
911.604	17136
911.718	17006
911.833	17140
911.947	16980
912.062	16877
912.176	17048
912.291	17090
912.405	16953
912.519	17220
912.633	17261
912.748	17079
912.862	17018
912.976	16972
913.09	16759
913.204	16843
913.318	16946
913.431	17052
913.545	16858
913.659	16980
913.772	16820
913.886	16698
914	16672
914.113	16752
914.226	16664
914.34	16664
914.453	16508
914.566	16569
914.68	16500
914.793	16455
914.906	16226
915.019	16166
915.132	16215
915.245	16276
915.358	16280
915.47	16139
915.583	16226
915.696	16219
915.809	16253
915.921	16344
916.034	16128
916.146	16097
916.259	16010
916.371	16166
916.483	16025
916.595	15968
916.708	16010
916.82	16006
916.932	16025
917.044	16032
917.156	15949
917.268	15812
917.38	15823
917.491	15823
917.603	15816
917.715	15861
917.826	15770
917.938	15698
918.049	15679
918.161	15713
918.272	15918
918.384	15850
918.495	15762
918.606	15530
918.717	15473
918.828	15526
918.939	15603
919.05	15431
919.161	15492
919.272	15336
919.383	15412
919.494	15523
919.604	15671
919.715	15542
919.826	15397
919.936	15435
920.047	15580
920.157	15614
920.267	15625
920.378	15416
920.488	15496
920.598	15686
920.708	15701
920.818	15576
920.928	15622
921.038	15747
921.148	15759
921.258	15386
921.368	15245
921.477	15245
921.587	15036
921.697	15028
921.806	15222
921.916	15051
922.025	14883
922.134	14845
922.244	14739
922.353	14815
922.462	14724
922.571	14575
922.68	14469
922.789	14492
922.898	14450
923.007	14457
923.116	14530
923.224	14412
923.333	14431
923.442	14282
923.55	14317
923.659	14419
923.767	14370
923.876	14161
923.984	14336
924.092	14199
924.201	14153
924.309	14187
924.417	14252
924.525	14187
924.633	14180
924.741	14868
924.849	13909
924.956	13997
925.064	13868
925.172	13757
925.279	13849
925.387	13852
925.494	13860
925.602	13959
925.709	13868
925.816	13731
925.924	13822
926.031	13849
926.138	13780
926.245	13871
926.352	13643
926.459	13765
926.566	13868
926.673	13746
926.779	13586
926.886	13647
926.993	13430
927.099	13346
927.206	13331
927.312	13327
927.419	13343
927.525	13365
927.631	13346
927.737	13293
927.843	13126
927.95	13046
928.056	13187
928.162	13198
928.267	13228
928.373	13765
928.479	13289
928.585	12985
928.69	13126
928.796	13152
928.901	13008
929.007	12821
929.112	13008
929.218	12970
929.323	12848
929.428	12787
929.533	13088
929.638	12741
929.743	12814
929.848	12772
929.953	12913
930.058	12608
930.163	12532
930.267	12563
930.372	12654
930.477	12555
930.581	12745
930.685	12517
930.79	12448
930.894	12578
930.998	12334
931.103	12574
931.207	12167
931.311	11992
931.415	11992
931.519	11824
931.623	11767
