Data from test_V78500241_2217.txt Node
Date: Fri Mar 25 15:57:09 CST 2022
User: usil
Spectrometer: V785-0024
Trigger mode: 0
Integration Time (sec): 4.000000E-1
Scans to average: 1
Nonlinearity correction enabled: false
Boxcar width: 0
Storing dark spectrum: false
XAxis mode: Wavelengths
Number of Pixels in Spectrum: 1024
>>>>>Begin Spectral Data<<<<<
801.071	29014
801.214	28790
801.356	28660
801.499	28664
801.641	28493
801.783	28481
801.926	28466
802.068	28455
802.211	28344
802.353	28390
802.496	28131
802.638	28158
802.78	28105
802.923	28067
803.065	27975
803.208	28006
803.35	28124
803.492	28223
803.635	28238
803.777	28192
803.919	28485
804.061	28649
804.204	28386
804.346	28382
804.488	28390
804.63	28333
804.773	28276
804.915	28390
805.057	28603
805.199	28489
805.341	28318
805.483	28615
805.626	28584
805.768	28394
805.91	28538
806.052	28523
806.194	28561
806.336	28668
806.478	28561
806.62	28615
806.762	28771
806.904	28911
807.046	29037
807.188	28946
807.33	29033
807.472	29147
807.614	28957
807.756	28923
807.898	28835
808.04	28877
808.182	28839
808.324	28888
808.465	28923
808.607	29132
808.749	29311
808.891	29200
809.033	29493
809.174	29372
809.316	29235
809.458	29220
809.6	29193
809.741	29246
809.883	29337
810.025	29482
810.166	29520
810.308	29425
810.45	29516
810.591	29448
810.733	29337
810.875	29284
811.016	29094
811.158	29242
811.299	29299
811.441	29398
811.582	29330
811.724	29265
811.865	29239
812.007	29379
812.148	29136
812.29	29239
812.431	29589
812.573	29661
812.714	29581
812.855	29748
812.997	29832
813.138	29939
813.279	29920
813.421	30003
813.562	29756
813.703	29642
813.845	29429
813.986	29067
814.127	29239
814.268	28976
814.41	29041
814.551	28885
814.692	29018
814.833	28991
814.974	28949
815.115	28972
815.256	28892
815.397	28946
815.539	28911
815.68	28736
815.821	28729
815.962	28854
816.103	28748
816.244	28702
816.385	28382
816.526	28618
816.666	28512
816.807	28196
816.948	28405
817.089	28238
817.23	28367
817.371	28261
817.512	28276
817.653	28265
817.793	28135
817.934	28261
818.075	28211
818.216	28356
818.356	28287
818.497	28048
818.638	28082
818.778	28078
818.919	28101
819.06	28017
819.2	28143
819.341	28299
819.481	28398
819.622	28440
819.762	28565
819.903	28508
820.043	28424
820.184	28333
820.324	28504
820.465	28360
820.605	28409
820.746	28295
820.886	28261
821.026	28382
821.167	28348
821.307	28535
821.447	28246
821.588	28253
821.728	28310
821.868	27949
822.008	27762
822.149	27770
822.289	27895
822.429	27416
822.569	27420
822.709	27580
822.849	27401
822.99	27329
823.13	27256
823.27	27230
823.41	27047
823.55	26982
823.69	26956
823.83	27135
823.97	27142
824.11	26891
824.25	26929
824.389	26994
824.529	26956
824.669	26823
824.809	27051
824.949	27009
825.089	27108
825.228	26944
825.368	26739
825.508	26769
825.648	26895
825.787	26868
825.927	26834
826.067	26720
826.206	26788
826.346	26891
826.485	26845
826.625	26861
826.765	26929
826.904	26929
827.044	26693
827.183	26621
827.323	26522
827.462	26674
827.601	26488
827.741	26549
827.88	26568
828.02	26473
828.159	26434
828.298	26545
828.437	26575
828.577	26362
828.716	26571
828.855	26488
828.994	26153
829.134	26180
829.273	26180
829.412	26081
829.551	26214
829.69	26263
829.829	26202
829.968	26438
830.107	26332
830.246	26214
830.385	26073
830.524	26073
830.663	26031
830.802	25818
830.941	25871
831.08	25761
831.219	25944
831.357	25955
831.496	26001
831.635	25856
831.774	25791
831.913	25696
832.051	25742
832.19	25567
832.329	25681
832.467	25544
832.606	25502
832.744	25308
832.883	25441
833.022	25449
833.16	25479
833.299	25559
833.437	25537
833.576	25643
833.714	25540
833.852	25339
833.991	25670
834.129	25567
834.267	25674
834.406	25476
834.544	25559
834.682	25479
834.821	25518
834.959	25822
835.097	25521
835.235	25616
835.373	25483
835.511	25419
835.65	25285
835.788	25449
835.926	25259
836.064	25312
836.202	25255
836.34	25278
836.478	25495
836.615	25293
836.753	25396
836.891	25430
837.029	25362
837.167	25312
837.305	25400
837.443	25209
837.58	25255
837.718	25350
837.856	25145
837.993	25050
838.131	25095
838.269	25057
838.406	25072
838.544	25000
838.681	24776
838.819	24722
838.956	24692
839.094	24570
839.231	24673
839.369	24844
839.506	25084
839.643	24886
839.781	24665
839.918	24525
840.055	24585
840.193	24612
840.33	24509
840.467	24578
840.604	24601
840.742	24825
840.879	24399
841.016	24513
841.153	24475
841.29	24639
841.427	24665
841.564	24604
841.701	24566
841.838	24521
841.975	24426
842.112	24589
842.249	24357
842.385	24350
842.522	24540
842.659	24467
842.796	24342
842.933	24376
843.069	24285
843.206	24369
843.343	24296
843.479	24403
843.616	24304
843.752	24083
843.889	24125
844.025	24155
844.162	24171
844.298	24144
844.435	24007
844.571	24106
844.708	24140
844.844	24262
844.98	24235
845.117	24201
845.253	23889
845.389	23980
845.525	24049
845.661	23863
845.798	23775
845.934	23821
846.07	23855
846.206	23859
846.342	24007
846.478	23802
846.614	23543
846.75	23528
846.886	23646
847.022	23657
847.158	23581
847.294	23554
847.429	23646
847.565	23452
847.701	23771
847.837	23254
847.972	23170
848.108	23417
848.244	23406
848.379	23204
848.515	23197
848.65	23124
848.786	23143
848.921	23200
849.057	23208
849.192	23151
849.328	23174
849.463	23227
849.598	23037
849.734	23060
849.869	22915
850.004	22869
850.14	22980
850.275	22885
850.41	22786
850.545	22778
850.68	22896
850.815	22968
850.95	22919
851.085	22991
851.22	22984
851.355	22927
851.49	22885
851.625	22812
851.76	22877
851.895	22771
852.03	22892
852.165	22892
852.299	23003
852.434	22984
852.569	22911
852.703	22771
852.838	22919
852.973	23022
853.107	22999
853.242	22881
853.376	22797
853.511	22694
853.645	22687
853.78	22771
853.914	22744
854.048	22694
854.183	22736
854.317	22641
854.451	22828
854.585	22824
854.72	22740
854.854	22786
854.988	22573
855.122	22748
855.256	22512
855.39	22672
855.524	22774
855.658	22767
855.792	22771
855.926	22862
856.06	22778
856.194	22729
856.327	22630
856.461	22626
856.595	22611
856.729	22634
856.862	22748
856.996	22752
857.13	22839
857.263	22835
857.397	22763
857.53	22668
857.664	22706
857.797	22615
857.931	22755
858.064	22729
858.197	22755
858.331	22622
858.464	22622
858.597	22535
858.731	22702
858.864	22637
858.997	22679
859.13	22569
859.263	22835
859.396	22759
859.529	22683
859.662	22729
859.795	22653
859.928	22713
860.061	22805
860.194	22972
860.327	22774
860.46	22744
860.592	22934
860.725	22866
860.858	22702
860.99	22725
861.123	22786
861.256	22675
861.388	22672
861.521	23467
861.653	22664
861.786	22592
861.918	22573
862.05	22592
862.183	22504
862.315	22710
862.447	22713
862.58	22603
862.712	22386
862.844	22272
862.976	22443
863.108	22466
863.24	22805
863.372	22295
863.504	22390
863.636	22402
863.768	22516
863.9	22428
864.032	22424
864.164	22310
864.296	22455
864.428	22424
864.559	22493
864.691	22432
864.823	22310
864.954	22428
865.086	22367
865.217	22314
865.349	22276
865.48	22253
865.612	22371
865.743	22493
865.875	22287
866.006	22234
866.137	22356
866.269	22272
866.4	22242
866.531	22169
866.662	22139
866.793	22287
866.924	22299
867.055	22287
867.186	22242
867.317	22200
867.448	22166
867.579	22211
867.71	22188
867.841	22097
867.972	22268
868.103	22268
868.233	22150
868.364	22249
868.495	22249
868.625	22451
868.756	22523
868.886	22424
869.017	22322
869.147	22580
869.278	22592
869.408	22470
869.539	22394
869.669	22535
869.799	22523
869.929	22634
870.06	22588
870.19	22675
870.32	22778
870.45	22774
870.58	22828
870.71	22965
870.84	22873
870.97	22892
871.1	22828
871.23	23037
871.36	23086
871.489	22934
871.619	23003
871.749	22987
871.879	23064
872.008	23136
872.138	23109
872.267	23006
872.397	22976
872.526	22790
872.656	22847
872.785	22782
872.915	23102
873.044	22976
873.173	23136
873.303	23071
873.432	23143
873.561	23242
873.69	23056
873.819	23041
873.948	23124
874.077	23052
874.206	22980
874.335	23048
874.464	23178
874.593	23242
874.722	23189
874.851	23334
874.979	23391
875.108	23425
875.237	23269
875.365	23143
875.494	23345
875.623	23349
875.751	23280
875.88	23360
876.008	23337
876.136	23406
876.265	23611
876.393	23832
876.521	23714
876.65	23794
876.778	23665
876.906	23570
877.034	23695
877.162	23638
877.29	23520
877.418	23741
877.546	23478
877.674	23657
877.802	23634
877.93	23490
878.058	23524
878.185	23471
878.313	23653
878.441	23661
878.568	23463
878.696	23482
878.824	23661
878.951	23764
879.079	23805
879.206	23847
879.333	23745
879.461	23672
879.588	23821
879.715	23798
879.842	23866
879.97	23847
880.097	23505
880.224	23448
880.351	23387
880.478	23417
880.605	23429
880.732	23318
880.859	23657
880.986	23406
881.112	23436
881.239	23364
881.366	23170
881.493	23136
881.619	23056
881.746	22972
881.872	23064
881.999	22927
882.125	22965
882.252	22957
882.378	22968
882.505	23079
882.631	22782
882.757	22793
882.883	22626
883.01	22622
883.136	22694
883.262	22596
883.388	22577
883.514	22820
883.64	22611
883.766	22398
883.892	22443
884.018	22470
884.143	22687
884.269	22694
884.395	22402
884.52	22352
884.646	22341
884.772	22341
884.897	22150
885.023	22341
885.148	22478
885.274	22447
885.399	22394
885.524	22310
885.65	22314
885.775	22295
885.9	22226
886.025	22314
886.15	22291
886.275	22188
886.4	22207
886.525	22162
886.65	22192
886.775	22162
886.9	22421
887.025	22504
887.149	22051
887.274	22169
887.399	22055
887.523	22040
887.648	22006
887.773	21979
887.897	22109
888.021	22010
888.146	21964
888.27	22063
888.395	22181
888.519	22010
888.643	22078
888.767	22124
888.891	21975
889.015	21804
889.139	21964
889.263	21800
889.387	21968
889.511	21793
889.635	21850
889.759	21854
889.883	21812
890.006	21781
890.13	21991
890.254	21637
890.377	21838
890.501	21629
890.624	21492
890.748	21637
890.871	21580
890.995	21416
891.118	21420
891.241	21439
891.364	21321
891.488	21622
891.611	21302
891.734	21306
891.857	21374
891.98	21283
892.103	21378
892.226	21481
892.349	21306
892.471	21135
892.594	21325
892.717	21325
892.839	21321
892.962	21401
893.085	21332
893.207	21211
893.33	21192
893.452	21157
893.575	21340
893.697	21340
893.819	21401
893.941	21485
894.064	21393
894.186	21123
894.308	21176
894.43	21374
894.552	21447
894.674	21329
894.796	21313
894.918	21226
895.04	21237
895.161	21374
895.283	21226
895.405	21218
895.526	21154
895.648	21195
895.769	21218
895.891	21363
896.012	21401
896.134	21230
896.255	21188
896.376	21104
896.498	21169
896.619	21203
896.74	21325
896.861	21287
896.982	21610
897.103	21591
897.224	21469
897.345	21359
897.466	21405
897.587	21492
897.708	21728
897.828	21405
897.949	21431
898.07	21306
898.19	21420
898.311	21458
898.431	21428
898.552	21378
898.672	21511
898.792	21538
898.913	21428
899.033	21237
899.153	21245
899.273	21127
899.393	21245
899.513	21321
899.633	21062
899.753	21131
899.873	21119
899.993	21169
900.113	21093
900.232	21131
900.352	21096
900.472	20971
900.591	20861
900.711	20834
900.83	20899
900.95	20937
901.069	20960
901.189	20883
901.308	20606
901.427	20537
901.546	20480
901.665	20556
901.784	20469
901.904	20499
902.023	20240
902.141	20031
902.26	20081
902.379	20172
902.498	20046
902.617	19868
902.735	20050
902.854	20008
902.973	19959
903.091	19704
903.21	19677
903.328	19658
903.446	19635
903.565	19556
903.683	19468
903.801	19392
903.919	19304
904.038	19320
904.156	19198
904.274	19209
904.392	19225
904.51	19209
904.627	19187
904.745	19148
904.863	19373
904.981	19004
905.098	18993
905.216	18924
905.334	18932
905.451	18894
905.569	18817
905.686	18916
905.803	18821
905.921	18677
906.038	18798
906.155	18608
906.272	18604
906.389	18601
906.506	18521
906.623	18407
906.74	18376
906.857	18243
906.974	18190
907.091	18319
907.208	18532
907.324	18460
907.441	18209
907.557	18087
907.674	18083
907.79	18041
907.907	18117
908.023	18121
908.139	18220
908.256	17980
908.372	18038
908.488	18026
908.604	17908
908.72	17828
908.836	17813
908.952	17756
909.068	17745
909.184	17904
909.3	17927
909.415	17794
909.531	17737
909.647	17554
909.762	17490
909.878	17417
909.993	17482
910.108	17512
910.224	17459
910.339	17402
910.454	17421
910.57	17349
910.685	17170
910.8	17467
910.915	17448
911.03	17318
911.145	17246
911.259	16953
911.374	17033
911.489	17067
911.604	17006
911.718	16866
911.833	16740
911.947	16687
912.062	16706
912.176	16911
912.291	16877
912.405	16809
912.519	16995
912.633	16919
912.748	16877
912.862	16702
912.976	16649
913.09	16531
913.204	16668
913.318	16679
913.431	16809
913.545	16603
913.659	16668
913.772	16523
913.886	16508
914	16443
914.113	16508
914.226	16535
914.34	16447
914.453	16242
914.566	16405
914.68	16207
914.793	16348
914.906	16086
915.019	16097
915.132	15975
915.245	16040
915.358	16017
915.47	16021
915.583	16017
915.696	16032
915.809	16105
915.921	16082
916.034	16013
916.146	15915
916.259	15812
916.371	15899
916.483	15922
916.595	15846
916.708	15827
916.82	15835
916.932	15800
917.044	15755
917.156	15804
917.268	15675
917.38	15629
917.491	15663
917.603	15622
917.715	15629
917.826	15732
917.938	15587
918.049	15500
918.161	15515
918.272	15686
918.384	15622
918.495	15515
918.606	15359
918.717	15275
918.828	15469
918.939	15359
919.05	15298
919.161	15370
919.272	15218
919.383	15249
919.494	15340
919.604	15553
919.715	15260
919.826	15302
919.936	15256
920.047	15363
920.157	15329
920.267	15439
920.378	15393
920.488	15332
920.598	15481
920.708	15545
920.818	15397
920.928	15412
921.038	15599
921.148	15584
921.258	15256
921.368	15119
921.477	15135
921.587	15028
921.697	14872
921.806	15089
921.916	14910
922.025	14743
922.134	14686
922.244	14655
922.353	14686
922.462	14533
922.571	14404
922.68	14275
922.789	14229
922.898	14313
923.007	14343
923.116	14370
923.224	14237
923.333	14240
923.442	14195
923.55	14077
923.659	14157
923.767	14142
923.876	14081
923.984	14199
924.092	14027
924.201	14062
924.309	14031
924.417	14145
924.525	13940
924.633	13963
924.741	14743
924.849	13666
924.956	13868
925.064	13700
925.172	13597
925.279	13655
925.387	13761
925.494	13685
925.602	13795
925.709	13723
925.816	13616
925.924	13548
926.031	13647
926.138	13559
926.245	13597
926.352	13491
926.459	13670
926.566	13639
926.673	13502
926.779	13510
926.886	13282
926.993	13362
927.099	13247
927.206	13168
927.312	13202
927.419	13263
927.525	13187
927.631	13179
927.737	13095
927.843	13038
927.95	12985
928.056	13091
928.162	12962
928.267	13019
928.373	13689
928.479	13141
928.585	12814
928.69	13057
928.796	13053
928.901	12886
929.007	12703
929.112	12825
929.218	12817
929.323	12741
929.428	12688
929.533	12909
929.638	12665
929.743	12639
929.848	12616
929.953	12665
930.058	12559
930.163	12414
930.267	12338
930.372	12494
930.477	12391
930.581	12601
930.685	12502
930.79	12334
930.894	12296
930.998	12194
931.103	12399
931.207	12038
931.311	11931
931.415	11874
931.519	11760
931.623	11646
