Data from test_V78500241_1481.txt Node
Date: Fri Mar 25 15:52:03 CST 2022
User: usil
Spectrometer: V785-0024
Trigger mode: 0
Integration Time (sec): 4.000000E-1
Scans to average: 1
Nonlinearity correction enabled: false
Boxcar width: 0
Storing dark spectrum: false
XAxis mode: Wavelengths
Number of Pixels in Spectrum: 1024
>>>>>Begin Spectral Data<<<<<
801.071	27819
801.214	27865
801.356	27564
801.499	27481
801.641	27561
801.783	27443
801.926	27466
802.068	27530
802.211	27408
802.353	27268
802.496	27157
802.638	27062
802.78	27013
802.923	27028
803.065	27001
803.208	27043
803.35	27154
803.492	27245
803.635	27214
803.777	27233
803.919	27401
804.061	27606
804.204	27188
804.346	27161
804.488	27287
804.63	27325
804.773	27241
804.915	27454
805.057	27504
805.199	27184
805.341	27283
805.483	27545
805.626	27408
805.768	27241
805.91	27458
806.052	27439
806.194	27408
806.336	27660
806.478	27458
806.62	27439
806.762	27519
806.904	27709
807.046	27975
807.188	27953
807.33	27930
807.472	27972
807.614	27698
807.756	27713
807.898	27671
808.04	27728
808.182	27629
808.324	27736
808.465	27743
808.607	27930
808.749	27907
808.891	28059
809.033	28356
809.174	28154
809.316	28070
809.458	28055
809.6	28006
809.741	28010
809.883	28207
810.025	28413
810.166	28352
810.308	28360
810.45	28226
810.591	28337
810.733	28162
810.875	28143
811.016	28010
811.158	27941
811.299	28063
811.441	28223
811.582	28257
811.724	28070
811.865	28021
812.007	28162
812.148	28051
812.29	28025
812.431	28238
812.573	28386
812.714	28436
812.855	28500
812.997	28512
813.138	28809
813.279	28687
813.421	28523
813.562	28512
813.703	28386
813.845	28356
813.986	28013
814.127	27899
814.268	27603
814.41	27774
814.551	27690
814.692	27774
814.833	27705
814.974	27599
815.115	27663
815.256	27629
815.397	27561
815.539	27633
815.68	27401
815.821	27557
815.962	27557
816.103	27454
816.244	27488
816.385	27283
816.526	27412
816.666	27165
816.807	27173
816.948	27032
817.089	27154
817.23	27161
817.371	26986
817.512	26960
817.653	26986
817.793	27112
817.934	27005
818.075	27085
818.216	26971
818.356	27131
818.497	26868
818.638	26838
818.778	26636
818.919	26807
819.06	26842
819.2	26880
819.341	27032
819.481	26925
819.622	27081
819.762	27325
819.903	27211
820.043	27180
820.184	27138
820.324	27017
820.465	27211
820.605	27275
820.746	27317
820.886	27001
821.026	27302
821.167	27146
821.307	27169
821.447	27138
821.588	27104
821.728	26895
821.868	26762
822.008	26571
822.149	26556
822.289	26556
822.429	26385
822.569	26336
822.709	26259
822.849	26062
822.99	26157
823.13	26050
823.27	25986
823.41	25856
823.55	25864
823.69	25932
823.83	25856
823.97	25788
824.11	25753
824.25	25666
824.389	25567
824.529	25746
824.669	25655
824.809	25795
824.949	25849
825.089	25788
825.228	25677
825.368	25445
825.508	25601
825.648	25597
825.787	25647
825.927	25658
826.067	25594
826.206	25571
826.346	25559
826.485	25658
826.625	25632
826.765	25635
826.904	25597
827.044	25518
827.183	25118
827.323	25228
827.462	25392
827.601	25316
827.741	25217
827.88	25350
828.02	25164
828.159	25263
828.298	25320
828.437	25335
828.577	25289
828.716	25392
828.855	25236
828.994	24951
829.134	24970
829.273	25019
829.412	24970
829.551	24821
829.69	24981
829.829	24977
829.968	24989
830.107	25114
830.246	24817
830.385	24924
830.524	24992
830.663	24696
830.802	24684
830.941	24585
831.08	24681
831.219	24734
831.357	24688
831.496	24741
831.635	24616
831.774	24471
831.913	24486
832.051	24399
832.19	24384
832.329	24365
832.467	24243
832.606	24194
832.744	24129
832.883	24228
833.022	24197
833.16	24194
833.299	24311
833.437	24410
833.576	24372
833.714	24365
833.852	24338
833.991	24422
834.129	24327
834.267	24403
834.406	24315
834.544	24330
834.682	24289
834.821	24251
834.959	24414
835.097	24171
835.235	24433
835.373	24239
835.511	24334
835.65	24251
835.788	24190
835.926	24083
836.064	24015
836.202	23942
836.34	24133
836.478	24163
836.615	24209
836.753	24121
836.891	24247
837.029	24239
837.167	24163
837.305	23916
837.443	24110
837.58	23889
837.718	24087
837.856	24205
837.993	23874
838.131	24011
838.269	23821
838.406	23897
838.544	23741
838.681	23745
838.819	23638
838.956	23467
839.094	23562
839.231	23509
839.369	23543
839.506	23824
839.643	23733
839.781	23482
839.918	23414
840.055	23444
840.193	23410
840.33	23444
840.467	23429
840.604	23372
840.742	23786
840.879	23223
841.016	23299
841.153	23220
841.29	23528
841.427	23440
841.564	23318
841.701	23353
841.838	23353
841.975	23216
842.112	23208
842.249	23322
842.385	23189
842.522	23440
842.659	23140
842.796	23269
842.933	23075
843.069	23067
843.206	23098
843.343	23151
843.479	23052
843.616	23060
843.752	22927
843.889	22881
844.025	23086
844.162	22896
844.298	23067
844.435	22858
844.571	22786
844.708	22919
844.844	22995
844.98	22976
845.117	22911
845.253	22946
845.389	22759
845.525	22904
845.661	22630
845.798	22637
845.934	22744
846.07	22733
846.206	22618
846.342	22752
846.478	22489
846.614	22318
846.75	22238
846.886	22470
847.022	22478
847.158	22436
847.294	22299
847.429	22405
847.565	22367
847.701	22459
847.837	22169
847.972	21979
848.108	22185
848.244	22147
848.379	21926
848.515	21998
848.65	21960
848.786	22044
848.921	22051
849.057	21949
849.192	22017
849.328	21991
849.463	21979
849.598	21964
849.734	21747
849.869	21873
850.004	21717
850.14	21793
850.275	21667
850.41	21694
850.545	21618
850.68	21656
850.815	21778
850.95	21698
851.085	21926
851.22	21797
851.355	21835
851.49	21625
851.625	21682
851.76	21701
851.895	21736
852.03	21549
852.165	21728
852.299	21755
852.434	21865
852.569	21747
852.703	21652
852.838	21812
852.973	21793
853.107	21793
853.242	21644
853.376	21473
853.511	21515
853.645	21454
853.78	21633
853.914	21572
854.048	21629
854.183	21610
854.317	21580
854.451	21732
854.585	21492
854.72	21515
854.854	21534
854.988	21466
855.122	21523
855.256	21412
855.39	21405
855.524	21679
855.658	21397
855.792	21538
855.926	21530
856.06	21386
856.194	21656
856.327	21386
856.461	21526
856.595	21473
856.729	21519
856.862	21648
856.996	21523
857.13	21641
857.263	21595
857.397	21690
857.53	21652
857.664	21466
857.797	21606
857.931	21667
858.064	21606
858.197	21770
858.331	21553
858.464	21443
858.597	21397
858.731	21458
858.864	21473
858.997	21488
859.13	21431
859.263	21549
859.396	21564
859.529	21515
859.662	21538
859.795	21534
859.928	21515
860.061	21743
860.194	21816
860.327	21603
860.46	21488
860.592	21709
860.725	21713
860.858	21671
860.99	21534
861.123	21526
861.256	21625
861.388	21557
861.521	22154
861.653	21519
861.786	21378
861.918	21378
862.05	21485
862.183	21473
862.315	21595
862.447	21557
862.58	21454
862.712	21332
862.844	21188
862.976	21310
863.108	21192
863.24	21679
863.372	21161
863.504	21302
863.636	21173
863.768	21321
863.9	21302
864.032	21051
864.164	21211
864.296	21237
864.428	21386
864.559	21252
864.691	21412
864.823	21176
864.954	21123
865.086	21207
865.217	21214
865.349	21001
865.48	21116
865.612	21062
865.743	21222
865.875	21157
866.006	21036
866.137	21161
866.269	21062
866.4	21138
866.531	21192
866.662	21089
866.793	21100
866.924	21127
867.055	21070
867.186	21070
867.317	21100
867.448	20982
867.579	21055
867.71	21013
867.841	20967
867.972	21085
868.103	21043
868.233	21089
868.364	20979
868.495	21203
868.625	21260
868.756	21313
868.886	21336
869.017	21370
869.147	21500
869.278	21386
869.408	21344
869.539	21302
869.669	21405
869.799	21272
869.929	21386
870.06	21504
870.19	21618
870.32	21595
870.45	21622
870.58	21610
870.71	21899
870.84	21884
870.97	21797
871.1	21660
871.23	21857
871.36	21903
871.489	21842
871.619	21819
871.749	21888
871.879	21964
872.008	22032
872.138	22059
872.267	21876
872.397	21713
872.526	21686
872.656	21857
872.785	21793
872.915	22036
873.044	22040
873.173	21934
873.303	22029
873.432	22044
873.561	22059
873.69	21983
873.819	21880
873.948	22006
874.077	21979
874.206	21960
874.335	21994
874.464	22051
874.593	22166
874.722	22188
874.851	22268
874.979	22219
875.108	22268
875.237	22196
875.365	22120
875.494	22055
875.623	22223
875.751	22120
875.88	22234
876.008	22348
876.136	22295
876.265	22550
876.393	22740
876.521	22546
876.65	22561
876.778	22645
876.906	22402
877.034	22474
877.162	22527
877.29	22554
877.418	22455
877.546	22451
877.674	22542
877.802	22516
877.93	22337
878.058	22561
878.185	22303
878.313	22409
878.441	22402
878.568	22402
878.696	22436
878.824	22390
878.951	22569
879.079	22866
879.206	22744
879.333	22626
879.461	22565
879.588	22542
879.715	22694
879.842	22786
879.97	22577
880.097	22238
880.224	22344
880.351	22310
880.478	22249
880.605	22234
880.732	22459
880.859	22519
880.986	22310
881.112	22382
881.239	22257
881.366	22158
881.493	21983
881.619	21911
881.746	21956
881.872	21991
881.999	21892
882.125	21739
882.252	21953
882.378	22002
882.505	21994
882.631	21739
882.757	21675
882.883	21641
883.01	21625
883.136	21561
883.262	21576
883.388	21428
883.514	21564
883.64	21724
883.766	21504
883.892	21386
884.018	21397
884.143	21530
884.269	21622
884.395	21378
884.52	21291
884.646	21272
884.772	21302
884.897	21150
885.023	21119
885.148	21355
885.274	21416
885.399	21374
885.524	21279
885.65	21233
885.775	21245
885.9	21180
886.025	21401
886.15	21321
886.275	21203
886.4	21096
886.525	21291
886.65	21112
886.775	21226
886.9	21321
887.025	21443
887.149	21272
887.274	20998
887.399	21104
887.523	21013
887.648	20937
887.773	20899
887.897	21039
888.021	21108
888.146	20899
888.27	21077
888.395	21150
888.519	21020
888.643	21058
888.767	20902
888.891	20914
889.015	20921
889.139	20971
889.263	20750
889.387	21032
889.511	20975
889.635	20872
889.759	20800
889.883	20796
890.006	20891
890.13	20887
890.254	20727
890.377	20708
890.501	20606
890.624	20560
890.748	20590
890.871	20590
890.995	20317
891.118	20370
891.241	20389
891.364	20351
891.488	20507
891.611	20438
891.734	20339
891.857	20442
891.98	20514
892.103	20381
892.226	20313
892.349	20263
892.471	20153
892.594	20240
892.717	20313
892.839	20294
892.962	20294
893.085	20298
893.207	20145
893.33	20176
893.452	20134
893.575	20278
893.697	20134
893.819	20492
893.941	20431
894.064	20362
894.186	20275
894.308	20111
894.43	20389
894.552	20385
894.674	20324
894.796	20077
894.918	20214
895.04	20252
895.161	20339
895.283	20248
895.405	20161
895.526	20240
895.648	20278
895.769	20301
895.891	20351
896.012	20370
896.134	20259
896.255	20206
896.376	20221
896.498	20309
896.619	20393
896.74	20336
896.861	20431
896.982	20564
897.103	20826
897.224	20484
897.345	20404
897.466	20419
897.587	20473
897.708	20693
897.828	20507
897.949	20404
898.07	20164
898.19	20438
898.311	20560
898.431	20434
898.552	20362
898.672	20560
898.792	20552
898.913	20351
899.033	20309
899.153	20278
899.273	20206
899.393	20168
899.513	20294
899.633	20164
899.753	20301
899.873	20050
899.993	20294
900.113	20138
900.232	20153
900.352	20145
900.472	20218
900.591	20031
900.711	20031
900.83	20046
900.95	20176
901.069	19974
901.189	19955
901.308	19734
901.427	19643
901.546	19563
901.665	19575
901.784	19544
901.904	19419
902.023	19365
902.141	19190
902.26	19206
902.379	19145
902.498	19129
902.617	19023
902.735	19263
902.854	19050
902.973	19091
903.091	18814
903.21	18738
903.328	18753
903.446	18772
903.565	18700
903.683	18650
903.801	18426
903.919	18566
904.038	18563
904.156	18433
904.274	18376
904.392	18266
904.51	18308
904.627	18422
904.745	18330
904.863	18426
904.981	18209
905.098	18019
905.216	17996
905.334	18091
905.451	18076
905.569	17931
905.686	18060
905.803	17904
905.921	17851
906.038	17870
906.155	17931
906.272	17805
906.389	17783
906.506	17535
906.623	17532
906.74	17524
906.857	17292
906.974	17478
907.091	17649
907.208	17729
907.324	17649
907.441	17501
907.557	17322
907.674	17269
907.79	17200
907.907	17227
908.023	17258
908.139	17318
908.256	17326
908.372	17151
908.488	17052
908.604	17014
908.72	16968
908.836	16942
908.952	16995
909.068	17064
909.184	17124
909.3	16984
909.415	17018
909.531	16938
909.647	16698
909.762	16702
909.878	16637
909.993	16653
910.108	16634
910.224	16653
910.339	16626
910.454	16649
910.57	16527
910.685	16371
910.8	16790
910.915	16713
911.03	16470
911.145	16287
911.259	16287
911.374	16230
911.489	16112
911.604	16105
911.718	16071
911.833	16036
911.947	15949
912.062	15835
912.176	15994
912.291	16090
912.405	16006
912.519	16230
912.633	16150
912.748	16078
912.862	16021
912.976	15842
913.09	15732
913.204	15857
913.318	15865
913.431	15907
913.545	15918
913.659	15819
913.772	15781
913.886	15656
914	15584
914.113	15663
914.226	15770
914.34	15633
914.453	15526
914.566	15648
914.68	15504
914.793	15481
914.906	15260
915.019	15157
915.132	15226
915.245	15241
915.358	15237
915.47	15173
915.583	15245
915.696	15150
915.809	15363
915.921	15321
916.034	15127
916.146	15085
916.259	15192
916.371	15112
916.483	15237
916.595	14979
916.708	15123
916.82	15089
916.932	15058
917.044	14963
917.156	15032
917.268	14819
917.38	14967
917.491	14842
917.603	15001
917.715	14941
917.826	14918
917.938	14819
918.049	14727
918.161	14842
918.272	14971
918.384	15001
918.495	14845
918.606	14651
918.717	14537
918.828	14743
918.939	14689
919.05	14571
919.161	14613
919.272	14434
919.383	14514
919.494	14667
919.604	14830
919.715	14651
919.826	14476
919.936	14556
920.047	14602
920.157	14636
920.267	14804
920.378	14552
920.488	14617
920.598	14758
920.708	14971
920.818	14765
920.928	14720
921.038	14826
921.148	14971
921.258	14461
921.368	14514
921.477	14393
921.587	14381
921.697	14161
921.806	14374
921.916	14263
922.025	14043
922.134	13989
922.244	13917
922.353	13951
922.462	13830
922.571	13734
922.68	13681
922.789	13632
922.898	13662
923.007	13563
923.116	13685
923.224	13632
923.333	13537
923.442	13483
923.55	13445
923.659	13483
923.767	13499
923.876	13445
923.984	13491
924.092	13365
924.201	13377
924.309	13396
924.417	13346
924.525	13244
924.633	13266
924.741	14218
924.849	13126
924.956	13228
925.064	13076
925.172	12973
925.279	12973
925.387	13061
925.494	12996
925.602	13046
925.709	12996
925.816	12947
925.924	13088
926.031	13072
926.138	13012
926.245	13076
926.352	12817
926.459	12973
926.566	12977
926.673	12837
926.779	12798
926.886	12802
926.993	12604
927.099	12620
927.206	12498
927.312	12506
927.419	12646
927.525	12612
927.631	12604
927.737	12506
927.843	12369
927.95	12330
928.056	12407
928.162	12369
928.267	12456
928.373	13110
928.479	12475
928.585	12247
928.69	12369
928.796	12464
928.901	12300
929.007	12117
929.112	12289
929.218	12251
929.323	12167
929.428	12049
929.533	12258
929.638	12049
929.743	12045
929.848	12114
929.953	12091
930.058	11980
930.163	11752
930.267	11813
930.372	11901
930.477	11824
930.581	11999
930.685	11874
930.79	11699
930.894	11786
930.998	11676
931.103	11836
931.207	11471
931.311	11296
931.415	11315
931.519	11010
931.623	11124
