Data from test_V78500241_2032.txt Node
Date: Fri Mar 25 15:55:52 CST 2022
User: usil
Spectrometer: V785-0024
Trigger mode: 0
Integration Time (sec): 4.000000E-1
Scans to average: 1
Nonlinearity correction enabled: false
Boxcar width: 0
Storing dark spectrum: false
XAxis mode: Wavelengths
Number of Pixels in Spectrum: 1024
>>>>>Begin Spectral Data<<<<<
801.071	28995
801.214	28774
801.356	28736
801.499	28660
801.641	28592
801.783	28550
801.926	28683
802.068	28683
802.211	28455
802.353	28519
802.496	28325
802.638	28207
802.78	28314
802.923	28185
803.065	28185
803.208	28211
803.35	28226
803.492	28352
803.635	28519
803.777	28432
803.919	28401
804.061	28816
804.204	28497
804.346	28329
804.488	28497
804.63	28421
804.773	28344
804.915	28538
805.057	28653
805.199	28573
805.341	28531
805.483	28706
805.626	28782
805.768	28687
805.91	28698
806.052	28649
806.194	28557
806.336	28717
806.478	28641
806.62	28668
806.762	28843
806.904	28953
807.046	29170
807.188	29105
807.33	29102
807.472	29098
807.614	29102
807.756	29124
807.898	29064
808.04	28930
808.182	28976
808.324	28972
808.465	29060
808.607	29189
808.749	29318
808.891	29543
809.033	29547
809.174	29406
809.316	29414
809.458	29425
809.6	29246
809.741	29493
809.883	29551
810.025	29604
810.166	29589
810.308	29596
810.45	29547
810.591	29505
810.733	29558
810.875	29360
811.016	29261
811.158	29189
811.299	29455
811.441	29520
811.582	29623
811.724	29379
811.865	29360
812.007	29440
812.148	29455
812.29	29375
812.431	29589
812.573	29695
812.714	29855
812.855	29843
812.997	29851
813.138	30228
813.279	30003
813.421	30038
813.562	29855
813.703	29634
813.845	29528
813.986	29311
814.127	29037
814.268	29166
814.41	29037
814.551	28991
814.692	29212
814.833	29090
814.974	29113
815.115	29121
815.256	29003
815.397	29006
815.539	28934
815.68	28873
815.821	28885
815.962	28850
816.103	28953
816.244	28725
816.385	28694
816.526	28736
816.666	28489
816.807	28306
816.948	28390
817.089	28500
817.23	28497
817.371	28325
817.512	28474
817.653	28489
817.793	28367
817.934	28401
818.075	28516
818.216	28489
818.356	28401
818.497	28329
818.638	28207
818.778	28306
818.919	28211
819.06	28348
819.2	28474
819.341	28280
819.481	28379
819.622	28489
819.762	28752
819.903	28774
820.043	28744
820.184	28573
820.324	28455
820.465	28649
820.605	28497
820.746	28546
820.886	28417
821.026	28470
821.167	28577
821.307	28557
821.447	28523
821.588	28272
821.728	28162
821.868	28128
822.008	28093
822.149	28048
822.289	27857
822.429	27698
822.569	27660
822.709	27701
822.849	27447
822.99	27287
823.13	27454
823.27	27268
823.41	27245
823.55	27180
823.69	27192
823.83	27226
823.97	27188
824.11	27009
824.25	26952
824.389	27165
824.529	27230
824.669	27104
824.809	27169
824.949	27283
825.089	27195
825.228	27077
825.368	27020
825.508	26990
825.648	26876
825.787	26998
825.927	27146
826.067	26948
826.206	27005
826.346	27009
826.485	26990
826.625	26918
826.765	27051
826.904	27005
827.044	26769
827.183	26823
827.323	26667
827.462	26758
827.601	26648
827.741	26667
827.88	26648
828.02	26556
828.159	26609
828.298	26663
828.437	26731
828.577	26724
828.716	26651
828.855	26636
828.994	26324
829.134	26313
829.273	26533
829.412	26301
829.551	26233
829.69	26404
829.829	26282
829.968	26408
830.107	26556
830.246	26294
830.385	26294
830.524	26332
830.663	26275
830.802	26024
830.941	26027
831.08	26035
831.219	26020
831.357	25917
831.496	26149
831.635	26142
831.774	25852
831.913	25803
832.051	25807
832.19	25841
832.329	25704
832.467	25483
832.606	25655
832.744	25613
832.883	25696
833.022	25506
833.16	25658
833.299	25601
833.437	25582
833.576	25811
833.714	25845
833.852	25772
833.991	25830
834.129	25913
834.267	25860
834.406	25731
834.544	25788
834.682	25715
834.821	25712
834.959	25757
835.097	25643
835.235	25742
835.373	25696
835.511	25647
835.65	25483
835.788	25628
835.926	25457
836.064	25384
836.202	25365
836.34	25525
836.478	25559
836.615	25415
836.753	25506
836.891	25605
837.029	25685
837.167	25529
837.305	25460
837.443	25388
837.58	25438
837.718	25434
837.856	25384
837.993	25251
838.131	25479
838.269	25221
838.406	25126
838.544	25129
838.681	25004
838.819	24844
838.956	24821
839.094	24821
839.231	24856
839.369	24905
839.506	25236
839.643	25137
839.781	24817
839.918	24642
840.055	24757
840.193	24829
840.33	24707
840.467	24669
840.604	24802
840.742	25046
840.879	24498
841.016	24741
841.153	24646
841.29	24897
841.427	24635
841.564	24787
841.701	24783
841.838	24715
841.975	24597
842.112	24578
842.249	24536
842.385	24448
842.522	24635
842.659	24654
842.796	24471
842.933	24445
843.069	24460
843.206	24376
843.343	24467
843.479	24452
843.616	24486
843.752	24422
843.889	24205
844.025	24437
844.162	24194
844.298	24194
844.435	24216
844.571	24205
844.708	24296
844.844	24429
844.98	24334
845.117	24266
845.253	24110
845.389	24095
845.525	24095
845.661	24167
845.798	24026
845.934	24011
846.07	23980
846.206	23988
846.342	24083
846.478	23836
846.614	23809
846.75	23646
846.886	23577
847.022	23805
847.158	23752
847.294	23668
847.429	23771
847.565	23748
847.701	23954
847.837	23440
847.972	23341
848.108	23463
848.244	23459
848.379	23303
848.515	23334
848.65	23208
848.786	23280
848.921	23326
849.057	23181
849.192	23414
849.328	23322
849.463	23242
849.598	23288
849.734	23090
849.869	23109
850.004	23041
850.14	23136
850.275	22980
850.41	23083
850.545	23014
850.68	22991
850.815	23052
850.95	23052
851.085	23162
851.22	23200
851.355	23041
851.49	23025
851.625	23071
851.76	22965
851.895	23044
852.03	23037
852.165	23033
852.299	23128
852.434	23075
852.569	23014
852.703	22968
852.838	23003
852.973	23181
853.107	23132
853.242	22946
853.376	22904
853.511	22725
853.645	22911
853.78	22862
853.914	22839
854.048	22733
854.183	22805
854.317	22896
854.451	23037
854.585	22782
854.72	22858
854.854	22949
854.988	22755
855.122	22881
855.256	22656
855.39	22706
855.524	22873
855.658	22934
855.792	22896
855.926	23006
856.06	22908
856.194	22965
856.327	22820
856.461	22755
856.595	22774
856.729	22774
856.862	22968
856.996	22904
857.13	22957
857.263	22908
857.397	22908
857.53	22816
857.664	22866
857.797	22778
857.931	22904
858.064	22957
858.197	23079
858.331	23003
858.464	22847
858.597	22763
858.731	22767
858.864	22862
858.997	22782
859.13	22881
859.263	22858
859.396	23071
859.529	22797
859.662	22786
859.795	22771
859.928	22854
860.061	22892
860.194	23067
860.327	22968
860.46	22847
860.592	22919
860.725	23094
860.858	22991
860.99	22896
861.123	22820
861.256	22782
861.388	22812
861.521	23661
861.653	22721
861.786	22611
861.918	22645
862.05	22721
862.183	22767
862.315	22740
862.447	22866
862.58	22725
862.712	22523
862.844	22538
862.976	22573
863.108	22679
863.24	23143
863.372	22622
863.504	22618
863.636	22603
863.768	22478
863.9	22569
864.032	22310
864.164	22634
864.296	22489
864.428	22710
864.559	22611
864.691	22512
864.823	22542
864.954	22500
865.086	22557
865.217	22584
865.349	22409
865.48	22265
865.612	22557
865.743	22519
865.875	22447
866.006	22375
866.137	22508
866.269	22466
866.4	22409
866.531	22257
866.662	22162
866.793	22363
866.924	22242
867.055	22253
867.186	22382
867.317	22276
867.448	22112
867.579	22398
867.71	22211
867.841	22375
867.972	22371
868.103	22394
868.233	22223
868.364	22314
868.495	22569
868.625	22516
868.756	22706
868.886	22546
869.017	22626
869.147	22596
869.278	22710
869.408	22565
869.539	22687
869.669	22748
869.799	22672
869.929	22691
870.06	22721
870.19	22923
870.32	22774
870.45	22984
870.58	22904
870.71	23067
870.84	23140
870.97	22999
871.1	22946
871.23	23121
871.36	23147
871.489	23113
871.619	23292
871.749	23193
871.879	23185
872.008	23227
872.138	23204
872.267	23117
872.397	23151
872.526	23060
872.656	23136
872.785	23124
872.915	23269
873.044	23288
873.173	23246
873.303	23315
873.432	23311
873.561	23360
873.69	23197
873.819	23132
873.948	23151
874.077	23197
874.206	23284
874.335	23246
874.464	23455
874.593	23387
874.722	23303
874.851	23421
874.979	23387
875.108	23425
875.237	23440
875.365	23353
875.494	23433
875.623	23581
875.751	23383
875.88	23398
876.008	23524
876.136	23687
876.265	23920
876.393	24011
876.521	23893
876.65	23923
876.778	23824
876.906	23687
877.034	23798
877.162	23748
877.29	23657
877.418	23687
877.546	23764
877.674	23722
877.802	23783
877.93	23748
878.058	23741
878.185	23668
878.313	23737
878.441	23737
878.568	23615
878.696	23577
878.824	23745
878.951	23832
879.079	23931
879.206	24072
879.333	23923
879.461	23741
879.588	23973
879.715	23863
879.842	24129
879.97	23733
880.097	23646
880.224	23672
880.351	23600
880.478	23531
880.605	23551
880.732	23581
880.859	23866
880.986	23524
881.112	23562
881.239	23395
881.366	23277
881.493	23208
881.619	23140
881.746	23105
881.872	23166
881.999	23124
882.125	22961
882.252	23083
882.378	23117
882.505	23200
882.631	23052
882.757	22767
882.883	22908
883.01	22824
883.136	22767
883.262	22710
883.388	22584
883.514	22763
883.64	22809
883.766	22873
883.892	22489
884.018	22694
884.143	22599
884.269	22930
884.395	22531
884.52	22447
884.646	22535
884.772	22428
884.897	22322
885.023	22516
885.148	22462
885.274	22474
885.399	22584
885.524	22417
885.65	22318
885.775	22257
885.9	22413
886.025	22565
886.15	22489
886.275	22329
886.4	22280
886.525	22436
886.65	22493
886.775	22287
886.9	22546
887.025	22561
887.149	22375
887.274	22310
887.399	22166
887.523	22204
887.648	22162
887.773	22131
887.897	22169
888.021	22128
888.146	22059
888.27	22238
888.395	22177
888.519	22219
888.643	22223
888.767	22219
888.891	22067
889.015	22124
889.139	22002
889.263	21922
889.387	22074
889.511	22173
889.635	21972
889.759	21876
889.883	21983
890.006	21899
890.13	22128
890.254	21831
890.377	21846
890.501	21770
890.624	21690
890.748	21656
890.871	21622
890.995	21610
891.118	21416
891.241	21591
891.364	21561
891.488	21629
891.611	21481
891.734	21466
891.857	21477
891.98	21587
892.103	21637
892.226	21519
892.349	21538
892.471	21272
892.594	21393
892.717	21485
892.839	21374
892.962	21397
893.085	21473
893.207	21435
893.33	21332
893.452	21275
893.575	21420
893.697	21298
893.819	21580
893.941	21568
894.064	21576
894.186	21325
894.308	21260
894.43	21458
894.552	21515
894.674	21450
894.796	21218
894.918	21317
895.04	21363
895.161	21469
895.283	21439
895.405	21412
895.526	21317
895.648	21393
895.769	21435
895.891	21389
896.012	21389
896.134	21408
896.255	21355
896.376	21321
896.498	21393
896.619	21370
896.74	21310
896.861	21424
896.982	21720
897.103	21831
897.224	21701
897.345	21526
897.466	21416
897.587	21557
897.708	21781
897.828	21610
897.949	21595
898.07	21351
898.19	21458
898.311	21637
898.431	21420
898.552	21625
898.672	21568
898.792	21618
898.913	21542
899.033	21393
899.153	21260
899.273	21302
899.393	21291
899.513	21367
899.633	21272
899.753	21321
899.873	21272
899.993	21310
900.113	21150
900.232	21302
900.352	21173
900.472	21028
900.591	21005
900.711	21100
900.83	20960
900.95	21157
901.069	21119
901.189	20895
901.308	20609
901.427	20644
901.546	20514
901.665	20697
901.784	20667
901.904	20522
902.023	20461
902.141	20256
902.26	20233
902.379	20161
902.498	20081
902.617	20111
902.735	20119
902.854	20119
902.973	20069
903.091	19795
903.21	19765
903.328	19780
903.446	19719
903.565	19666
903.683	19613
903.801	19411
903.919	19559
904.038	19548
904.156	19331
904.274	19377
904.392	19327
904.51	19331
904.627	19339
904.745	19266
904.863	19422
904.981	19118
905.098	18947
905.216	19053
905.334	19088
905.451	19129
905.569	18993
905.686	18985
905.803	18897
905.921	18787
906.038	18806
906.155	18745
906.272	18673
906.389	18791
906.506	18547
906.623	18604
906.74	18627
906.857	18494
906.974	18372
907.091	18483
907.208	18688
907.324	18498
907.441	18369
907.557	18235
907.674	18194
907.79	18186
907.907	18247
908.023	18155
908.139	18281
908.256	18140
908.372	18117
908.488	18019
908.604	17973
908.72	18034
908.836	17977
908.952	17874
909.068	17927
909.184	18049
909.3	17916
909.415	17927
909.531	17916
909.647	17592
909.762	17638
909.878	17627
909.993	17532
910.108	17562
910.224	17516
910.339	17577
910.454	17349
910.57	17486
910.685	17299
910.8	17687
910.915	17524
911.03	17391
911.145	17227
911.259	17147
911.374	17109
911.489	17174
911.604	17128
911.718	16896
911.833	16953
911.947	16854
912.062	16729
912.176	16995
912.291	16938
912.405	16889
912.519	17079
912.633	17006
912.748	16908
912.862	16915
912.976	16755
913.09	16725
913.204	16630
913.318	16748
913.431	16839
913.545	16854
913.659	16793
913.772	16641
913.886	16668
914	16485
914.113	16653
914.226	16713
914.34	16531
914.453	16398
914.566	16508
914.68	16303
914.793	16367
914.906	16215
915.019	16071
915.132	15960
915.245	16090
915.358	16162
915.47	16112
915.583	15953
915.696	16101
915.809	16131
915.921	16188
916.034	15934
916.146	15915
916.259	15983
916.371	16021
916.483	16021
916.595	15895
916.708	15964
916.82	15876
916.932	15941
917.044	15816
917.156	15762
917.268	15751
917.38	15720
917.491	15720
917.603	15728
917.715	15816
917.826	15842
917.938	15679
918.049	15538
918.161	15599
918.272	15816
918.384	15835
918.495	15633
918.606	15526
918.717	15382
918.828	15473
918.939	15500
919.05	15374
919.161	15370
919.272	15233
919.383	15256
919.494	15450
919.604	15660
919.715	15439
919.826	15374
919.936	15359
920.047	15466
920.157	15348
920.267	15614
920.378	15386
920.488	15378
920.598	15572
920.708	15709
920.818	15542
920.928	15473
921.038	15637
921.148	15622
921.258	15302
921.368	15176
921.477	15169
921.587	15112
921.697	15089
921.806	15100
921.916	14982
922.025	14815
922.134	14807
922.244	14686
922.353	14735
922.462	14697
922.571	14492
922.68	14469
922.789	14328
922.898	14377
923.007	14244
923.116	14358
923.224	14370
923.333	14317
923.442	14256
923.55	14240
923.659	14301
923.767	14320
923.876	14248
923.984	14256
924.092	14039
924.201	14073
924.309	14115
924.417	14096
924.525	13955
924.633	14027
924.741	14956
924.849	13765
924.956	13947
925.064	13784
925.172	13757
925.279	13715
925.387	13761
925.494	13746
925.602	13818
925.709	13826
925.816	13693
925.924	13540
926.031	13734
926.138	13693
926.245	13746
926.352	13571
926.459	13677
926.566	13693
926.673	13556
926.779	13457
926.886	13445
926.993	13346
927.099	13278
927.206	13209
927.312	13168
927.419	13259
927.525	13335
927.631	13236
927.737	13145
927.843	13133
927.95	13091
928.056	13080
928.162	13091
928.267	13217
928.373	13753
928.479	13141
928.585	12951
928.69	13076
928.796	13088
928.901	12966
929.007	12779
929.112	12932
929.218	12882
929.323	12840
929.428	12787
929.533	12882
929.638	12715
929.743	12753
929.848	12772
929.953	12711
930.058	12635
930.163	12525
930.267	12559
930.372	12612
930.477	12445
930.581	12654
930.685	12464
930.79	12369
930.894	12281
930.998	12254
931.103	12441
931.207	12076
931.311	12049
931.415	11920
931.519	11707
931.623	11741
