Data from test_V78500241_2179.txt Node
Date: Fri Mar 25 15:56:53 CST 2022
User: usil
Spectrometer: V785-0024
Trigger mode: 0
Integration Time (sec): 4.000000E-1
Scans to average: 1
Nonlinearity correction enabled: false
Boxcar width: 0
Storing dark spectrum: false
XAxis mode: Wavelengths
Number of Pixels in Spectrum: 1024
>>>>>Begin Spectral Data<<<<<
801.071	28892
801.214	28820
801.356	28584
801.499	28561
801.641	28447
801.783	28394
801.926	28554
802.068	28398
802.211	28405
802.353	28272
802.496	28143
802.638	28143
802.78	28120
802.923	28147
803.065	27945
803.208	28116
803.35	28166
803.492	28215
803.635	28348
803.777	28246
803.919	28322
804.061	28721
804.204	28314
804.346	28413
804.488	28280
804.63	28504
804.773	28363
804.915	28443
805.057	28500
805.199	28386
805.341	28424
805.483	28603
805.626	28599
805.768	28508
805.91	28630
806.052	28660
806.194	28645
806.336	28664
806.478	28573
806.62	28565
806.762	28599
806.904	28782
807.046	28976
807.188	29037
807.33	29041
807.472	29048
807.614	28911
807.756	29064
807.898	28850
808.04	28911
808.182	28725
808.324	28850
808.465	28755
808.607	29098
808.749	29159
808.891	29311
809.033	29402
809.174	29360
809.316	29181
809.458	29299
809.6	29246
809.741	29136
809.883	29334
810.025	29497
810.166	29509
810.308	29417
810.45	29600
810.591	29368
810.733	29220
810.875	29220
811.016	29079
811.158	29105
811.299	29223
811.441	29345
811.582	29531
811.724	29284
811.865	29200
812.007	29208
812.148	29322
812.29	29212
812.431	29391
812.573	29547
812.714	29566
812.855	29680
812.997	29707
813.138	29897
813.279	29783
813.421	29832
813.562	29798
813.703	29585
813.845	29254
813.986	29280
814.127	29041
814.268	28888
814.41	28938
814.551	28744
814.692	28968
814.833	28938
814.974	28968
815.115	28987
815.256	28691
815.397	28774
815.539	28748
815.68	28733
815.821	28683
815.962	28645
816.103	28721
816.244	28497
816.385	28672
816.526	28523
816.666	28390
816.807	28272
816.948	28284
817.089	28459
817.23	28177
817.371	28215
817.512	28310
817.653	28166
817.793	28181
817.934	28291
818.075	28333
818.216	28394
818.356	28200
818.497	28097
818.638	28025
818.778	27983
818.919	27945
819.06	27918
819.2	28238
819.341	28268
819.481	28192
819.622	28428
819.762	28603
819.903	28424
820.043	28375
820.184	28557
820.324	28417
820.465	28577
820.605	28386
820.746	28379
820.886	28291
821.026	28341
821.167	28280
821.307	28451
821.447	28341
821.588	28333
821.728	28128
821.868	27949
822.008	27857
822.149	27838
822.289	27797
822.429	27515
822.569	27488
822.709	27458
822.849	27329
822.99	27233
823.13	27313
823.27	27188
823.41	27237
823.55	26880
823.69	27131
823.83	27043
823.97	26979
824.11	26754
824.25	26769
824.389	26921
824.529	27039
824.669	26937
824.809	26998
824.949	27066
825.089	26937
825.228	26963
825.368	26800
825.508	26773
825.648	26845
825.787	26727
825.927	26975
826.067	26819
826.206	26765
826.346	26857
826.485	26823
826.625	26804
826.765	26960
826.904	26777
827.044	26632
827.183	26693
827.323	26469
827.462	26533
827.601	26480
827.741	26571
827.88	26438
828.02	26473
828.159	26476
828.298	26629
828.437	26492
828.577	26442
828.716	26541
828.855	26351
828.994	26149
829.134	26195
829.273	26180
829.412	26221
829.551	26107
829.69	26157
829.829	26202
829.968	26168
830.107	26256
830.246	26191
830.385	26050
830.524	26039
830.663	26111
830.802	25940
830.941	25814
831.08	25643
831.219	25845
831.357	25814
831.496	25913
831.635	25795
831.774	25647
831.913	25712
832.051	25590
832.19	25753
832.329	25632
832.467	25460
832.606	25384
832.744	25381
832.883	25354
833.022	25460
833.16	25434
833.299	25540
833.437	25594
833.576	25597
833.714	25594
833.852	25586
833.991	25540
834.129	25502
834.267	25689
834.406	25529
834.544	25434
834.682	25479
834.821	25434
834.959	25723
835.097	25495
835.235	25601
835.373	25525
835.511	25460
835.65	25419
835.788	25476
835.926	25240
836.064	25152
836.202	25266
836.34	25335
836.478	25327
836.615	25392
836.753	25278
836.891	25533
837.029	25343
837.167	25221
837.305	25145
837.443	25152
837.58	25263
837.718	25118
837.856	25084
837.993	25072
838.131	25251
838.269	24985
838.406	25088
838.544	24973
838.681	24833
838.819	24814
838.956	24593
839.094	24745
839.231	24654
839.369	24856
839.506	24989
839.643	24886
839.781	24612
839.918	24654
840.055	24719
840.193	24696
840.33	24551
840.467	24521
840.604	24597
840.742	24795
840.879	24399
841.016	24380
841.153	24334
841.29	24646
841.427	24540
841.564	24505
841.701	24509
841.838	24464
841.975	24266
842.112	24361
842.249	24266
842.385	24315
842.522	24517
842.659	24273
842.796	24228
842.933	24232
843.069	24144
843.206	24243
843.343	24391
843.479	24224
843.616	24155
843.752	24083
843.889	24057
844.025	24289
844.162	23958
844.298	24186
844.435	24053
844.571	24030
844.708	24072
844.844	24102
844.98	24053
845.117	24083
845.253	23923
845.389	23980
845.525	23889
845.661	23866
845.798	23729
845.934	23817
846.07	23836
846.206	23790
846.342	23931
846.478	23745
846.614	23417
846.75	23478
846.886	23493
847.022	23589
847.158	23448
847.294	23474
847.429	23543
847.565	23501
847.701	23767
847.837	23269
847.972	23216
848.108	23345
848.244	23345
848.379	23052
848.515	23117
848.65	23140
848.786	23044
848.921	23079
849.057	23128
849.192	23162
849.328	23067
849.463	23048
849.598	23155
849.734	22980
849.869	23037
850.004	22949
850.14	22847
850.275	22793
850.41	22672
850.545	22793
850.68	22881
850.815	22793
850.95	22915
851.085	22991
851.22	22999
851.355	22771
851.49	22850
851.625	22763
851.76	22999
851.895	22957
852.03	22752
852.165	22774
852.299	22987
852.434	22991
852.569	22934
852.703	22946
852.838	22953
852.973	23010
853.107	22984
853.242	22900
853.376	22645
853.511	22713
853.645	22626
853.78	22805
853.914	22649
854.048	22557
854.183	22554
854.317	22649
854.451	22885
854.585	22637
854.72	22675
854.854	22793
854.988	22653
855.122	22729
855.256	22531
855.39	22645
855.524	22672
855.658	22740
855.792	22596
855.926	22774
856.06	22702
856.194	22710
856.327	22538
856.461	22672
856.595	22565
856.729	22599
856.862	22717
856.996	22565
857.13	22721
857.263	22843
857.397	22786
857.53	22706
857.664	22733
857.797	22778
857.931	22786
858.064	22725
858.197	22729
858.331	22694
858.464	22584
858.597	22497
858.731	22713
858.864	22607
858.997	22645
859.13	22721
859.263	22645
859.396	22706
859.529	22637
859.662	22702
859.795	22557
859.928	22740
860.061	22790
860.194	22869
860.327	22782
860.46	22649
860.592	22687
860.725	22801
860.858	22733
860.99	22611
861.123	22641
861.256	22519
861.388	22721
861.521	23235
861.653	22508
861.786	22447
861.918	22542
862.05	22390
862.183	22577
862.315	22577
862.447	22717
862.58	22592
862.712	22223
862.844	22432
862.976	22489
863.108	22447
863.24	22911
863.372	22265
863.504	22367
863.636	22352
863.768	22341
863.9	22363
864.032	22265
864.164	22295
864.296	22424
864.428	22394
864.559	22405
864.691	22424
864.823	22352
864.954	22348
865.086	22341
865.217	22265
865.349	22215
865.48	22109
865.612	22314
865.743	22291
865.875	22284
866.006	22166
866.137	22303
866.269	22147
866.4	22173
866.531	22249
866.662	22063
866.793	22188
866.924	22253
867.055	22246
867.186	22299
867.317	22192
867.448	22120
867.579	22154
867.71	22048
867.841	22112
867.972	22109
868.103	22185
868.233	22143
868.364	22131
868.495	22200
868.625	22421
868.756	22508
868.886	22394
869.017	22428
869.147	22459
869.278	22432
869.408	22440
869.539	22493
869.669	22466
869.799	22527
869.929	22538
870.06	22436
870.19	22797
870.32	22645
870.45	22831
870.58	22748
870.71	22854
870.84	22980
870.97	22839
871.1	22892
871.23	22843
871.36	22995
871.489	22809
871.619	22946
871.749	22942
871.879	23143
872.008	23174
872.138	22984
872.267	22972
872.397	22820
872.526	22828
872.656	22805
872.785	22923
872.915	23067
873.044	23067
873.173	23025
873.303	23014
873.432	23098
873.561	23060
873.69	23121
873.819	22892
873.948	23121
874.077	23083
874.206	22984
874.335	22976
874.464	23337
874.593	23242
874.722	23193
874.851	23269
874.979	23322
875.108	23216
875.237	23189
875.365	23102
875.494	23239
875.623	23261
875.751	23166
875.88	23193
876.008	23296
876.136	23235
876.265	23623
876.393	23630
876.521	23722
876.65	23707
876.778	23642
876.906	23558
877.034	23531
877.162	23539
877.29	23543
877.418	23638
877.546	23687
877.674	23577
877.802	23577
877.93	23562
878.058	23634
878.185	23581
878.313	23562
878.441	23551
878.568	23296
878.696	23402
878.824	23535
878.951	23509
879.079	23767
879.206	23611
879.333	23718
879.461	23577
879.588	23649
879.715	23767
879.842	23874
879.97	23638
880.097	23414
880.224	23376
880.351	23455
880.478	23474
880.605	23372
880.732	23360
880.859	23573
880.986	23452
881.112	23303
881.239	23216
881.366	23128
881.493	23079
881.619	22987
881.746	22980
881.872	22892
881.999	22938
882.125	22881
882.252	22927
882.378	23006
882.505	23033
882.631	22759
882.757	22687
882.883	22565
883.01	22721
883.136	22531
883.262	22512
883.388	22538
883.514	22592
883.64	22763
883.766	22580
883.892	22352
884.018	22451
884.143	22535
884.269	22698
884.395	22413
884.52	22398
884.646	22101
884.772	22230
884.897	22169
885.023	22242
885.148	22299
885.274	22379
885.399	22409
885.524	22158
885.65	22169
885.775	22223
885.9	22158
886.025	22371
886.15	22253
886.275	22135
886.4	22143
886.525	22188
886.65	22124
886.775	22135
886.9	22329
887.025	22432
887.149	22192
887.274	22135
887.399	22059
887.523	22029
887.648	21884
887.773	21915
887.897	22017
888.021	22086
888.146	22010
888.27	22059
888.395	22120
888.519	21964
888.643	21983
888.767	22044
888.891	21960
889.015	21857
889.139	21686
889.263	21865
889.387	21865
889.511	22070
889.635	21945
889.759	21857
889.883	21838
890.006	21903
890.13	21850
890.254	21641
890.377	21519
890.501	21507
890.624	21435
890.748	21629
890.871	21378
890.995	21306
891.118	21332
891.241	21294
891.364	21359
891.488	21386
891.611	21382
891.734	21264
891.857	21321
891.98	21291
892.103	21378
892.226	21313
892.349	21294
892.471	21142
892.594	21218
892.717	21264
892.839	21195
892.962	21272
893.085	21241
893.207	21279
893.33	21104
893.452	21127
893.575	21195
893.697	21150
893.819	21340
893.941	21496
894.064	21370
894.186	21268
894.308	21093
894.43	21302
894.552	21264
894.674	21252
894.796	20929
894.918	21123
895.04	21142
895.161	21207
895.283	21325
895.405	21214
895.526	21302
895.648	21135
895.769	21119
895.891	21233
896.012	21256
896.134	21401
896.255	21199
896.376	21180
896.498	21192
896.619	21192
896.74	21142
896.861	21245
896.982	21542
897.103	21671
897.224	21424
897.345	21431
897.466	21397
897.587	21431
897.708	21580
897.828	21374
897.949	21230
898.07	21287
898.19	21355
898.311	21416
898.431	21321
898.552	21370
898.672	21443
898.792	21485
898.913	21393
899.033	21283
899.153	21275
899.273	21180
899.393	21199
899.513	21165
899.633	21165
899.753	21176
899.873	21184
899.993	21043
900.113	21142
900.232	21142
900.352	21043
900.472	20914
900.591	20777
900.711	20906
900.83	20887
900.95	20990
901.069	21020
901.189	20765
901.308	20598
901.427	20473
901.546	20518
901.665	20438
901.784	20313
901.904	20286
902.023	20199
902.141	19925
902.26	20073
902.379	20050
902.498	19944
902.617	19849
902.735	19978
902.854	19906
902.973	19822
903.091	19662
903.21	19582
903.328	19578
903.446	19525
903.565	19510
903.683	19472
903.801	19274
903.919	19377
904.038	19289
904.156	19133
904.274	19335
904.392	19244
904.51	19145
904.627	19164
904.745	19110
904.863	19278
904.981	18977
905.098	18837
905.216	18905
905.334	18871
905.451	18791
905.569	18745
905.686	18852
905.803	18798
905.921	18639
906.038	18738
906.155	18608
906.272	18597
906.389	18456
906.506	18467
906.623	18270
906.74	18380
906.857	18319
906.974	18304
907.091	18350
907.208	18414
907.324	18410
907.441	18266
907.557	18129
907.674	18159
907.79	17996
907.907	18064
908.023	18114
908.139	17965
908.256	18011
908.372	18011
908.488	17916
908.604	17878
908.72	17756
908.836	17760
908.952	17767
909.068	17824
909.184	17901
909.3	17722
909.415	17798
909.531	17901
909.647	17425
909.762	17509
909.878	17478
909.993	17528
910.108	17395
910.224	17455
910.339	17429
910.454	17364
910.57	17250
910.685	17181
910.8	17501
910.915	17383
911.03	17296
911.145	17113
911.259	17025
911.374	17056
911.489	17018
911.604	16839
911.718	16771
911.833	16778
911.947	16763
912.062	16683
912.176	16778
912.291	16809
912.405	16843
912.519	16908
912.633	16915
912.748	16793
912.862	16729
912.976	16649
913.09	16493
913.204	16558
913.318	16596
913.431	16660
913.545	16679
913.659	16679
913.772	16573
913.886	16481
914	16344
914.113	16497
914.226	16512
914.34	16531
914.453	16261
914.566	16333
914.68	16219
914.793	16181
914.906	16082
915.019	15903
915.132	15987
915.245	15941
915.358	15998
915.47	16010
915.583	15895
915.696	15964
915.809	16010
915.921	16067
916.034	15895
916.146	15854
916.259	15819
916.371	15876
916.483	15880
916.595	15835
916.708	15793
916.82	15724
916.932	15819
917.044	15705
917.156	15762
917.268	15663
917.38	15625
917.491	15584
917.603	15564
917.715	15622
917.826	15618
917.938	15450
918.049	15435
918.161	15473
918.272	15610
918.384	15576
918.495	15549
918.606	15408
918.717	15199
918.828	15466
918.939	15272
919.05	15374
919.161	15268
919.272	15077
919.383	15138
919.494	15272
919.604	15504
919.715	15344
919.826	15214
919.936	15294
920.047	15408
920.157	15329
920.267	15420
920.378	15230
920.488	15150
920.598	15481
920.708	15561
920.818	15416
920.928	15386
921.038	15542
921.148	15534
921.258	15249
921.368	15127
921.477	15066
921.587	15001
921.697	14868
921.806	14967
921.916	14804
922.025	14708
922.134	14663
922.244	14712
922.353	14720
922.462	14533
922.571	14461
922.68	14309
922.789	14366
922.898	14164
923.007	14206
923.116	14278
923.224	14164
923.333	14161
923.442	14050
923.55	14024
923.659	14149
923.767	14275
923.876	14035
923.984	14084
924.092	13940
924.201	13978
924.309	13932
924.417	13986
924.525	13894
924.633	13841
924.741	14659
924.849	13784
924.956	13913
925.064	13738
925.172	13537
925.279	13578
925.387	13677
925.494	13643
925.602	13795
925.709	13624
925.816	13594
925.924	13594
926.031	13632
926.138	13548
926.245	13636
926.352	13464
926.459	13571
926.566	13609
926.673	13449
926.779	13441
926.886	13365
926.993	13209
927.099	13244
927.206	13103
927.312	13072
927.419	13149
927.525	13156
927.631	13293
927.737	13084
927.843	13046
927.95	12882
928.056	12966
928.162	12966
928.267	13034
928.373	13647
928.479	12958
928.585	12852
928.69	12932
928.796	12905
928.901	12882
929.007	12612
929.112	12882
929.218	12795
929.323	12639
929.428	12726
929.533	12768
929.638	12669
929.743	12658
929.848	12681
929.953	12608
930.058	12574
930.163	12353
930.267	12388
930.372	12570
930.477	12357
930.581	12574
930.685	12399
930.79	12277
930.894	12285
930.998	12194
931.103	12319
931.207	12019
931.311	11904
931.415	11802
931.519	11653
931.623	11577
