Data from test_V78500241_2436.txt Node
Date: Fri Mar 25 15:58:40 CST 2022
User: usil
Spectrometer: V785-0024
Trigger mode: 0
Integration Time (sec): 4.000000E-1
Scans to average: 1
Nonlinearity correction enabled: false
Boxcar width: 0
Storing dark spectrum: false
XAxis mode: Wavelengths
Number of Pixels in Spectrum: 1024
>>>>>Begin Spectral Data<<<<<
801.071	28862
801.214	28866
801.356	28557
801.499	28440
801.641	28333
801.783	28379
801.926	28432
802.068	28314
802.211	28295
802.353	28276
802.496	28166
802.638	28051
802.78	28070
802.923	27998
803.065	27937
803.208	28063
803.35	27979
803.492	28234
803.635	28394
803.777	28223
803.919	28405
804.061	28691
804.204	28459
804.346	28276
804.488	28097
804.63	28363
804.773	28333
804.915	28382
805.057	28443
805.199	28234
805.341	28561
805.483	28542
805.626	28363
805.768	28356
805.91	28527
806.052	28401
806.194	28344
806.336	28557
806.478	28546
806.62	28599
806.762	28653
806.904	28896
807.046	28984
807.188	28873
807.33	28900
807.472	29060
807.614	28953
807.756	28843
807.898	28725
808.04	28790
808.182	28831
808.324	28752
808.465	28938
808.607	29102
808.749	29216
808.891	29220
809.033	29284
809.174	29067
809.316	29109
809.458	29166
809.6	29147
809.741	29239
809.883	29299
810.025	29440
810.166	29440
810.308	29425
810.45	29315
810.591	29474
810.733	29204
810.875	29132
811.016	29010
811.158	29094
811.299	29303
811.441	29387
811.582	29212
811.724	29174
811.865	29083
812.007	29151
812.148	29037
812.29	29166
812.431	29223
812.573	29493
812.714	29482
812.855	29752
812.997	29760
813.138	29961
813.279	29950
813.421	29821
813.562	29646
813.703	29459
813.845	29444
813.986	29083
814.127	28991
814.268	28820
814.41	28892
814.551	28828
814.692	28938
814.833	28831
814.974	28946
815.115	29006
815.256	28710
815.397	28828
815.539	28694
815.68	28649
815.821	28592
815.962	28698
816.103	28733
816.244	28485
816.385	28500
816.526	28493
816.666	28109
816.807	28287
816.948	28196
817.089	28333
817.23	28325
817.371	28280
817.512	28116
817.653	28291
817.793	28051
817.934	28272
818.075	28192
818.216	28280
818.356	28059
818.497	28029
818.638	27949
818.778	27926
818.919	27930
819.06	27964
819.2	28177
819.341	28265
819.481	28234
819.622	28436
819.762	28584
819.903	28493
820.043	28447
820.184	28291
820.324	28223
820.465	28333
820.605	28394
820.746	28306
820.886	28158
821.026	28287
821.167	28261
821.307	28440
821.447	28124
821.588	28131
821.728	27968
821.868	27778
822.008	27755
822.149	27641
822.289	27751
822.429	27389
822.569	27477
822.709	27332
822.849	27279
822.99	27161
823.13	27272
823.27	27199
823.41	26998
823.55	26925
823.69	27005
823.83	27028
823.97	26940
824.11	26979
824.25	26724
824.389	26758
824.529	26895
824.669	26765
824.809	26823
824.949	26914
825.089	26830
825.228	26842
825.368	26842
825.508	26743
825.648	26720
825.787	26899
825.927	26853
826.067	26579
826.206	26769
826.346	26777
826.485	26716
826.625	26800
826.765	26762
826.904	26739
827.044	26541
827.183	26522
827.323	26415
827.462	26415
827.601	26560
827.741	26480
827.88	26473
828.02	26259
828.159	26476
828.298	26473
828.437	26522
828.577	26317
828.716	26465
828.855	26271
828.994	26164
829.134	26183
829.273	26244
829.412	26206
829.551	26100
829.69	26252
829.829	26183
829.968	26282
830.107	26256
830.246	26020
830.385	26016
830.524	26081
830.663	25944
830.802	25913
830.941	25693
831.08	25742
831.219	25799
831.357	25906
831.496	25769
831.635	25746
831.774	25746
831.913	25666
832.051	25411
832.19	25407
832.329	25567
832.467	25403
832.606	25358
832.744	25388
832.883	25289
833.022	25350
833.16	25403
833.299	25426
833.437	25502
833.576	25472
833.714	25430
833.852	25491
833.991	25552
834.129	25533
834.267	25495
834.406	25514
834.544	25518
834.682	25400
834.821	25396
834.959	25670
835.097	25434
835.235	25434
835.373	25491
835.511	25392
835.65	25274
835.788	25278
835.926	25103
836.064	25152
836.202	25084
836.34	25362
836.478	25430
836.615	25209
836.753	25297
836.891	25339
837.029	25247
837.167	25289
837.305	25171
837.443	25095
837.58	25148
837.718	25050
837.856	25091
837.993	24935
838.131	25065
838.269	25088
838.406	24939
838.544	24913
838.681	24791
838.819	24681
838.956	24589
839.094	24547
839.231	24505
839.369	24688
839.506	25080
839.643	24715
839.781	24585
839.918	24555
840.055	24540
840.193	24563
840.33	24372
840.467	24536
840.604	24433
840.742	24673
840.879	24357
841.016	24471
841.153	24426
841.29	24441
841.427	24334
841.564	24517
841.701	24448
841.838	24395
841.975	24330
842.112	24365
842.249	24262
842.385	24197
842.522	24441
842.659	24247
842.796	24228
842.933	24152
843.069	24190
843.206	24190
843.343	24251
843.479	24251
843.616	24235
843.752	23935
843.889	24022
844.025	24076
844.162	24015
844.298	24087
844.435	23958
844.571	24110
844.708	23992
844.844	24201
844.98	24079
845.117	24106
845.253	23893
845.389	23828
845.525	23988
845.661	23832
845.798	23695
845.934	23859
846.07	23798
846.206	23741
846.342	23729
846.478	23767
846.614	23459
846.75	23239
846.886	23421
847.022	23539
847.158	23535
847.294	23497
847.429	23558
847.565	23455
847.701	23752
847.837	23280
847.972	23307
848.108	23284
848.244	23178
848.379	23033
848.515	23083
848.65	23128
848.786	23067
848.921	23075
849.057	23189
849.192	23220
849.328	22908
849.463	22976
849.598	22972
849.734	22877
849.869	22828
850.004	22869
850.14	22816
850.275	22862
850.41	22546
850.545	22672
850.68	22767
850.815	22869
850.95	22771
851.085	22957
851.22	22877
851.355	22786
851.49	22801
851.625	22816
851.76	22755
851.895	22717
852.03	22733
852.165	22847
852.299	22767
852.434	22866
852.569	22820
852.703	22835
852.838	22831
852.973	22881
853.107	22873
853.242	22828
853.376	22660
853.511	22519
853.645	22523
853.78	22752
853.914	22550
854.048	22679
854.183	22675
854.317	22565
854.451	22824
854.585	22588
854.72	22626
854.854	22702
854.988	22557
855.122	22637
855.256	22474
855.39	22664
855.524	22554
855.658	22725
855.792	22481
855.926	22573
856.06	22653
856.194	22634
856.327	22573
856.461	22557
856.595	22622
856.729	22763
856.862	22668
856.996	22645
857.13	22615
857.263	22744
857.397	22763
857.53	22580
857.664	22580
857.797	22725
857.931	22573
858.064	22668
858.197	22660
858.331	22618
858.464	22637
858.597	22447
858.731	22630
858.864	22630
858.997	22504
859.13	22649
859.263	22557
859.396	22812
859.529	22611
859.662	22675
859.795	22519
859.928	22660
860.061	22786
860.194	22812
860.327	22691
860.46	22546
860.592	22801
860.725	22740
860.858	22687
860.99	22596
861.123	22531
861.256	22641
861.388	22573
861.521	23379
861.653	22459
861.786	22500
861.918	22344
862.05	22470
862.183	22531
862.315	22489
862.447	22656
862.58	22485
862.712	22325
862.844	22272
862.976	22481
863.108	22447
863.24	22717
863.372	22287
863.504	22371
863.636	22333
863.768	22394
863.9	22409
864.032	22261
864.164	22291
864.296	22306
864.428	22363
864.559	22466
864.691	22344
864.823	22348
864.954	22299
865.086	22207
865.217	22234
865.349	22261
865.48	22242
865.612	22230
865.743	22253
865.875	22211
866.006	22063
866.137	22352
866.269	22070
866.4	22109
866.531	22070
866.662	21991
866.793	22150
866.924	22078
867.055	22055
867.186	22211
867.317	22097
867.448	22101
867.579	22116
867.71	21956
867.841	22128
867.972	22067
868.103	22067
868.233	22116
868.364	22082
868.495	22303
868.625	22280
868.756	22409
868.886	22314
869.017	22204
869.147	22500
869.278	22375
869.408	22363
869.539	22363
869.669	22394
869.799	22462
869.929	22519
870.06	22417
870.19	22573
870.32	22584
870.45	22683
870.58	22801
870.71	22805
870.84	22847
870.97	22660
871.1	22687
871.23	22869
871.36	23029
871.489	22736
871.619	22908
871.749	22892
871.879	22987
872.008	22919
872.138	23010
872.267	22938
872.397	22923
872.526	22816
872.656	22793
872.785	22816
872.915	22984
873.044	23143
873.173	23010
873.303	23018
873.432	23010
873.561	23197
873.69	22984
873.819	23006
873.948	23056
874.077	22927
874.206	22972
874.335	22987
874.464	23296
874.593	23265
874.722	23204
874.851	23204
874.979	23242
875.108	23204
875.237	23037
875.365	23025
875.494	23090
875.623	23178
875.751	23216
875.88	23239
876.008	23345
876.136	23395
876.265	23520
876.393	23760
876.521	23642
876.65	23592
876.778	23474
876.906	23596
877.034	23452
877.162	23699
877.29	23577
877.418	23638
877.546	23512
877.674	23551
877.802	23512
877.93	23566
878.058	23531
878.185	23429
878.313	23459
878.441	23493
878.568	23220
878.696	23486
878.824	23444
878.951	23486
879.079	23627
879.206	23863
879.333	23767
879.461	23455
879.588	23615
879.715	23649
879.842	23779
879.97	23752
880.097	23417
880.224	23311
880.351	23440
880.478	23341
880.605	23303
880.732	23402
880.859	23608
880.986	23322
881.112	23414
881.239	23197
881.366	23208
881.493	23022
881.619	22972
881.746	22942
881.872	22919
881.999	22972
882.125	22847
882.252	22953
882.378	22809
882.505	23029
882.631	22748
882.757	22561
882.883	22641
883.01	22588
883.136	22512
883.262	22447
883.388	22348
883.514	22577
883.64	22603
883.766	22432
883.892	22371
884.018	22424
884.143	22557
884.269	22573
884.395	22333
884.52	22242
884.646	22295
884.772	22177
884.897	22181
885.023	22192
885.148	22223
885.274	22421
885.399	22192
885.524	22154
885.65	22379
885.775	22169
885.9	22177
886.025	22310
886.15	22284
886.275	22158
886.4	22002
886.525	22162
886.65	22067
886.775	22109
886.9	22329
887.025	22367
887.149	22173
887.274	22074
887.399	21918
887.523	22032
887.648	22021
887.773	21937
887.897	22101
888.021	21964
888.146	21812
888.27	22025
888.395	22010
888.519	21968
888.643	21937
888.767	21949
888.891	21854
889.015	21736
889.139	21793
889.263	21728
889.387	21930
889.511	21941
889.635	21873
889.759	21637
889.883	21698
890.006	21781
890.13	21873
890.254	21755
890.377	21701
890.501	21488
890.624	21530
890.748	21545
890.871	21367
890.995	21321
891.118	21294
891.241	21321
891.364	21237
891.488	21408
891.611	21359
891.734	21237
891.857	21279
891.98	21237
892.103	21348
892.226	21207
892.349	21135
892.471	21058
892.594	21161
892.717	21173
892.839	21154
892.962	21233
893.085	21275
893.207	21188
893.33	21096
893.452	21176
893.575	21245
893.697	21283
893.819	21355
893.941	21386
894.064	21332
894.186	21157
894.308	21150
894.43	21203
894.552	21359
894.674	21321
894.796	21135
894.918	21195
895.04	21161
895.161	21165
895.283	21211
895.405	21043
895.526	21211
895.648	21173
895.769	21275
895.891	21222
896.012	21093
896.134	21108
896.255	21184
896.376	21070
896.498	21294
896.619	21169
896.74	21222
896.861	21222
896.982	21359
897.103	21561
897.224	21412
897.345	21275
897.466	21272
897.587	21367
897.708	21473
897.828	21386
897.949	21230
898.07	21218
898.19	21272
898.311	21549
898.431	21325
898.552	21340
898.672	21504
898.792	21363
898.913	21408
899.033	21230
899.153	21157
899.273	20994
899.393	21222
899.513	21112
899.633	21081
899.753	21108
899.873	20982
899.993	21081
900.113	21100
900.232	21180
900.352	21047
900.472	20918
900.591	20906
900.711	20918
900.83	20876
900.95	20933
901.069	20948
901.189	20811
901.308	20442
901.427	20457
901.546	20522
901.665	20465
901.784	20454
901.904	20298
902.023	20259
902.141	20035
902.26	19963
902.379	19963
902.498	19871
902.617	19997
902.735	19970
902.854	19795
902.973	19799
903.091	19655
903.21	19651
903.328	19605
903.446	19464
903.565	19369
903.683	19411
903.801	19244
903.919	19316
904.038	19388
904.156	19206
904.274	19194
904.392	19122
904.51	19110
904.627	19080
904.745	19270
904.863	19209
904.981	18894
905.098	18795
905.216	18779
905.334	18798
905.451	18894
905.569	18802
905.686	18753
905.803	18757
905.921	18570
906.038	18684
906.155	18715
906.272	18475
906.389	18513
906.506	18391
906.623	18277
906.74	18270
906.857	18205
906.974	18292
907.091	18330
907.208	18399
907.324	18254
907.441	18205
907.557	18064
907.674	18106
907.79	17984
907.907	17988
908.023	18057
908.139	17965
908.256	17935
908.372	18015
908.488	17916
908.604	17828
908.72	17737
908.836	17843
908.952	17863
909.068	17703
909.184	17813
909.3	17760
909.415	17764
909.531	17615
909.647	17493
909.762	17414
909.878	17471
909.993	17410
910.108	17444
910.224	17227
910.339	17463
910.454	17303
910.57	17250
910.685	17181
910.8	17452
910.915	17360
911.03	17261
911.145	17041
911.259	17022
911.374	17079
911.489	16968
911.604	16869
911.718	16881
911.833	16744
911.947	16706
912.062	16618
912.176	16759
912.291	16683
912.405	16801
912.519	16976
912.633	16835
912.748	16816
912.862	16691
912.976	16569
913.09	16493
913.204	16596
913.318	16535
913.431	16622
913.545	16691
913.659	16664
913.772	16504
913.886	16333
914	16325
914.113	16447
914.226	16409
914.34	16409
914.453	16200
914.566	16348
914.68	16219
914.793	16173
914.906	15937
915.019	15941
915.132	15895
915.245	15934
915.358	16006
915.47	15960
915.583	15998
915.696	15945
915.809	16063
915.921	16188
916.034	15922
916.146	15865
916.259	15808
916.371	15838
916.483	15915
916.595	15770
916.708	15770
916.82	15785
916.932	15720
917.044	15755
917.156	15629
917.268	15572
917.38	15713
917.491	15584
917.603	15637
917.715	15713
917.826	15618
917.938	15397
918.049	15355
918.161	15485
918.272	15625
918.384	15660
918.495	15485
918.606	15386
918.717	15275
918.828	15329
918.939	15260
919.05	15165
919.161	15264
919.272	15077
919.383	15218
919.494	15363
919.604	15500
919.715	15230
919.826	15214
919.936	15157
920.047	15294
920.157	15176
920.267	15405
920.378	15283
920.488	15131
920.598	15443
920.708	15530
920.818	15310
920.928	15351
921.038	15534
921.148	15416
921.258	15211
921.368	15135
921.477	15009
921.587	14925
921.697	14743
921.806	14910
921.916	14731
922.025	14564
922.134	14667
922.244	14583
922.353	14655
922.462	14499
922.571	14488
922.68	14278
922.789	14294
922.898	14332
923.007	14244
923.116	14282
923.224	14153
923.333	14180
923.442	14157
923.55	14020
923.659	14168
923.767	14145
923.876	14046
923.984	14077
924.092	13864
924.201	14008
924.309	13978
924.417	13944
924.525	13887
924.633	13868
924.741	14606
924.849	13689
924.956	13784
925.064	13582
925.172	13510
925.279	13632
925.387	13681
925.494	13624
925.602	13681
925.709	13723
925.816	13491
925.924	13487
926.031	13651
926.138	13575
926.245	13499
926.352	13483
926.459	13685
926.566	13540
926.673	13419
926.779	13297
926.886	13324
926.993	13209
927.099	13156
927.206	13118
927.312	13034
927.419	13221
927.525	13080
927.631	13171
927.737	13164
927.843	12989
927.95	12916
928.056	12932
928.162	12962
928.267	12993
928.373	13704
928.479	12981
928.585	12730
928.69	12939
928.796	12856
928.901	12757
929.007	12711
929.112	12753
929.218	12764
929.323	12749
929.428	12681
929.533	12787
929.638	12623
929.743	12631
929.848	12692
929.953	12635
930.058	12448
930.163	12323
930.267	12304
930.372	12418
930.477	12315
930.581	12578
930.685	12353
930.79	12254
930.894	12258
930.998	12144
931.103	12357
931.207	12038
931.311	11851
931.415	11775
931.519	11604
931.623	11570
