Data from test_V78500241_1485.txt Node
Date: Fri Mar 25 15:52:05 CST 2022
User: usil
Spectrometer: V785-0024
Trigger mode: 0
Integration Time (sec): 4.000000E-1
Scans to average: 1
Nonlinearity correction enabled: false
Boxcar width: 0
Storing dark spectrum: false
XAxis mode: Wavelengths
Number of Pixels in Spectrum: 1024
>>>>>Begin Spectral Data<<<<<
801.071	28002
801.214	27918
801.356	27720
801.499	27694
801.641	27610
801.783	27469
801.926	27709
802.068	27515
802.211	27519
802.353	27477
802.496	27131
802.638	27245
802.78	27241
802.923	27066
803.065	27150
803.208	27104
803.35	27096
803.492	27367
803.635	27447
803.777	27218
803.919	27340
804.061	27637
804.204	27389
804.346	27275
804.488	27313
804.63	27393
804.773	27275
804.915	27321
805.057	27572
805.199	27458
805.341	27466
805.483	27629
805.626	27511
805.768	27374
805.91	27466
806.052	27549
806.194	27412
806.336	27808
806.478	27500
806.62	27515
806.762	27701
806.904	27739
807.046	27949
807.188	27914
807.33	27994
807.472	27953
807.614	28017
807.756	27892
807.898	27793
808.04	27747
808.182	27766
808.324	27812
808.465	27880
808.607	28036
808.749	28253
808.891	28230
809.033	28375
809.174	28246
809.316	28306
809.458	28112
809.6	28154
809.741	28341
809.883	28436
810.025	28310
810.166	28436
810.308	28466
810.45	28489
810.591	28325
810.733	28379
810.875	28234
811.016	27964
811.158	28002
811.299	28196
811.441	28417
811.582	28234
811.724	28185
811.865	28249
812.007	28044
812.148	28139
812.29	28181
812.431	28367
812.573	28447
812.714	28500
812.855	28664
812.997	28816
813.138	28854
813.279	28965
813.421	28721
813.562	28721
813.703	28592
813.845	28322
813.986	28173
814.127	28021
814.268	27903
814.41	27880
814.551	27709
814.692	27991
814.833	27869
814.974	27880
815.115	27827
815.256	27724
815.397	27717
815.539	27835
815.68	27739
815.821	27591
815.962	27572
816.103	27751
816.244	27614
816.385	27408
816.526	27473
816.666	27222
816.807	27161
816.948	27260
817.089	27348
817.23	27203
817.371	27108
817.512	27233
817.653	27249
817.793	27169
817.934	27218
818.075	27237
818.216	27245
818.356	27123
818.497	27077
818.638	27009
818.778	26872
818.919	26914
819.06	26994
819.2	27195
819.341	27112
819.481	27188
819.622	27332
819.762	27466
819.903	27443
820.043	27306
820.184	27260
820.324	27363
820.465	27363
820.605	27363
820.746	27367
820.886	27207
821.026	27245
821.167	27154
821.307	27222
821.447	27218
821.588	27017
821.728	26838
821.868	26769
822.008	26811
822.149	26583
822.289	26564
822.429	26488
822.569	26229
822.709	26267
822.849	26092
822.99	26214
823.13	26187
823.27	26005
823.41	25986
823.55	25814
823.69	25898
823.83	26172
823.97	25921
824.11	25708
824.25	25757
824.389	25871
824.529	25822
824.669	25814
824.809	26001
824.949	25932
825.089	25875
825.228	25788
825.368	25677
825.508	25540
825.648	25613
825.787	25772
825.927	25750
826.067	25791
826.206	25647
826.346	25704
826.485	25651
826.625	25548
826.765	25738
826.904	25662
827.044	25434
827.183	25362
827.323	25388
827.462	25392
827.601	25365
827.741	25392
827.88	25343
828.02	25187
828.159	25339
828.298	25278
828.437	25430
828.577	25320
828.716	25453
828.855	25312
828.994	24943
829.134	25122
829.273	25202
829.412	25053
829.551	25057
829.69	25175
829.829	25129
829.968	25255
830.107	25053
830.246	25107
830.385	24913
830.524	25057
830.663	24863
830.802	24821
830.941	24738
831.08	24582
831.219	24821
831.357	24741
831.496	24859
831.635	24764
831.774	24433
831.913	24566
832.051	24376
832.19	24490
832.329	24486
832.467	24414
832.606	24304
832.744	24270
832.883	24308
833.022	24365
833.16	24380
833.299	24502
833.437	24353
833.576	24407
833.714	24403
833.852	24517
833.991	24460
834.129	24456
834.267	24475
834.406	24467
834.544	24289
834.682	24437
834.821	24304
834.959	24544
835.097	24285
835.235	24483
835.373	24281
835.511	24410
835.65	24285
835.788	24277
835.926	24098
836.064	24125
836.202	24121
836.34	24224
836.478	24308
836.615	24315
836.753	24296
836.891	24346
837.029	24235
837.167	24300
837.305	24125
837.443	24060
837.58	24114
837.718	24171
837.856	24064
837.993	24068
838.131	23961
838.269	23969
838.406	23958
838.544	23980
838.681	23737
838.819	23843
838.956	23627
839.094	23524
839.231	23524
839.369	23623
839.506	23996
839.643	23779
839.781	23535
839.918	23379
840.055	23554
840.193	23611
840.33	23364
840.467	23505
840.604	23490
840.742	23771
840.879	23337
841.016	23391
841.153	23280
841.29	23528
841.427	23387
841.564	23417
841.701	23463
841.838	23463
841.975	23376
842.112	23402
842.249	23299
842.385	23193
842.522	23440
842.659	23246
842.796	23208
842.933	23254
843.069	23151
843.206	23121
843.343	23235
843.479	23204
843.616	23364
843.752	23022
843.889	22930
844.025	23105
844.162	22957
844.298	23208
844.435	22930
844.571	22908
844.708	22946
844.844	23048
844.98	23113
845.117	22995
845.253	22847
845.389	22949
845.525	22881
845.661	22847
845.798	22698
845.934	22691
846.07	22694
846.206	22828
846.342	22790
846.478	22535
846.614	22462
846.75	22409
846.886	22421
847.022	22531
847.158	22436
847.294	22382
847.429	22443
847.565	22443
847.701	22641
847.837	22150
847.972	22105
848.108	22257
848.244	22204
848.379	22105
848.515	21998
848.65	21994
848.786	22093
848.921	21979
849.057	22253
849.192	22116
849.328	22051
849.463	22074
849.598	22055
849.734	22067
849.869	21884
850.004	21781
850.14	21907
850.275	21819
850.41	21694
850.545	21797
850.68	21759
850.815	21953
850.95	21816
851.085	21979
851.22	21994
851.355	21842
851.49	21854
851.625	21751
851.76	21736
851.895	21751
852.03	21694
852.165	21926
852.299	21739
852.434	21979
852.569	21892
852.703	21816
852.838	21876
852.973	21930
853.107	21892
853.242	21812
853.376	21698
853.511	21572
853.645	21656
853.78	21823
853.914	21709
854.048	21652
854.183	21606
854.317	21743
854.451	21747
854.585	21606
854.72	21633
854.854	21739
854.988	21648
855.122	21713
855.256	21511
855.39	21629
855.524	21724
855.658	21667
855.792	21690
855.926	21762
856.06	21781
856.194	21751
856.327	21663
856.461	21534
856.595	21629
856.729	21637
856.862	21656
856.996	21675
857.13	21679
857.263	21724
857.397	21667
857.53	21713
857.664	21660
857.797	21679
857.931	21743
858.064	21808
858.197	21823
858.331	21625
858.464	21644
858.597	21656
858.731	21679
858.864	21751
858.997	21625
859.13	21717
859.263	21774
859.396	21751
859.529	21606
859.662	21682
859.795	21694
859.928	21629
860.061	21762
860.194	21876
860.327	21800
860.46	21656
860.592	21819
860.725	21739
860.858	21766
860.99	21717
861.123	21576
861.256	21538
861.388	21713
861.521	22242
861.653	21466
861.786	21504
861.918	21595
862.05	21523
862.183	21447
862.315	21637
862.447	21633
862.58	21717
862.712	21351
862.844	21256
862.976	21534
863.108	21317
863.24	21793
863.372	21344
863.504	21367
863.636	21416
863.768	21443
863.9	21447
864.032	21214
864.164	21393
864.296	21485
864.428	21355
864.559	21530
864.691	21378
864.823	21447
864.954	21332
865.086	21348
865.217	21367
865.349	21173
865.48	21374
865.612	21207
865.743	21439
865.875	21195
866.006	21302
866.137	21325
866.269	21317
866.4	21230
866.531	21127
866.662	21096
866.793	21138
866.924	21195
867.055	21249
867.186	21321
867.317	21192
867.448	21024
867.579	21207
867.71	21070
867.841	21096
867.972	21241
868.103	21188
868.233	21249
868.364	21203
868.495	21272
868.625	21447
868.756	21652
868.886	21176
869.017	21378
869.147	21500
869.278	21458
869.408	21424
869.539	21504
869.669	21564
869.799	21629
869.929	21538
870.06	21564
870.19	21713
870.32	21682
870.45	21816
870.58	21804
870.71	22029
870.84	21918
870.97	21911
871.1	21800
871.23	21838
871.36	21934
871.489	21907
871.619	21949
871.749	21994
871.879	22070
872.008	22078
872.138	21987
872.267	21960
872.397	21831
872.526	21899
872.656	21819
872.785	21709
872.915	22051
873.044	22051
873.173	22002
873.303	22105
873.432	22078
873.561	22150
873.69	22101
873.819	22150
873.948	22207
874.077	22097
874.206	22029
874.335	22048
874.464	22219
874.593	22280
874.722	22253
874.851	22280
874.979	22344
875.108	22402
875.237	22295
875.365	22147
875.494	22162
875.623	22348
875.751	22242
875.88	22291
876.008	22432
876.136	22580
876.265	22694
876.393	22793
876.521	22664
876.65	22702
876.778	22786
876.906	22691
877.034	22645
877.162	22641
877.29	22622
877.418	22603
877.546	22664
877.674	22672
877.802	22577
877.93	22554
878.058	22668
878.185	22424
878.313	22596
878.441	22615
878.568	22451
878.696	22557
878.824	22649
878.951	22637
879.079	22824
879.206	22976
879.333	22812
879.461	22771
879.588	22664
879.715	22858
879.842	22972
879.97	22736
880.097	22481
880.224	22478
880.351	22470
880.478	22413
880.605	22306
880.732	22478
880.859	22664
880.986	22428
881.112	22462
881.239	22329
881.366	22097
881.493	22086
881.619	22093
881.746	22032
881.872	22082
881.999	21983
882.125	22002
882.252	22029
882.378	22055
882.505	22082
882.631	21819
882.757	21736
882.883	21880
883.01	21690
883.136	21679
883.262	21606
883.388	21633
883.514	21762
883.64	21713
883.766	21648
883.892	21435
884.018	21424
884.143	21580
884.269	21686
884.395	21443
884.52	21272
884.646	21378
884.772	21283
884.897	21329
885.023	21378
885.148	21420
885.274	21447
885.399	21523
885.524	21370
885.65	21351
885.775	21287
885.9	21332
886.025	21431
886.15	21469
886.275	21378
886.4	21245
886.525	21367
886.65	21184
886.775	21321
886.9	21382
887.025	21485
887.149	21260
887.274	21211
887.399	21222
887.523	21077
887.648	21093
887.773	21020
887.897	21089
888.021	21070
888.146	21024
888.27	21279
888.395	21161
888.519	21131
888.643	21203
888.767	21161
888.891	20994
889.015	20800
889.139	21043
889.263	20845
889.387	21051
889.511	21226
889.635	21032
889.759	20929
889.883	20891
890.006	20842
890.13	20994
890.254	20834
890.377	20853
890.501	20792
890.624	20727
890.748	20667
890.871	20598
890.995	20465
891.118	20541
891.241	20484
891.364	20511
891.488	20575
891.611	20480
891.734	20564
891.857	20499
891.98	20427
892.103	20488
892.226	20533
892.349	20431
892.471	20343
892.594	20454
892.717	20465
892.839	20298
892.962	20438
893.085	20526
893.207	20336
893.33	20206
893.452	20313
893.575	20374
893.697	20305
893.819	20488
893.941	20537
894.064	20530
894.186	20320
894.308	20202
894.43	20450
894.552	20469
894.674	20393
894.796	20298
894.918	20282
895.04	20286
895.161	20396
895.283	20393
895.405	20271
895.526	20412
895.648	20309
895.769	20294
895.891	20488
896.012	20377
896.134	20507
896.255	20400
896.376	20431
896.498	20393
896.619	20396
896.74	20514
896.861	20313
896.982	20579
897.103	20785
897.224	20697
897.345	20575
897.466	20571
897.587	20575
897.708	20804
897.828	20579
897.949	20492
898.07	20488
898.19	20602
898.311	20621
898.431	20484
898.552	20648
898.672	20617
898.792	20743
898.913	20617
899.033	20377
899.153	20385
899.273	20210
899.393	20301
899.513	20362
899.633	20324
899.753	20396
899.873	20355
899.993	20442
900.113	20259
900.232	20237
900.352	20317
900.472	20111
900.591	20096
900.711	20240
900.83	19974
900.95	20088
901.069	20259
901.189	19959
901.308	19761
901.427	19616
901.546	19597
901.665	19681
901.784	19708
901.904	19632
902.023	19419
902.141	19335
902.26	19225
902.379	19324
902.498	19190
902.617	19156
902.735	19171
902.854	19038
902.973	19110
903.091	18837
903.21	18806
903.328	18916
903.446	18730
903.565	18757
903.683	18688
903.801	18483
903.919	18673
904.038	18570
904.156	18418
904.274	18452
904.392	18315
904.51	18429
904.627	18315
904.745	18403
904.863	18391
904.981	18171
905.098	18053
905.216	18140
905.334	18072
905.451	18136
905.569	18034
905.686	18213
905.803	18091
905.921	17855
906.038	17851
906.155	17882
906.272	17821
906.389	17798
906.506	17611
906.623	17638
906.74	17509
906.857	17512
906.974	17562
907.091	17710
907.208	17802
907.324	17672
907.441	17509
907.557	17463
907.674	17364
907.79	17387
907.907	17368
908.023	17383
908.139	17341
908.256	17299
908.372	17189
908.488	17239
908.604	17117
908.72	16930
908.836	17025
908.952	17006
909.068	17018
909.184	17052
909.3	17071
909.415	17006
909.531	17086
909.647	16824
909.762	16755
909.878	16790
909.993	16744
910.108	16713
910.224	16698
910.339	16828
910.454	16637
910.57	16531
910.685	16470
910.8	16923
910.915	16649
911.03	16531
911.145	16424
911.259	16413
911.374	16466
911.489	16280
911.604	16177
911.718	16135
911.833	16101
911.947	16086
912.062	15865
912.176	16101
912.291	16048
912.405	16116
912.519	16379
912.633	16242
912.748	16124
912.862	16105
912.976	15915
913.09	15774
913.204	15945
913.318	15960
913.431	15983
913.545	16032
913.659	15968
913.772	15854
913.886	15789
914	15614
914.113	15857
914.226	15724
914.34	15816
914.453	15652
914.566	15793
914.68	15564
914.793	15572
914.906	15332
915.019	15340
915.132	15173
915.245	15313
915.358	15306
915.47	15355
915.583	15203
915.696	15272
915.809	15336
915.921	15424
916.034	15192
916.146	15169
916.259	15157
916.371	15256
916.483	15233
916.595	15192
916.708	15112
916.82	15184
916.932	15005
917.044	15074
917.156	14960
917.268	14895
917.38	15058
917.491	15001
917.603	15009
917.715	15013
917.826	15051
917.938	14937
918.049	14743
918.161	14899
918.272	15017
918.384	15093
918.495	14910
918.606	14765
918.717	14659
918.828	14800
918.939	14811
919.05	14640
919.161	14735
919.272	14393
919.383	14598
919.494	14640
919.604	14933
919.715	14739
919.826	14678
919.936	14598
920.047	14758
920.157	14606
920.267	14929
920.378	14648
920.488	14617
920.598	14826
920.708	15028
920.818	14895
920.928	14739
921.038	14998
921.148	14982
921.258	14689
921.368	14541
921.477	14514
921.587	14400
921.697	14301
921.806	14419
921.916	14301
922.025	14130
922.134	14050
922.244	14046
922.353	14088
922.462	13928
922.571	13875
922.68	13746
922.789	13795
922.898	13833
923.007	13700
923.116	13765
923.224	13719
923.333	13708
923.442	13601
923.55	13537
923.659	13723
923.767	13499
923.876	13540
923.984	13655
924.092	13384
924.201	13499
924.309	13426
924.417	13472
924.525	13400
924.633	13320
924.741	14294
924.849	13187
924.956	13217
925.064	13171
925.172	13110
925.279	13126
925.387	13114
925.494	13095
925.602	13225
925.709	13251
925.816	13095
925.924	13084
926.031	13080
926.138	13053
926.245	13164
926.352	12901
926.459	13175
926.566	13156
926.673	12878
926.779	12970
926.886	12897
926.993	12768
927.099	12677
927.206	12578
927.312	12665
927.419	12673
927.525	12726
927.631	12753
927.737	12662
927.843	12593
927.95	12460
928.056	12532
928.162	12513
928.267	12570
928.373	13221
928.479	12601
928.585	12327
928.69	12433
928.796	12410
928.901	12327
929.007	12304
929.112	12433
929.218	12319
929.323	12330
929.428	12235
929.533	12334
929.638	12133
929.743	12273
929.848	12262
929.953	12129
930.058	12026
930.163	11916
930.267	11950
930.372	11973
930.477	11866
930.581	12095
930.685	11950
930.79	11802
930.894	11817
930.998	11775
931.103	11893
931.207	11524
931.311	11463
931.415	11372
931.519	11216
931.623	11159
