Data from test_V78500241_2636.txt Node
Date: Fri Mar 25 16:00:03 CST 2022
User: usil
Spectrometer: V785-0024
Trigger mode: 0
Integration Time (sec): 4.000000E-1
Scans to average: 1
Nonlinearity correction enabled: false
Boxcar width: 0
Storing dark spectrum: false
XAxis mode: Wavelengths
Number of Pixels in Spectrum: 1024
>>>>>Begin Spectral Data<<<<<
801.071	28923
801.214	28927
801.356	28664
801.499	28565
801.641	28615
801.783	28596
801.926	28542
802.068	28592
802.211	28512
802.353	28531
802.496	28329
802.638	28284
802.78	28192
802.923	27987
803.065	28093
803.208	28299
803.35	28181
803.492	28413
803.635	28561
803.777	28272
803.919	28557
804.061	28771
804.204	28561
804.346	28390
804.488	28474
804.63	28481
804.773	28474
804.915	28656
805.057	28687
805.199	28443
805.341	28554
805.483	28782
805.626	28637
805.768	28592
805.91	28687
806.052	28675
806.194	28611
806.336	28835
806.478	28691
806.62	28664
806.762	28968
806.904	29109
807.046	29140
807.188	29292
807.33	29147
807.472	29231
807.614	29143
807.756	29105
807.898	29052
808.04	28930
808.182	28904
808.324	28919
808.465	29159
808.607	29299
808.749	29562
808.891	29448
809.033	29535
809.174	29421
809.316	29383
809.458	29360
809.6	29318
809.741	29444
809.883	29448
810.025	29802
810.166	29741
810.308	29657
810.45	29649
810.591	29562
810.733	29364
810.875	29547
811.016	29280
811.158	29436
811.299	29448
811.441	29577
811.582	29398
811.724	29398
811.865	29280
812.007	29322
812.148	29467
812.29	29570
812.431	29611
812.573	29642
812.714	29901
812.855	29908
812.997	29999
813.138	30095
813.279	30079
813.421	29832
813.562	29798
813.703	29691
813.845	29604
813.986	29368
814.127	29239
814.268	29193
814.41	29197
814.551	29086
814.692	29197
814.833	29117
814.974	29124
815.115	29136
815.256	28965
815.397	28930
815.539	29060
815.68	28987
815.821	28976
815.962	28904
816.103	29037
816.244	28900
816.385	28725
816.526	28706
816.666	28459
816.807	28508
816.948	28607
817.089	28611
817.23	28443
817.371	28459
817.512	28512
817.653	28394
817.793	28405
817.934	28325
818.075	28508
818.216	28447
818.356	28314
818.497	28295
818.638	28230
818.778	28166
818.919	28299
819.06	28223
819.2	28344
819.341	28413
819.481	28546
819.622	28630
819.762	28900
819.903	28755
820.043	28527
820.184	28565
820.324	28527
820.465	28542
820.605	28508
820.746	28603
820.886	28493
821.026	28523
821.167	28462
821.307	28752
821.447	28550
821.588	28424
821.728	28310
821.868	28124
822.008	28059
822.149	27964
822.289	27850
822.429	27720
822.569	27557
822.709	27652
822.849	27538
822.99	27408
823.13	27359
823.27	27447
823.41	27241
823.55	27192
823.69	27199
823.83	27241
823.97	27233
824.11	27100
824.25	27066
824.389	27123
824.529	27089
824.669	27066
824.809	27298
824.949	27096
825.089	27173
825.228	27104
825.368	26929
825.508	26937
825.648	27047
825.787	27150
825.927	26979
826.067	26842
826.206	27074
826.346	27074
826.485	26982
826.625	26967
826.765	27074
826.904	27093
827.044	26708
827.183	26712
827.323	26609
827.462	26674
827.601	26731
827.741	26682
827.88	26796
828.02	26602
828.159	26571
828.298	26785
828.437	26864
828.577	26667
828.716	26708
828.855	26545
828.994	26434
829.134	26423
829.273	26347
829.412	26214
829.551	26317
829.69	26290
829.829	26389
829.968	26492
830.107	26476
830.246	26453
830.385	26431
830.524	26290
830.663	26233
830.802	26062
830.941	25837
831.08	25879
831.219	26035
831.357	26088
831.496	26130
831.635	25970
831.774	25849
831.913	25902
832.051	25723
832.19	25700
832.329	25799
832.467	25552
832.606	25677
832.744	25537
832.883	25670
833.022	25681
833.16	25693
833.299	25601
833.437	25712
833.576	25723
833.714	25704
833.852	25811
833.991	25784
834.129	25963
834.267	25811
834.406	25635
834.544	25719
834.682	25666
834.821	25635
834.959	25890
835.097	25704
835.235	25769
835.373	25784
835.511	25677
835.65	25571
835.788	25662
835.926	25373
836.064	25377
836.202	25472
836.34	25533
836.478	25578
836.615	25468
836.753	25578
836.891	25643
837.029	25620
837.167	25491
837.305	25518
837.443	25525
837.58	25327
837.718	25556
837.856	25407
837.993	25324
838.131	25297
838.269	25194
838.406	25247
838.544	25244
838.681	25012
838.819	25023
838.956	24833
839.094	24943
839.231	24833
839.369	25031
839.506	25232
839.643	25164
839.781	24722
839.918	24833
840.055	24730
840.193	24783
840.33	24692
840.467	24776
840.604	24886
840.742	24924
840.879	24601
841.016	24749
841.153	24528
841.29	24745
841.427	24677
841.564	24734
841.701	24711
841.838	24665
841.975	24757
842.112	24612
842.249	24623
842.385	24578
842.522	24715
842.659	24528
842.796	24498
842.933	24292
843.069	24292
843.206	24311
843.343	24582
843.479	24604
843.616	24513
843.752	24418
843.889	24136
844.025	24429
844.162	24292
844.298	24365
844.435	24251
844.571	24205
844.708	24232
844.844	24410
844.98	24376
845.117	24319
845.253	24133
845.389	24205
845.525	24136
845.661	24121
845.798	24079
845.934	24155
846.07	23965
846.206	23954
846.342	24117
846.478	23939
846.614	23786
846.75	23703
846.886	23672
847.022	23798
847.158	23718
847.294	23851
847.429	23733
847.565	23767
847.701	23809
847.837	23539
847.972	23440
848.108	23627
848.244	23524
848.379	23414
848.515	23265
848.65	23170
848.786	23364
848.921	23204
849.057	23436
849.192	23417
849.328	23345
849.463	23200
849.598	23155
849.734	23265
849.869	23132
850.004	23090
850.14	23189
850.275	23060
850.41	23025
850.545	23044
850.68	22934
850.815	23155
850.95	23132
851.085	23315
851.22	23124
851.355	23003
851.49	23018
851.625	23086
851.76	23067
851.895	22949
852.03	23094
852.165	22995
852.299	23018
852.434	23086
852.569	22972
852.703	22984
852.838	23067
852.973	23162
853.107	23071
853.242	23003
853.376	22908
853.511	22797
853.645	22771
853.78	22919
853.914	22858
854.048	22820
854.183	22839
854.317	22923
854.451	23056
854.585	22946
854.72	22881
854.854	22946
854.988	22885
855.122	22847
855.256	22771
855.39	22831
855.524	22942
855.658	23003
855.792	22850
855.926	22862
856.06	22904
856.194	22968
856.327	22881
856.461	22786
856.595	22847
856.729	22843
856.862	22980
856.996	22866
857.13	22965
857.263	22984
857.397	23029
857.53	22831
857.664	22881
857.797	22953
857.931	23086
858.064	22911
858.197	22938
858.331	22771
858.464	22637
858.597	22778
858.731	22866
858.864	22889
858.997	22919
859.13	22919
859.263	22831
859.396	22927
859.529	22885
859.662	22831
859.795	22854
859.928	22934
860.061	22911
860.194	23079
860.327	22904
860.46	23003
860.592	23037
860.725	23041
860.858	23060
860.99	22961
861.123	22793
861.256	22683
861.388	22774
861.521	23657
861.653	22774
861.786	22710
861.918	22740
862.05	22706
862.183	22782
862.315	22771
862.447	22862
862.58	22828
862.712	22580
862.844	22557
862.976	22622
863.108	22645
863.24	23006
863.372	22584
863.504	22573
863.636	22637
863.768	22653
863.9	22462
864.032	22580
864.164	22512
864.296	22577
864.428	22721
864.559	22618
864.691	22691
864.823	22656
864.954	22653
865.086	22523
865.217	22344
865.349	22219
865.48	22481
865.612	22459
865.743	22653
865.875	22474
866.006	22249
866.137	22337
866.269	22470
866.4	22523
866.531	22497
866.662	22322
866.793	22367
866.924	22325
867.055	22371
867.186	22428
867.317	22333
867.448	22284
867.579	22379
867.71	22375
867.841	22421
867.972	22459
868.103	22306
868.233	22379
868.364	22329
868.495	22447
868.625	22550
868.756	22664
868.886	22596
869.017	22542
869.147	22672
869.278	22828
869.408	22611
869.539	22653
869.669	22702
869.799	22679
869.929	22782
870.06	22778
870.19	22896
870.32	22839
870.45	22915
870.58	23022
870.71	23056
870.84	23090
870.97	22976
871.1	23037
871.23	23178
871.36	23254
871.489	23132
871.619	23200
871.749	23246
871.879	23326
872.008	23395
872.138	23235
872.267	23162
872.397	22995
872.526	23132
872.656	23052
872.785	23067
872.915	23216
873.044	23402
873.173	23288
873.303	23353
873.432	23322
873.561	23398
873.69	23181
873.819	23223
873.948	23299
874.077	23121
874.206	23136
874.335	23231
874.464	23318
874.593	23490
874.722	23322
874.851	23539
874.979	23520
875.108	23539
875.237	23436
875.365	23258
875.494	23414
875.623	23421
875.751	23459
875.88	23421
876.008	23562
876.136	23668
876.265	23760
876.393	24041
876.521	23920
876.65	23942
876.778	23840
876.906	23821
877.034	23802
877.162	23657
877.29	23718
877.418	23714
877.546	23863
877.674	23737
877.802	23786
877.93	23802
878.058	23657
878.185	23634
878.313	23680
878.441	23585
878.568	23638
878.696	23745
878.824	23805
878.951	23859
879.079	23916
879.206	24163
879.333	23942
879.461	23813
879.588	23969
879.715	23897
879.842	23977
879.97	23916
880.097	23558
880.224	23592
880.351	23634
880.478	23600
880.605	23627
880.732	23558
880.859	23821
880.986	23634
881.112	23566
881.239	23448
881.366	23353
881.493	23258
881.619	23140
881.746	23162
881.872	23166
881.999	23181
882.125	23140
882.252	23212
882.378	23113
882.505	23208
882.631	22995
882.757	22843
882.883	22953
883.01	22908
883.136	22759
883.262	22736
883.388	22542
883.514	22873
883.64	22866
883.766	22801
883.892	22565
884.018	22702
884.143	22748
884.269	22782
884.395	22481
884.52	22409
884.646	22360
884.772	22424
884.897	22382
885.023	22459
885.148	22569
885.274	22622
885.399	22622
885.524	22421
885.65	22424
885.775	22531
885.9	22322
886.025	22596
886.15	22630
886.275	22531
886.4	22291
886.525	22337
886.65	22352
886.775	22424
886.9	22459
887.025	22706
887.149	22295
887.274	22238
887.399	22215
887.523	22287
887.648	22112
887.773	22070
887.897	22246
888.021	22211
888.146	22128
888.27	22310
888.395	22173
888.519	22261
888.643	22318
888.767	22230
888.891	22150
889.015	21949
889.139	21956
889.263	21895
889.387	22093
889.511	22284
889.635	22093
889.759	21953
889.883	21972
890.006	21960
890.13	22093
890.254	21816
890.377	21869
890.501	21747
890.624	21701
890.748	21804
890.871	21500
890.995	21507
891.118	21469
891.241	21644
891.364	21511
891.488	21606
891.611	21614
891.734	21572
891.857	21507
891.98	21431
892.103	21542
892.226	21549
892.349	21511
892.471	21363
892.594	21386
892.717	21447
892.839	21504
892.962	21325
893.085	21507
893.207	21439
893.33	21252
893.452	21359
893.575	21367
893.697	21408
893.819	21469
893.941	21488
894.064	21599
894.186	21416
894.308	21386
894.43	21462
894.552	21603
894.674	21363
894.796	21306
894.918	21374
895.04	21431
895.161	21447
895.283	21473
895.405	21367
895.526	21492
895.648	21450
895.769	21412
895.891	21412
896.012	21389
896.134	21386
896.255	21408
896.376	21363
896.498	21397
896.619	21211
896.74	21321
896.861	21435
896.982	21583
897.103	21781
897.224	21660
897.345	21572
897.466	21450
897.587	21564
897.708	21766
897.828	21637
897.949	21549
898.07	21416
898.19	21580
898.311	21770
898.431	21454
898.552	21507
898.672	21633
898.792	21606
898.913	21504
899.033	21530
899.153	21268
899.273	21306
899.393	21348
899.513	21378
899.633	21256
899.753	21336
899.873	21176
899.993	21348
900.113	21272
900.232	21222
900.352	21169
900.472	21127
900.591	21070
900.711	21066
900.83	20971
900.95	21096
901.069	21009
901.189	20944
901.308	20708
901.427	20693
901.546	20583
901.665	20724
901.784	20590
901.904	20446
902.023	20328
902.141	20271
902.26	20153
902.379	20191
902.498	20103
902.617	20092
902.735	20012
902.854	20077
902.973	20130
903.091	19727
903.21	19822
903.328	19818
903.446	19696
903.565	19677
903.683	19578
903.801	19533
903.919	19544
904.038	19419
904.156	19365
904.274	19472
904.392	19434
904.51	19362
904.627	19381
904.745	19392
904.863	19472
904.981	19099
905.098	18939
905.216	18970
905.334	19019
905.451	19034
905.569	18966
905.686	18966
905.803	18920
905.921	18753
906.038	18890
906.155	18878
906.272	18700
906.389	18757
906.506	18582
906.623	18498
906.74	18506
906.857	18353
906.974	18426
907.091	18506
907.208	18582
907.324	18570
907.441	18486
907.557	18292
907.674	18254
907.79	18232
907.907	18174
908.023	18315
908.139	18292
908.256	18209
908.372	18171
908.488	18102
908.604	17942
908.72	17923
908.836	17969
908.952	17893
909.068	18011
909.184	18106
909.3	17950
909.415	17946
909.531	17920
909.647	17642
909.762	17623
909.878	17619
909.993	17646
910.108	17509
910.224	17516
910.339	17566
910.454	17539
910.57	17433
910.685	17417
910.8	17608
910.915	17634
911.03	17471
911.145	17223
911.259	17265
911.374	17216
911.489	17143
911.604	17102
911.718	17045
911.833	16957
911.947	16930
912.062	16778
912.176	16862
912.291	16991
912.405	16946
912.519	17071
912.633	17140
912.748	17052
912.862	16828
912.976	16729
913.09	16767
913.204	16679
913.318	16736
913.431	16835
913.545	16858
913.659	16816
913.772	16569
913.886	16672
914	16550
914.113	16592
914.226	16634
914.34	16607
914.453	16386
914.566	16641
914.68	16504
914.793	16363
914.906	16242
915.019	16124
915.132	16086
915.245	16093
915.358	16059
915.47	16040
915.583	16169
915.696	16112
915.809	16211
915.921	16280
916.034	16002
916.146	15983
916.259	16006
916.371	16147
916.483	16006
916.595	15968
916.708	15964
916.82	15873
916.932	15854
917.044	15911
917.156	15720
917.268	15743
917.38	15724
917.491	15709
917.603	15728
917.715	15732
917.826	15789
917.938	15694
918.049	15515
918.161	15667
918.272	15789
918.384	15823
918.495	15637
918.606	15553
918.717	15389
918.828	15488
918.939	15336
919.05	15279
919.161	15454
919.272	15272
919.383	15359
919.494	15412
919.604	15648
919.715	15363
919.826	15321
919.936	15351
920.047	15557
920.157	15348
920.267	15564
920.378	15370
920.488	15306
920.598	15618
920.708	15637
920.818	15576
920.928	15462
921.038	15751
921.148	15656
921.258	15424
921.368	15310
921.477	15127
921.587	15074
921.697	14979
921.806	15123
921.916	14956
922.025	14853
922.134	14872
922.244	14689
922.353	14701
922.462	14632
922.571	14530
922.68	14450
922.789	14370
922.898	14484
923.007	14328
923.116	14381
923.224	14381
923.333	14389
923.442	14218
923.55	14221
923.659	14275
923.767	14370
923.876	14206
923.984	14229
924.092	14191
924.201	14043
924.309	14164
924.417	14172
924.525	14164
924.633	14107
924.741	15077
924.849	13917
924.956	13947
925.064	13807
925.172	13742
925.279	13826
925.387	13761
925.494	13849
925.602	13921
925.709	13811
925.816	13658
925.924	13750
926.031	13731
926.138	13647
926.245	13624
926.352	13628
926.459	13704
926.566	13803
926.673	13628
926.779	13578
926.886	13495
926.993	13445
927.099	13312
927.206	13251
927.312	13236
927.419	13335
927.525	13381
927.631	13285
927.737	13206
927.843	13171
927.95	13057
928.056	13110
928.162	13183
928.267	13312
928.373	13670
928.479	13278
928.585	12958
928.69	13088
928.796	13069
928.901	12993
929.007	12821
929.112	12989
929.218	12977
929.323	12905
929.428	12768
929.533	12996
929.638	12745
929.743	12852
929.848	12798
929.953	12837
930.058	12719
930.163	12509
930.267	12574
930.372	12635
930.477	12460
930.581	12604
930.685	12441
930.79	12414
930.894	12353
930.998	12384
931.103	12483
931.207	12125
931.311	12110
931.415	11901
931.519	11813
931.623	11764
