Data from test_V78500241_736.txt Node
Date: Fri Mar 25 15:46:54 CST 2022
User: usil
Spectrometer: V785-0024
Trigger mode: 0
Integration Time (sec): 4.000000E-1
Scans to average: 1
Nonlinearity correction enabled: false
Boxcar width: 0
Storing dark spectrum: false
XAxis mode: Wavelengths
Number of Pixels in Spectrum: 1024
>>>>>Begin Spectral Data<<<<<
801.071	28238
801.214	27975
801.356	27914
801.499	27755
801.641	27667
801.783	27705
801.926	27667
802.068	27652
802.211	27599
802.353	27538
802.496	27348
802.638	27386
802.78	27218
802.923	27329
803.065	27138
803.208	27408
803.35	27447
803.492	27557
803.635	27557
803.777	27275
803.919	27473
804.061	27759
804.204	27553
804.346	27462
804.488	27351
804.63	27675
804.773	27412
804.915	27511
805.057	27595
805.199	27534
805.341	27629
805.483	27736
805.626	27694
805.768	27545
805.91	27686
806.052	27797
806.194	27648
806.336	27793
806.478	27778
806.62	27732
806.762	27690
806.904	28006
807.046	28177
807.188	28219
807.33	28112
807.472	28291
807.614	28051
807.756	28074
807.898	27983
808.04	27873
808.182	27850
808.324	27953
808.465	28051
808.607	28181
808.749	28329
808.891	28497
809.033	28474
809.174	28386
809.316	28356
809.458	28371
809.6	28413
809.741	28504
809.883	28535
810.025	28630
810.166	28542
810.308	28645
810.45	28584
810.591	28478
810.733	28443
810.875	28386
811.016	28287
811.158	28356
811.299	28322
811.441	28557
811.582	28584
811.724	28337
811.865	28314
812.007	28386
812.148	28284
812.29	28401
812.431	28462
812.573	28850
812.714	28774
812.855	28942
812.997	29052
813.138	29128
813.279	29029
813.421	28919
813.562	28908
813.703	28736
813.845	28637
813.986	28390
814.127	28139
814.268	27979
814.41	28112
814.551	28101
814.692	28112
814.833	27941
814.974	28131
815.115	28078
815.256	27922
815.397	27926
815.539	27941
815.68	27797
815.821	27690
815.962	27838
816.103	27812
816.244	27724
816.385	27743
816.526	27648
816.666	27458
816.807	27386
816.948	27298
817.089	27466
817.23	27408
817.371	27344
817.512	27359
817.653	27378
817.793	27378
817.934	27382
818.075	27447
818.216	27367
818.356	27161
818.497	27336
818.638	27150
818.778	27112
818.919	27264
819.06	27123
819.2	27363
819.341	27378
819.481	27252
819.622	27500
819.762	27660
819.903	27622
820.043	27557
820.184	27473
820.324	27530
820.465	27439
820.605	27504
820.746	27401
820.886	27435
821.026	27507
821.167	27435
821.307	27458
821.447	27382
821.588	27424
821.728	27233
821.868	26952
822.008	26826
822.149	26849
822.289	26739
822.429	26644
822.569	26366
822.709	26450
822.849	26495
822.99	26400
823.13	26446
823.27	26305
823.41	26263
823.55	26153
823.69	26077
823.83	26256
823.97	26107
824.11	25966
824.25	26016
824.389	25986
824.529	26107
824.669	26046
824.809	26168
824.949	26073
825.089	26115
825.228	26031
825.368	25887
825.508	25932
825.648	25845
825.787	25906
825.927	25917
826.067	25951
826.206	25940
826.346	25986
826.485	25856
826.625	25658
826.765	26069
826.904	25845
827.044	25662
827.183	25609
827.323	25597
827.462	25662
827.601	25674
827.741	25308
827.88	25620
828.02	25445
828.159	25571
828.298	25647
828.437	25628
828.577	25575
828.716	25757
828.855	25514
828.994	25308
829.134	25301
829.273	25236
829.412	25274
829.551	25236
829.69	25293
829.829	25453
829.968	25343
830.107	25377
830.246	25308
830.385	25118
830.524	25171
830.663	25034
830.802	25034
830.941	24810
831.08	24886
831.219	24985
831.357	25008
831.496	25126
831.635	24932
831.774	24776
831.913	24692
832.051	24783
832.19	24738
832.329	24650
832.467	24574
832.606	24532
832.744	24441
832.883	24650
833.022	24612
833.16	24593
833.299	24635
833.437	24563
833.576	24646
833.714	24646
833.852	24608
833.991	24734
834.129	24661
834.267	24673
834.406	24646
834.544	24749
834.682	24726
834.821	24559
834.959	24738
835.097	24517
835.235	24646
835.373	24498
835.511	24570
835.65	24525
835.788	24467
835.926	24319
836.064	24178
836.202	24292
836.34	24429
836.478	24540
836.615	24410
836.753	24460
836.891	24578
837.029	24376
837.167	24429
837.305	24273
837.443	24334
837.58	24167
837.718	24182
837.856	24277
837.993	24308
838.131	24262
838.269	24152
838.406	24125
838.544	24102
838.681	23893
838.819	23927
838.956	23722
839.094	23802
839.231	24011
839.369	23809
839.506	24106
839.643	24060
839.781	23745
839.918	23661
840.055	23741
840.193	23722
840.33	23634
840.467	23665
840.604	23665
840.742	23916
840.879	23573
841.016	23531
841.153	23528
841.29	23771
841.427	23646
841.564	23665
841.701	23714
841.838	23684
841.975	23509
842.112	23600
842.249	23535
842.385	23551
842.522	23604
842.659	23459
842.796	23349
842.933	23372
843.069	23303
843.206	23379
843.343	23436
843.479	23349
843.616	23410
843.752	23200
843.889	23147
844.025	23292
844.162	23193
844.298	23170
844.435	23147
844.571	23216
844.708	23185
844.844	23261
844.98	23288
845.117	23280
845.253	23204
845.389	23048
845.525	23022
845.661	22934
845.798	22816
845.934	22968
846.07	22866
846.206	23033
846.342	22980
846.478	22843
846.614	22702
846.75	22573
846.886	22519
847.022	22733
847.158	22729
847.294	22679
847.429	22691
847.565	22489
847.701	22919
847.837	22493
847.972	22379
848.108	22497
848.244	22504
848.379	22322
848.515	22249
848.65	22253
848.786	22253
848.921	22143
849.057	22230
849.192	22493
849.328	22344
849.463	22310
849.598	22162
849.734	22139
849.869	22044
850.004	21903
850.14	22036
850.275	21975
850.41	21956
850.545	21934
850.68	21949
850.815	22048
850.95	21926
851.085	22230
851.22	22055
851.355	22105
851.49	21998
851.625	22002
851.76	21941
851.895	21831
852.03	21941
852.165	22059
852.299	21979
852.434	22131
852.569	21819
852.703	21865
852.838	22032
852.973	22097
853.107	22112
853.242	21907
853.376	21835
853.511	21819
853.645	21736
853.78	21949
853.914	21762
854.048	21701
854.183	21831
854.317	21804
854.451	22097
854.585	21922
854.72	21759
854.854	21861
854.988	21766
855.122	21751
855.256	21701
855.39	21717
855.524	21915
855.658	21850
855.792	21857
855.926	21857
856.06	21911
856.194	21888
856.327	21819
856.461	21724
856.595	21800
856.729	21732
856.862	21823
856.996	21903
857.13	21823
857.263	21903
857.397	21911
857.53	21789
857.664	21793
857.797	21892
857.931	21949
858.064	21816
858.197	21907
858.331	21785
858.464	21816
858.597	21625
858.731	21762
858.864	21808
858.997	21739
859.13	21766
859.263	21842
859.396	21937
859.529	21717
859.662	21953
859.795	21781
859.928	21953
860.061	21956
860.194	22131
860.327	21831
860.46	21797
860.592	21934
860.725	22086
860.858	21991
860.99	21918
861.123	21873
861.256	21736
861.388	21797
861.521	22497
861.653	21663
861.786	21583
861.918	21652
862.05	21759
862.183	21827
862.315	21713
862.447	21884
862.58	21865
862.712	21580
862.844	21500
862.976	21553
863.108	21637
863.24	22185
863.372	21591
863.504	21591
863.636	21599
863.768	21561
863.9	21572
864.032	21424
864.164	21420
864.296	21526
864.428	21648
864.559	21652
864.691	21690
864.823	21545
864.954	21572
865.086	21523
865.217	21458
865.349	21408
865.48	21412
865.612	21519
865.743	21679
865.875	21637
866.006	21473
866.137	21454
866.269	21344
866.4	21439
866.531	21431
866.662	21435
866.793	21329
866.924	21351
867.055	21340
867.186	21405
867.317	21344
867.448	21329
867.579	21408
867.71	21287
867.841	21336
867.972	21382
868.103	21393
868.233	21325
868.364	21408
868.495	21473
868.625	21690
868.756	21671
868.886	21485
869.017	21553
869.147	21751
869.278	21606
869.408	21690
869.539	21637
869.669	21762
869.799	21648
869.929	21663
870.06	21781
870.19	21857
870.32	21819
870.45	21899
870.58	21960
870.71	22036
870.84	22196
870.97	21998
871.1	21876
871.23	22200
871.36	22207
871.489	22196
871.619	22276
871.749	22265
871.879	22261
872.008	22200
872.138	22150
872.267	22192
872.397	22109
872.526	21949
872.656	22029
872.785	21972
872.915	22268
873.044	22234
873.173	22200
873.303	22360
873.432	22333
873.561	22398
873.69	22310
873.819	22226
873.948	22306
874.077	22234
874.206	22287
874.335	22230
874.464	22363
874.593	22485
874.722	22478
874.851	22443
874.979	22417
875.108	22489
875.237	22436
875.365	22341
875.494	22455
875.623	22565
875.751	22443
875.88	22379
876.008	22523
876.136	22603
876.265	22812
876.393	22949
876.521	22976
876.65	22862
876.778	22786
876.906	22774
877.034	22717
877.162	22908
877.29	22736
877.418	22824
877.546	22877
877.674	22767
877.802	22752
877.93	22744
878.058	22790
878.185	22713
878.313	22809
878.441	22782
878.568	22645
878.696	22748
878.824	22790
878.951	22911
879.079	23033
879.206	23079
879.333	22911
879.461	22843
879.588	22797
879.715	23033
879.842	22968
879.97	22904
880.097	22710
880.224	22641
880.351	22668
880.478	22546
880.605	22618
880.732	22664
880.859	22847
880.986	22683
881.112	22641
881.239	22538
881.366	22413
881.493	22352
881.619	22322
881.746	22063
881.872	22192
881.999	22128
882.125	22070
882.252	22200
882.378	22135
882.505	22238
882.631	21964
882.757	21770
882.883	22101
883.01	21861
883.136	21816
883.262	21785
883.388	21759
883.514	21873
883.64	21873
883.766	21808
883.892	21724
884.018	21622
884.143	21690
884.269	21884
884.395	21466
884.52	21500
884.646	21454
884.772	21367
884.897	21363
885.023	21488
885.148	21663
885.274	21583
885.399	21644
885.524	21447
885.65	21629
885.775	21557
885.9	21424
886.025	21549
886.15	21564
886.275	21545
886.4	21473
886.525	21477
886.65	21443
886.775	21382
886.9	21618
887.025	21709
887.149	21454
887.274	21218
887.399	21184
887.523	21252
887.648	21176
887.773	21146
887.897	21374
888.021	21397
888.146	21199
888.27	21351
888.395	21344
888.519	21256
888.643	21397
888.767	21287
888.891	21321
889.015	21077
889.139	21142
889.263	20952
889.387	21104
889.511	21169
889.635	21180
889.759	20956
889.883	20937
890.006	21009
890.13	21169
890.254	20986
890.377	20998
890.501	20857
890.624	20777
890.748	20895
890.871	20712
890.995	20629
891.118	20617
891.241	20617
891.364	20583
891.488	20724
891.611	20545
891.734	20644
891.857	20720
891.98	20708
892.103	20674
892.226	20720
892.349	20518
892.471	20442
892.594	20556
892.717	20644
892.839	20518
892.962	20613
893.085	20564
893.207	20590
893.33	20454
893.452	20492
893.575	20518
893.697	20568
893.819	20609
893.941	20587
894.064	20682
894.186	20507
894.308	20301
894.43	20598
894.552	20689
894.674	20560
894.796	20358
894.918	20533
895.04	20480
895.161	20621
895.283	20537
895.405	20476
895.526	20503
895.648	20473
895.769	20613
895.891	20571
896.012	20492
896.134	20541
896.255	20552
896.376	20522
896.498	20450
896.619	20457
896.74	20560
896.861	20549
896.982	20861
897.103	20929
897.224	20807
897.345	20762
897.466	20674
897.587	20686
897.708	20944
897.828	20712
897.949	20781
898.07	20678
898.19	20606
898.311	20834
898.431	20613
898.552	20712
898.672	20842
898.792	20834
898.913	20651
899.033	20575
899.153	20480
899.273	20423
899.393	20408
899.513	20503
899.633	20484
899.753	20469
899.873	20446
899.993	20476
900.113	20434
900.232	20259
900.352	20286
900.472	20259
900.591	20252
900.711	20290
900.83	20187
900.95	20396
901.069	20457
901.189	20187
901.308	19898
901.427	19750
901.546	19963
901.665	19868
901.784	19746
901.904	19655
902.023	19613
902.141	19354
902.26	19335
902.379	19476
902.498	19362
902.617	19350
902.735	19316
902.854	19316
902.973	19236
903.091	18966
903.21	18993
903.328	18947
903.446	18973
903.565	18787
903.683	18890
903.801	18700
903.919	18798
904.038	18696
904.156	18604
904.274	18593
904.392	18471
904.51	18536
904.627	18563
904.745	18692
904.863	18513
904.981	18372
905.098	18117
905.216	18262
905.334	18277
905.451	18186
905.569	18296
905.686	18209
905.803	18262
905.921	18098
906.038	18159
906.155	18072
906.272	18003
906.389	18007
906.506	17893
906.623	17722
906.74	17726
906.857	17623
906.974	17680
907.091	17779
907.208	17786
907.324	17809
907.441	17684
907.557	17543
907.674	17524
907.79	17436
907.907	17429
908.023	17471
908.139	17478
908.256	17292
908.372	17273
908.488	17376
908.604	17296
908.72	17235
908.836	17239
908.952	17204
909.068	17216
909.184	17341
909.3	17239
909.415	17242
909.531	17132
909.647	16820
909.762	16904
909.878	16778
909.993	16904
910.108	16877
910.224	16790
910.339	16949
910.454	16706
910.57	16691
910.685	16660
910.8	16980
910.915	16881
911.03	16649
911.145	16554
911.259	16546
911.374	16580
911.489	16523
911.604	16261
911.718	16242
911.833	16394
911.947	16135
912.062	16093
912.176	16223
912.291	16192
912.405	16230
912.519	16402
912.633	16352
912.748	16166
912.862	16105
912.976	16021
913.09	15888
913.204	16017
913.318	16025
913.431	16185
913.545	16071
913.659	16097
913.772	15941
913.886	15812
914	15808
914.113	15888
914.226	15922
914.34	15846
914.453	15610
914.566	15945
914.68	15762
914.793	15694
914.906	15515
915.019	15397
915.132	15332
915.245	15393
915.358	15542
915.47	15542
915.583	15450
915.696	15443
915.809	15534
915.921	15587
916.034	15382
916.146	15389
916.259	15306
916.371	15416
916.483	15344
916.595	15241
916.708	15268
916.82	15211
916.932	15241
917.044	15302
917.156	15093
917.268	15028
917.38	15165
917.491	15001
917.603	15066
917.715	15119
917.826	15116
917.938	15013
918.049	14872
918.161	15055
918.272	15230
918.384	15135
918.495	15009
918.606	14948
918.717	14857
918.828	14804
918.939	14750
919.05	14724
919.161	14842
919.272	14670
919.383	14743
919.494	14944
919.604	14986
919.715	14788
919.826	14670
919.936	14838
920.047	14845
920.157	14758
920.267	14899
920.378	14804
920.488	14682
920.598	14975
920.708	15135
920.818	14918
920.928	14982
921.038	15108
921.148	15047
921.258	14765
921.368	14537
921.477	14545
921.587	14537
921.697	14362
921.806	14526
921.916	14427
922.025	14153
922.134	14145
922.244	14161
922.353	14180
922.462	14058
922.571	13970
922.68	13833
922.789	13795
922.898	13765
923.007	13822
923.116	13807
923.224	13746
923.333	13799
923.442	13628
923.55	13540
923.659	13609
923.767	13609
923.876	13582
923.984	13643
924.092	13464
924.201	13529
924.309	13510
924.417	13540
924.525	13438
924.633	13392
924.741	14404
924.849	13259
924.956	13430
925.064	13236
925.172	13171
925.279	13209
925.387	13171
925.494	13179
925.602	13255
925.709	13274
925.816	13129
925.924	13149
926.031	13327
926.138	13141
926.245	13141
926.352	13088
926.459	13198
926.566	13110
926.673	13069
926.779	12935
926.886	12954
926.993	12764
927.099	12738
927.206	12825
927.312	12719
927.419	12791
927.525	12776
927.631	12768
927.737	12623
927.843	12673
927.95	12528
928.056	12612
928.162	12585
928.267	12673
928.373	13194
928.479	12669
928.585	12467
928.69	12589
928.796	12642
928.901	12475
929.007	12384
929.112	12414
929.218	12391
929.323	12460
929.428	12327
929.533	12441
929.638	12216
929.743	12380
929.848	12342
929.953	12315
930.058	12194
930.163	12022
930.267	11920
930.372	12213
930.477	12007
930.581	12102
930.685	12011
930.79	11817
930.894	11904
930.998	11870
931.103	12026
931.207	11691
931.311	11490
931.415	11528
931.519	11277
931.623	11269
