Data from test_V78500241_1978.txt Node
Date: Fri Mar 25 15:55:30 CST 2022
User: usil
Spectrometer: V785-0024
Trigger mode: 0
Integration Time (sec): 4.000000E-1
Scans to average: 1
Nonlinearity correction enabled: false
Boxcar width: 0
Storing dark spectrum: false
XAxis mode: Wavelengths
Number of Pixels in Spectrum: 1024
>>>>>Begin Spectral Data<<<<<
801.071	27781
801.214	27435
801.356	27348
801.499	27268
801.641	27169
801.783	27058
801.926	27237
802.068	27169
802.211	27051
802.353	27074
802.496	26895
802.638	26727
802.78	26743
802.923	26746
803.065	26708
803.208	26686
803.35	26838
803.492	26853
803.635	26975
803.777	26880
803.919	26982
804.061	27389
804.204	27138
804.346	27020
804.488	26872
804.63	26944
804.773	26967
804.915	27180
805.057	27154
805.199	26887
805.341	27176
805.483	27226
805.626	27020
805.768	27112
805.91	26990
806.052	27211
806.194	26956
806.336	27416
806.478	27245
806.62	27066
806.762	27222
806.904	27367
807.046	27656
807.188	27507
807.33	27557
807.472	27595
807.614	27500
807.756	27549
807.898	27447
808.04	27313
808.182	27344
808.324	27416
808.465	27397
808.607	27698
808.749	27850
808.891	27956
809.033	27774
809.174	27774
809.316	27671
809.458	27698
809.6	27739
809.741	27682
809.883	27979
810.025	27953
810.166	27949
810.308	27865
810.45	27838
810.591	27835
810.733	27728
810.875	27587
811.016	27557
811.158	27759
811.299	27823
811.441	27797
811.582	27888
811.724	27701
811.865	27610
812.007	27660
812.148	27743
812.29	27911
812.431	27774
812.573	28040
812.714	28082
812.855	28162
812.997	28390
813.138	28447
813.279	28325
813.421	28246
813.562	28143
813.703	28036
813.845	27918
813.986	27625
814.127	27542
814.268	27450
814.41	27424
814.551	27469
814.692	27408
814.833	27275
814.974	27492
815.115	27534
815.256	27264
815.397	27260
815.539	27317
815.68	27264
815.821	27108
815.962	27249
816.103	27260
816.244	26986
816.385	27032
816.526	26975
816.666	26838
816.807	26636
816.948	26819
817.089	26891
817.23	26682
817.371	26571
817.512	26769
817.653	26667
817.793	26686
817.934	26511
818.075	26864
818.216	26724
818.356	26587
818.497	26552
818.638	26453
818.778	26389
818.919	26423
819.06	26495
819.2	26632
819.341	26609
819.481	26720
819.622	26739
819.762	26975
819.903	26891
820.043	26804
820.184	26906
820.324	26773
820.465	26929
820.605	26804
820.746	26667
820.886	26773
821.026	26819
821.167	26735
821.307	26716
821.447	26708
821.588	26564
821.728	26465
821.868	26221
822.008	26107
822.149	26103
822.289	26092
822.429	25894
822.569	25799
822.709	25788
822.849	25693
822.99	25616
823.13	25696
823.27	25571
823.41	25479
823.55	25419
823.69	25544
823.83	25518
823.97	25358
824.11	25255
824.25	25278
824.389	25316
824.529	25415
824.669	25415
824.809	25358
824.949	25335
825.089	25384
825.228	25324
825.368	25057
825.508	25126
825.648	25046
825.787	25297
825.927	25171
826.067	25168
826.206	25107
826.346	25282
826.485	25236
826.625	25088
826.765	25324
826.904	25122
827.044	25034
827.183	25038
827.323	24882
827.462	24962
827.601	24977
827.741	24935
827.88	24935
828.02	24905
828.159	24905
828.298	24829
828.437	24894
828.577	24734
828.716	24913
828.855	24848
828.994	24665
829.134	24604
829.273	24677
829.412	24509
829.551	24620
829.69	24589
829.829	24601
829.968	24635
830.107	24753
830.246	24646
830.385	24566
830.524	24422
830.663	24380
830.802	24171
830.941	24254
831.08	24144
831.219	24247
831.357	24232
831.496	24292
831.635	24201
831.774	24129
831.913	24083
832.051	24159
832.19	23992
832.329	23893
832.467	23855
832.606	23794
832.744	23748
832.883	23863
833.022	23764
833.16	23733
833.299	23866
833.437	23843
833.576	23741
833.714	23874
833.852	23794
833.991	23927
834.129	23840
834.267	23931
834.406	23980
834.544	23828
834.682	23897
834.821	23920
834.959	24095
835.097	23920
835.235	23939
835.373	23863
835.511	23961
835.65	23737
835.788	23821
835.926	23676
836.064	23638
836.202	23672
836.34	23760
836.478	23771
836.615	23805
836.753	23733
836.891	23771
837.029	23817
837.167	23729
837.305	23684
837.443	23676
837.58	23581
837.718	23638
837.856	23452
837.993	23634
838.131	23596
838.269	23436
838.406	23440
838.544	23417
838.681	23223
838.819	23288
838.956	23006
839.094	23117
839.231	23086
839.369	23193
839.506	23425
839.643	23395
839.781	23121
839.918	23037
840.055	23064
840.193	23086
840.33	23006
840.467	23041
840.604	23041
840.742	23303
840.879	22896
841.016	22919
841.153	22866
841.29	23102
841.427	22892
841.564	22976
841.701	22953
841.838	22831
841.975	22786
842.112	22847
842.249	22862
842.385	22717
842.522	22911
842.659	22828
842.796	22744
842.933	22820
843.069	22694
843.206	22630
843.343	22850
843.479	22793
843.616	22721
843.752	22542
843.889	22523
844.025	22561
844.162	22462
844.298	22607
844.435	22542
844.571	22466
844.708	22493
844.844	22599
844.98	22588
845.117	22588
845.253	22405
845.389	22367
845.525	22436
845.661	22204
845.798	22314
845.934	22253
846.07	22303
846.206	22348
846.342	22356
846.478	22131
846.614	22017
846.75	21876
846.886	22120
847.022	21953
847.158	22074
847.294	21998
847.429	22048
847.565	22070
847.701	22219
847.837	21717
847.972	21648
848.108	21797
848.244	21823
848.379	21580
848.515	21606
848.65	21606
848.786	21587
848.921	21553
849.057	21660
849.192	21637
849.328	21633
849.463	21656
849.598	21519
849.734	21481
849.869	21504
850.004	21370
850.14	21310
850.275	21272
850.41	21291
850.545	21161
850.68	21294
850.815	21389
850.95	21313
851.085	21447
851.22	21485
851.355	21279
851.49	21313
851.625	21256
851.76	21294
851.895	21252
852.03	21135
852.165	21279
852.299	21218
852.434	21386
852.569	21294
852.703	21397
852.838	21386
852.973	21485
853.107	21431
853.242	21382
853.376	21123
853.511	21070
853.645	21135
853.78	21310
853.914	21085
854.048	21154
854.183	21207
854.317	21154
854.451	21325
854.585	21268
854.72	21104
854.854	21279
854.988	21157
855.122	21127
855.256	21009
855.39	21154
855.524	21203
855.658	21146
855.792	21169
855.926	21100
856.06	21085
856.194	21268
856.327	21085
856.461	21089
856.595	21093
856.729	21222
856.862	21214
856.996	21226
857.13	21161
857.263	21252
857.397	21241
857.53	21169
857.664	21279
857.797	21249
857.931	21241
858.064	21226
858.197	21249
858.331	21157
858.464	21169
858.597	21119
858.731	21154
858.864	21116
858.997	21127
859.13	21135
859.263	21313
859.396	21157
859.529	21268
859.662	21180
859.795	21104
859.928	21127
860.061	21279
860.194	21294
860.327	21222
860.46	21241
860.592	21332
860.725	21313
860.858	21298
860.99	21218
861.123	21142
861.256	21138
861.388	21302
861.521	21827
861.653	21020
861.786	20956
861.918	20895
862.05	20937
862.183	21207
862.315	21077
862.447	21146
862.58	21119
862.712	20933
862.844	20899
862.976	20963
863.108	20849
863.24	21367
863.372	20864
863.504	20739
863.636	20937
863.768	20910
863.9	20853
864.032	20689
864.164	20815
864.296	21013
864.428	20960
864.559	20872
864.691	20921
864.823	20918
864.954	20857
865.086	20857
865.217	20800
865.349	20731
865.48	20880
865.612	20815
865.743	20967
865.875	20857
866.006	20777
866.137	20735
866.269	20792
866.4	20746
866.531	20655
866.662	20705
866.793	20727
866.924	20705
867.055	20708
867.186	20746
867.317	20689
867.448	20636
867.579	20720
867.71	20670
867.841	20579
867.972	20750
868.103	20556
868.233	20765
868.364	20663
868.495	20830
868.625	20891
868.756	21131
868.886	20826
869.017	20948
869.147	20986
869.278	21123
869.408	21020
869.539	20982
869.669	20979
869.799	21017
869.929	21108
870.06	21009
870.19	21268
870.32	21275
870.45	21336
870.58	21374
870.71	21481
870.84	21393
870.97	21336
871.1	21397
871.23	21572
871.36	21580
871.489	21504
871.619	21496
871.749	21572
871.879	21595
872.008	21641
872.138	21599
872.267	21447
872.397	21344
872.526	21473
872.656	21382
872.785	21374
872.915	21572
873.044	21679
873.173	21614
873.303	21610
873.432	21553
873.561	21618
873.69	21595
873.819	21545
873.948	21701
874.077	21542
874.206	21583
874.335	21629
874.464	21572
874.593	21926
874.722	21781
874.851	21739
874.979	21956
875.108	21713
875.237	21819
875.365	21728
875.494	21778
875.623	21846
875.751	21785
875.88	21941
876.008	21915
876.136	21930
876.265	22154
876.393	22344
876.521	22158
876.65	22246
876.778	22101
876.906	22154
877.034	22135
877.162	22234
877.29	22169
877.418	22173
877.546	22226
877.674	22124
877.802	22086
877.93	22101
878.058	22158
878.185	22032
878.313	22074
878.441	22196
878.568	22013
878.696	22010
878.824	22223
878.951	22226
879.079	22284
879.206	22447
879.333	22318
879.461	22303
879.588	22356
879.715	22306
879.842	22402
879.97	22276
880.097	21987
880.224	22021
880.351	21907
880.478	22013
880.605	21975
880.732	22017
880.859	22280
880.986	21960
881.112	22040
881.239	21793
881.366	21778
881.493	21675
881.619	21454
881.746	21610
881.872	21515
881.999	21667
882.125	21485
882.252	21705
882.378	21568
882.505	21686
882.631	21450
882.757	21317
882.883	21283
883.01	21203
883.136	21203
883.262	21100
883.388	21070
883.514	21340
883.64	21214
883.766	21199
883.892	21020
884.018	21017
884.143	21169
884.269	21317
884.395	21081
884.52	20921
884.646	20826
884.772	20792
884.897	20815
885.023	20891
885.148	20925
885.274	20963
885.399	20982
885.524	20902
885.65	20902
885.775	20906
885.9	20918
886.025	20876
886.15	20971
886.275	20891
886.4	20864
886.525	20853
886.65	20754
886.775	20899
886.9	21017
887.025	20956
887.149	20880
887.274	20712
887.399	20693
887.523	20777
887.648	20670
887.773	20526
887.897	20689
888.021	20682
888.146	20663
888.27	20811
888.395	20701
888.519	20739
888.643	20819
888.767	20640
888.891	20613
889.015	20419
889.139	20484
889.263	20450
889.387	20545
889.511	20632
889.635	20678
889.759	20404
889.883	20473
890.006	20507
890.13	20602
890.254	20427
890.377	20446
890.501	20301
890.624	20221
890.748	20374
890.871	20024
890.995	20081
891.118	19944
891.241	20058
891.364	20050
891.488	20240
891.611	19989
891.734	20103
891.857	20115
891.98	20012
892.103	20153
892.226	19967
892.349	20035
892.471	19868
892.594	19982
892.717	19921
892.839	19951
892.962	19951
893.085	20020
893.207	19997
893.33	19860
893.452	19875
893.575	20050
893.697	20008
893.819	20031
893.941	20240
894.064	20062
894.186	19860
894.308	19997
894.43	20054
894.552	20138
894.674	20008
894.796	19887
894.918	19970
895.04	19852
895.161	19993
895.283	20084
895.405	19940
895.526	19940
895.648	19894
895.769	19909
895.891	20016
896.012	20005
896.134	20031
896.255	19913
896.376	19890
896.498	19913
896.619	19913
896.74	19936
896.861	19955
896.982	20221
897.103	20442
897.224	20229
897.345	20183
897.466	20088
897.587	20225
897.708	20244
897.828	20210
897.949	20122
898.07	20084
898.19	20077
898.311	20275
898.431	20035
898.552	20157
898.672	20221
898.792	20271
898.913	20240
899.033	20111
899.153	19974
899.273	19860
899.393	20005
899.513	19989
899.633	19925
899.753	20008
899.873	19936
899.993	19936
900.113	19788
900.232	19902
900.352	19887
900.472	19761
900.591	19712
900.711	19753
900.83	19712
900.95	19761
901.069	19769
901.189	19700
901.308	19400
901.427	19343
901.546	19365
901.665	19343
901.784	19419
901.904	19202
902.023	19069
902.141	18806
902.26	18928
902.379	18875
902.498	18852
902.617	18745
902.735	18890
902.854	18844
902.973	18757
903.091	18570
903.21	18426
903.328	18410
903.446	18353
903.565	18315
903.683	18319
903.801	18194
903.919	18216
904.038	18213
904.156	18125
904.274	18205
904.392	18034
904.51	18045
904.627	18106
904.745	18136
904.863	18140
904.981	17942
905.098	17775
905.216	17676
905.334	17726
905.451	17729
905.569	17691
905.686	17726
905.803	17851
905.921	17501
906.038	17726
906.155	17577
906.272	17417
906.389	17433
906.506	17265
906.623	17318
906.74	17261
906.857	17105
906.974	17102
907.091	17334
907.208	17448
907.324	17246
907.441	17140
907.557	17037
907.674	16927
907.79	16877
907.907	16991
908.023	17029
908.139	16949
908.256	16942
908.372	16850
908.488	16881
908.604	16748
908.72	16755
908.836	16729
908.952	16752
909.068	16725
909.184	16801
909.3	16729
909.415	16710
909.531	16736
909.647	16405
909.762	16394
909.878	16341
909.993	16459
910.108	16428
910.224	16341
910.339	16455
910.454	16314
910.57	16253
910.685	16131
910.8	16367
910.915	16375
911.03	16299
911.145	16002
911.259	15922
911.374	16078
911.489	15930
911.604	15838
911.718	15728
911.833	15846
911.947	15690
912.062	15690
912.176	15804
912.291	15759
912.405	15751
912.519	15994
912.633	15892
912.748	15816
912.862	15717
912.976	15690
913.09	15511
913.204	15553
913.318	15614
913.431	15629
913.545	15580
913.659	15625
913.772	15488
913.886	15367
914	15325
914.113	15477
914.226	15526
914.34	15500
914.453	15313
914.566	15473
914.68	15332
914.793	15256
914.906	15066
915.019	15077
915.132	14998
915.245	14944
915.358	15032
915.47	14921
915.583	15013
915.696	15020
915.809	15032
915.921	15100
916.034	15020
916.146	14823
916.259	14864
916.371	14944
916.483	14960
916.595	14769
916.708	14845
916.82	14899
916.932	14864
917.044	14689
917.156	14651
917.268	14594
917.38	14743
917.491	14636
917.603	14682
917.715	14720
917.826	14651
917.938	14594
918.049	14560
918.161	14495
918.272	14731
918.384	14735
918.495	14606
918.606	14396
918.717	14355
918.828	14552
918.939	14476
919.05	14267
919.161	14434
919.272	14218
919.383	14237
919.494	14423
919.604	14560
919.715	14427
919.826	14305
919.936	14290
920.047	14393
920.157	14305
920.267	14514
920.378	14412
920.488	14309
920.598	14575
920.708	14640
920.818	14575
920.928	14427
921.038	14746
921.148	14640
921.258	14404
921.368	14187
921.477	14202
921.587	14149
921.697	14008
921.806	14138
921.916	13932
922.025	13791
922.134	13750
922.244	13765
922.353	13776
922.462	13723
922.571	13590
922.68	13449
922.789	13335
922.898	13434
923.007	13297
923.116	13434
923.224	13396
923.333	13301
923.442	13179
923.55	13263
923.659	13285
923.767	13358
923.876	13175
923.984	13339
924.092	13126
924.201	13175
924.309	13149
924.417	13095
924.525	13050
924.633	13110
924.741	14012
924.849	12954
924.956	13012
925.064	12829
925.172	12719
925.279	12867
925.387	12840
925.494	12829
925.602	12882
925.709	12886
925.816	12802
925.924	12738
926.031	12844
926.138	12684
926.245	12886
926.352	12707
926.459	12848
926.566	12817
926.673	12715
926.779	12639
926.886	12574
926.993	12452
927.099	12525
927.206	12346
927.312	12384
927.419	12445
927.525	12388
927.631	12380
927.737	12319
927.843	12327
927.95	12079
928.056	12251
928.162	12251
928.267	12369
928.373	13015
928.479	12327
928.585	12026
928.69	12110
928.796	12228
928.901	12102
929.007	11965
929.112	12038
929.218	12038
929.323	11996
929.428	11977
929.533	12091
929.638	11927
929.743	11916
929.848	11999
929.953	11866
930.058	11821
930.163	11634
930.267	11726
930.372	11760
930.477	11634
930.581	11836
930.685	11703
930.79	11547
930.894	11509
930.998	11497
931.103	11676
931.207	11292
931.311	11288
931.415	11105
931.519	10995
931.623	10961
