Data from test_V78500241_697.txt Node
Date: Fri Mar 25 15:46:37 CST 2022
User: usil
Spectrometer: V785-0024
Trigger mode: 0
Integration Time (sec): 4.000000E-1
Scans to average: 1
Nonlinearity correction enabled: false
Boxcar width: 0
Storing dark spectrum: false
XAxis mode: Wavelengths
Number of Pixels in Spectrum: 1024
>>>>>Begin Spectral Data<<<<<
801.071	27907
801.214	27926
801.356	27698
801.499	27667
801.641	27603
801.783	27504
801.926	27549
802.068	27401
802.211	27504
802.353	27359
802.496	27096
802.638	27123
802.78	27283
802.923	27199
803.065	27195
803.208	27032
803.35	27146
803.492	27344
803.635	27310
803.777	27207
803.919	27313
804.061	27599
804.204	27348
804.346	27264
804.488	27218
804.63	27306
804.773	27192
804.915	27492
805.057	27530
805.199	27412
805.341	27382
805.483	27408
805.626	27545
805.768	27492
805.91	27450
806.052	27511
806.194	27378
806.336	27606
806.478	27561
806.62	27519
806.762	27564
806.904	27857
807.046	28006
807.188	27903
807.33	27918
807.472	28006
807.614	27899
807.756	27857
807.898	27930
808.04	27641
808.182	27766
808.324	27785
808.465	27774
808.607	27968
808.749	28139
808.891	28188
809.033	28367
809.174	28242
809.316	28242
809.458	28204
809.6	28131
809.741	28268
809.883	28265
810.025	28367
810.166	28462
810.308	28356
810.45	28322
810.591	28356
810.733	28238
810.875	28124
811.016	27968
811.158	27975
811.299	28204
811.441	28314
811.582	28474
811.724	28116
811.865	28139
812.007	28158
812.148	28139
812.29	28128
812.431	28379
812.573	28489
812.714	28634
812.855	28622
812.997	28740
813.138	28869
813.279	28713
813.421	28729
813.562	28710
813.703	28557
813.845	28398
813.986	28120
814.127	27975
814.268	27941
814.41	27778
814.551	27747
814.692	27850
814.833	27701
814.974	27793
815.115	27930
815.256	27701
815.397	27698
815.539	27629
815.68	27679
815.821	27614
815.962	27618
816.103	27629
816.244	27469
816.385	27355
816.526	27393
816.666	27237
816.807	27222
816.948	27142
817.089	27264
817.23	27218
817.371	27165
817.512	27195
817.653	27150
817.793	27096
817.934	27116
818.075	27233
818.216	27032
818.356	27211
818.497	27066
818.638	26902
818.778	26845
818.919	26868
819.06	26967
819.2	27104
819.341	27135
819.481	27123
819.622	27218
819.762	27488
819.903	27367
820.043	27348
820.184	27211
820.324	27214
820.465	27283
820.605	27313
820.746	27237
820.886	27135
821.026	27329
821.167	27245
821.307	27222
821.447	27138
821.588	26910
821.728	26929
821.868	26804
822.008	26644
822.149	26785
822.289	26625
822.429	26400
822.569	26339
822.709	26252
822.849	26103
822.99	26145
823.13	26176
823.27	26111
823.41	25940
823.55	25883
823.69	25921
823.83	25883
823.97	26069
824.11	25765
824.25	25769
824.389	25693
824.529	25925
824.669	25803
824.809	25928
824.949	25830
825.089	25833
825.228	25803
825.368	25559
825.508	25525
825.648	25731
825.787	25674
825.927	25586
826.067	25635
826.206	25643
826.346	25616
826.485	25807
826.625	25685
826.765	25700
826.904	25723
827.044	25331
827.183	25365
827.323	25202
827.462	25312
827.601	25304
827.741	25304
827.88	25422
828.02	25232
828.159	25400
828.298	25426
828.437	25449
828.577	25244
828.716	25548
828.855	25282
828.994	25065
829.134	25126
829.273	25046
829.412	24935
829.551	25023
829.69	25038
829.829	25034
829.968	25133
830.107	25164
830.246	24924
830.385	24966
830.524	24970
830.663	24977
830.802	24772
830.941	24654
831.08	24642
831.219	24665
831.357	24760
831.496	24863
831.635	24700
831.774	24498
831.913	24490
832.051	24448
832.19	24604
832.329	24369
832.467	24372
832.606	24300
832.744	24285
832.883	24399
833.022	24247
833.16	24300
833.299	24380
833.437	24346
833.576	24422
833.714	24342
833.852	24391
833.991	24426
834.129	24426
834.267	24441
834.406	24502
834.544	24391
834.682	24330
834.821	24456
834.959	24464
835.097	24350
835.235	24544
835.373	24258
835.511	24372
835.65	24155
835.788	24296
835.926	24095
836.064	23874
836.202	24030
836.34	24186
836.478	24148
836.615	24254
836.753	24216
836.891	24464
837.029	24144
837.167	24201
837.305	24102
837.443	24095
837.58	24011
837.718	24026
837.856	24068
837.993	24053
838.131	24011
838.269	23950
838.406	23874
838.544	23859
838.681	23642
838.819	23619
838.956	23596
839.094	23471
839.231	23615
839.369	23604
839.506	23855
839.643	23760
839.781	23490
839.918	23608
840.055	23535
840.193	23543
840.33	23444
840.467	23379
840.604	23486
840.742	23741
840.879	23269
841.016	23376
841.153	23372
841.29	23524
841.427	23486
841.564	23318
841.701	23421
841.838	23372
841.975	23315
842.112	23330
842.249	23166
842.385	23143
842.522	23376
842.659	23265
842.796	23269
842.933	23166
843.069	23086
843.206	23136
843.343	23132
843.479	23216
843.616	23155
843.752	22809
843.889	22896
844.025	23261
844.162	22942
844.298	23041
844.435	22972
844.571	22847
844.708	23044
844.844	23086
844.98	23117
845.117	23041
845.253	22934
845.389	22812
845.525	22820
845.661	22828
845.798	22603
845.934	22687
846.07	22725
846.206	22675
846.342	22713
846.478	22592
846.614	22478
846.75	22440
846.886	22371
847.022	22527
847.158	22512
847.294	22428
847.429	22542
847.565	22402
847.701	22630
847.837	22078
847.972	22124
848.108	22234
848.244	22238
848.379	21892
848.515	21964
848.65	21994
848.786	21983
848.921	22105
849.057	21937
849.192	22196
849.328	22097
849.463	21926
849.598	22036
849.734	21869
849.869	21854
850.004	21755
850.14	21739
850.275	21827
850.41	21846
850.545	21854
850.68	21835
850.815	21869
850.95	21739
851.085	21876
851.22	21873
851.355	21797
851.49	21713
851.625	21720
851.76	21690
851.895	21778
852.03	21686
852.165	21759
852.299	21785
852.434	21781
852.569	21808
852.703	21743
852.838	21831
852.973	21964
853.107	21941
853.242	21610
853.376	21701
853.511	21389
853.645	21428
853.78	21785
853.914	21538
854.048	21545
854.183	21488
854.317	21606
854.451	21854
854.585	21583
854.72	21656
854.854	21698
854.988	21526
855.122	21610
855.256	21386
855.39	21587
855.524	21663
855.658	21583
855.792	21580
855.926	21698
856.06	21656
856.194	21747
856.327	21595
856.461	21443
856.595	21610
856.729	21606
856.862	21743
856.996	21614
857.13	21652
857.263	21778
857.397	21663
857.53	21500
857.664	21583
857.797	21644
857.931	21671
858.064	21644
858.197	21549
858.331	21641
858.464	21393
858.597	21336
858.731	21583
858.864	21625
858.997	21553
859.13	21622
859.263	21580
859.396	21675
859.529	21614
859.662	21538
859.795	21469
859.928	21511
860.061	21663
860.194	21747
860.327	21580
860.46	21511
860.592	21641
860.725	21789
860.858	21724
860.99	21568
861.123	21542
861.256	21477
861.388	21564
861.521	22230
861.653	21287
861.786	21393
861.918	21443
862.05	21382
862.183	21523
862.315	21416
862.447	21576
862.58	21534
862.712	21203
862.844	21252
862.976	21359
863.108	21378
863.24	21656
863.372	21241
863.504	21336
863.636	21218
863.768	21355
863.9	21504
864.032	21313
864.164	21203
864.296	21207
864.428	21473
864.559	21473
864.691	21401
864.823	21294
864.954	21237
865.086	21252
865.217	21313
865.349	21123
865.48	21138
865.612	21180
865.743	21256
865.875	21241
866.006	21157
866.137	21355
866.269	21211
866.4	21195
866.531	21131
866.662	21066
866.793	21138
866.924	21116
867.055	21222
867.186	21150
867.317	21074
867.448	21036
867.579	21123
867.71	21089
867.841	21051
867.972	21176
868.103	21024
868.233	21138
868.364	21116
868.495	21298
868.625	21405
868.756	21424
868.886	21321
869.017	21336
869.147	21428
869.278	21397
869.408	21393
869.539	21359
869.669	21412
869.799	21412
869.929	21416
870.06	21500
870.19	21652
870.32	21500
870.45	21656
870.58	21766
870.71	21835
870.84	21819
870.97	21656
871.1	21850
871.23	21876
871.36	21850
871.489	21774
871.619	21842
871.749	21884
871.879	21934
872.008	22010
872.138	21892
872.267	21987
872.397	21861
872.526	21823
872.656	21857
872.785	21751
872.915	21941
873.044	22070
873.173	21915
873.303	21903
873.432	22025
873.561	22112
873.69	22082
873.819	22013
873.948	22029
874.077	21918
874.206	21930
874.335	22051
874.464	22055
874.593	22131
874.722	22128
874.851	22287
874.979	22211
875.108	22242
875.237	22234
875.365	22112
875.494	22211
875.623	22306
875.751	22090
875.88	22097
876.008	22329
876.136	22360
876.265	22687
876.393	22713
876.521	22649
876.65	22702
876.778	22645
876.906	22466
877.034	22481
877.162	22516
877.29	22474
877.418	22603
877.546	22603
877.674	22675
877.802	22493
877.93	22443
878.058	22424
878.185	22424
878.313	22470
878.441	22421
878.568	22287
878.696	22561
878.824	22451
878.951	22637
879.079	22725
879.206	22828
879.333	22729
879.461	22656
879.588	22713
879.715	22755
879.842	22835
879.97	22630
880.097	22333
880.224	22284
880.351	22481
880.478	22394
880.605	22455
880.732	22303
880.859	22542
880.986	22348
881.112	22291
881.239	22169
881.366	22143
881.493	22029
881.619	21880
881.746	22090
881.872	21808
881.999	21850
882.125	21717
882.252	21918
882.378	21876
882.505	22025
882.631	21934
882.757	21564
882.883	21770
883.01	21644
883.136	21591
883.262	21606
883.388	21492
883.514	21553
883.64	21732
883.766	21488
883.892	21260
884.018	21477
884.143	21507
884.269	21557
884.395	21348
884.52	21218
884.646	21199
884.772	21336
884.897	21184
885.023	21336
885.148	21310
885.274	21405
885.399	21321
885.524	21310
885.65	21256
885.775	21233
885.9	21279
886.025	21348
886.15	21306
886.275	21233
886.4	21165
886.525	21211
886.65	21237
886.775	21150
886.9	21355
887.025	21530
887.149	21211
887.274	21074
887.399	21024
887.523	21013
887.648	20921
887.773	20883
887.897	21203
888.021	21013
888.146	20998
888.27	21142
888.395	21184
888.519	20994
888.643	21047
888.767	20998
888.891	20842
889.015	20910
889.139	20800
889.263	20826
889.387	20956
889.511	21043
889.635	20929
889.759	20823
889.883	20861
890.006	20762
890.13	20887
890.254	20686
890.377	20720
890.501	20594
890.624	20617
890.748	20613
890.871	20530
890.995	20374
891.118	20389
891.241	20393
891.364	20454
891.488	20541
891.611	20442
891.734	20393
891.857	20415
891.98	20427
892.103	20488
892.226	20355
892.349	20343
892.471	20256
892.594	20256
892.717	20370
892.839	20301
892.962	20221
893.085	20282
893.207	20294
893.33	20103
893.452	20195
893.575	20339
893.697	20122
893.819	20423
893.941	20473
894.064	20492
894.186	20282
894.308	20191
894.43	20404
894.552	20511
894.674	20320
894.796	20180
894.918	20301
895.04	20187
895.161	20286
895.283	20202
895.405	20225
895.526	20294
895.648	20286
895.769	20450
895.891	20301
896.012	20377
896.134	20309
896.255	20240
896.376	20351
896.498	20339
896.619	20282
896.74	20370
896.861	20400
896.982	20583
897.103	20762
897.224	20606
897.345	20583
897.466	20446
897.587	20533
897.708	20632
897.828	20701
897.949	20408
898.07	20431
898.19	20434
898.311	20545
898.431	20469
898.552	20499
898.672	20617
898.792	20594
898.913	20568
899.033	20454
899.153	20328
899.273	20221
899.393	20229
899.513	20305
899.633	20396
899.753	20202
899.873	20115
899.993	20221
900.113	20100
900.232	20206
900.352	20168
900.472	20058
900.591	20058
900.711	20119
900.83	20054
900.95	20024
901.069	20183
901.189	19879
901.308	19734
901.427	19685
901.546	19693
901.665	19609
901.784	19597
901.904	19472
902.023	19438
902.141	19209
902.26	19183
902.379	19282
902.498	19213
902.617	19012
902.735	19095
902.854	19198
902.973	18924
903.091	18844
903.21	18821
903.328	18745
903.446	18711
903.565	18658
903.683	18635
903.801	18517
903.919	18620
904.038	18532
904.156	18380
904.274	18483
904.392	18243
904.51	18334
904.627	18285
904.745	18422
904.863	18509
904.981	18102
905.098	18087
905.216	18057
905.334	18114
905.451	18049
905.569	17969
905.686	18007
905.803	18178
905.921	17901
906.038	17965
906.155	17893
906.272	17798
906.389	17836
906.506	17657
906.623	17573
906.74	17501
906.857	17440
906.974	17440
907.091	17627
907.208	17668
907.324	17615
907.441	17474
907.557	17395
907.674	17360
907.79	17162
907.907	17322
908.023	17326
908.139	17292
908.256	17235
908.372	17200
908.488	17239
908.604	17159
908.72	17010
908.836	17014
908.952	16965
909.068	17147
909.184	17037
909.3	17014
909.415	17029
909.531	16991
909.647	16759
909.762	16763
909.878	16645
909.993	16713
910.108	16656
910.224	16645
910.339	16706
910.454	16542
910.57	16531
910.685	16519
910.8	16622
910.915	16725
911.03	16470
911.145	16379
911.259	16386
911.374	16344
911.489	16219
911.604	16196
911.718	15998
911.833	16029
911.947	15975
912.062	15854
912.176	16067
912.291	16044
912.405	16086
912.519	16265
912.633	16211
912.748	16120
912.862	15941
912.976	15865
913.09	15682
913.204	15823
913.318	15888
913.431	15937
913.545	15899
913.659	15941
913.772	15846
913.886	15751
914	15625
914.113	15690
914.226	15728
914.34	15774
914.453	15523
914.566	15679
914.68	15507
914.793	15504
914.906	15382
915.019	15317
915.132	15268
915.245	15249
915.358	15256
915.47	15256
915.583	15291
915.696	15233
915.809	15370
915.921	15466
916.034	15203
916.146	15123
916.259	15161
916.371	15306
916.483	15245
916.595	15154
916.708	15161
916.82	15100
916.932	15009
917.044	15036
917.156	15055
917.268	14876
917.38	15001
917.491	14849
917.603	14910
917.715	15055
917.826	14982
917.938	14804
918.049	14632
918.161	14902
918.272	14967
918.384	14960
918.495	14899
918.606	14762
918.717	14670
918.828	14674
918.939	14739
919.05	14655
919.161	14613
919.272	14476
919.383	14514
919.494	14777
919.604	14861
919.715	14636
919.826	14686
919.936	14594
920.047	14613
920.157	14659
920.267	14807
920.378	14587
920.488	14556
920.598	14788
920.708	14937
920.818	14689
920.928	14716
921.038	14872
921.148	14819
921.258	14613
921.368	14457
921.477	14324
921.587	14294
921.697	14244
921.806	14328
921.916	14157
922.025	14130
922.134	13993
922.244	13917
922.353	13997
922.462	13887
922.571	13883
922.68	13704
922.789	13616
922.898	13670
923.007	13567
923.116	13655
923.224	13643
923.333	13571
923.442	13521
923.55	13419
923.659	13495
923.767	13563
923.876	13502
923.984	13400
924.092	13400
924.201	13434
924.309	13407
924.417	13350
924.525	13308
924.633	13339
924.741	14259
924.849	13160
924.956	13270
925.064	13110
925.172	13008
925.279	12993
925.387	13069
925.494	13023
925.602	13141
925.709	13034
925.816	12932
925.924	13031
926.031	13122
926.138	12894
926.245	12973
926.352	12905
926.459	12996
926.566	13179
926.673	12951
926.779	12867
926.886	12840
926.993	12623
927.099	12566
927.206	12620
927.312	12612
927.419	12658
927.525	12601
927.631	12623
927.737	12601
927.843	12525
927.95	12403
928.056	12433
928.162	12441
928.267	12494
928.373	13019
928.479	12479
928.585	12186
928.69	12311
928.796	12445
928.901	12361
929.007	12239
929.112	12266
929.218	12216
929.323	12190
929.428	12129
929.533	12292
929.638	12038
929.743	12114
929.848	12117
929.953	12041
930.058	12041
930.163	11889
930.267	11851
930.372	11946
930.477	11779
930.581	12095
930.685	11931
930.79	11672
930.894	11779
930.998	11668
931.103	11817
931.207	11417
931.311	11448
931.415	11265
931.519	11109
931.623	11052
