Data from test_V78500241_2824.txt Node
Date: Fri Mar 25 16:01:21 CST 2022
User: usil
Spectrometer: V785-0024
Trigger mode: 0
Integration Time (sec): 4.000000E-1
Scans to average: 1
Nonlinearity correction enabled: false
Boxcar width: 0
Storing dark spectrum: false
XAxis mode: Wavelengths
Number of Pixels in Spectrum: 1024
>>>>>Begin Spectral Data<<<<<
801.071	28957
801.214	29006
801.356	28748
801.499	28660
801.641	28554
801.783	28462
801.926	28535
802.068	28508
802.211	28542
802.353	28390
802.496	28246
802.638	28280
802.78	28299
802.923	28219
803.065	28070
803.208	28177
803.35	28249
803.492	28413
803.635	28363
803.777	28447
803.919	28470
804.061	28938
804.204	28577
804.346	28504
804.488	28348
804.63	28588
804.773	28371
804.915	28596
805.057	28569
805.199	28535
805.341	28630
805.483	28596
805.626	28691
805.768	28489
805.91	28573
806.052	28474
806.194	28626
806.336	28767
806.478	28653
806.62	28687
806.762	28816
806.904	28930
807.046	29170
807.188	29147
807.33	29216
807.472	29185
807.614	29128
807.756	28972
807.898	29166
808.04	28927
808.182	28984
808.324	28888
808.465	29041
808.607	29166
808.749	29402
808.891	29490
809.033	29463
809.174	29459
809.316	29364
809.458	29398
809.6	29379
809.741	29444
809.883	29528
810.025	29687
810.166	29619
810.308	29592
810.45	29619
810.591	29524
810.733	29406
810.875	29395
811.016	29239
811.158	29299
811.299	29478
811.441	29558
811.582	29589
811.724	29398
811.865	29265
812.007	29452
812.148	29322
812.29	29345
812.431	29657
812.573	29741
812.714	29836
812.855	29847
812.997	29961
813.138	30079
813.279	30152
813.421	29984
813.562	29695
813.703	29687
813.845	29467
813.986	29353
814.127	29124
814.268	28961
814.41	29162
814.551	29128
814.692	29151
814.833	29105
814.974	29151
815.115	29166
815.256	29014
815.397	29014
815.539	28987
815.68	28934
815.821	28923
815.962	28854
816.103	28995
816.244	28820
816.385	28721
816.526	28755
816.666	28493
816.807	28455
816.948	28462
817.089	28729
817.23	28630
817.371	28287
817.512	28413
817.653	28352
817.793	28341
817.934	28485
818.075	28447
818.216	28451
818.356	28352
818.497	28303
818.638	28124
818.778	28135
818.919	28181
819.06	28280
819.2	28325
819.341	28489
819.481	28417
819.622	28634
819.762	28748
819.903	28618
820.043	28599
820.184	28531
820.324	28603
820.465	28603
820.605	28535
820.746	28573
820.886	28409
821.026	28523
821.167	28580
821.307	28645
821.447	28573
821.588	28382
821.728	28162
821.868	27964
822.008	27861
822.149	27873
822.289	27842
822.429	27652
822.569	27648
822.709	27526
822.849	27363
822.99	27450
823.13	27492
823.27	27401
823.41	27317
823.55	27085
823.69	27340
823.83	27237
823.97	27211
824.11	27093
824.25	27039
824.389	27028
824.529	27112
824.669	27096
824.809	27237
824.949	27173
825.089	27173
825.228	27180
825.368	26944
825.508	26823
825.648	27036
825.787	27100
825.927	26895
826.067	26899
826.206	26876
826.346	27001
826.485	27089
826.625	26967
826.765	27039
826.904	26921
827.044	26697
827.183	26632
827.323	26560
827.462	26602
827.601	26571
827.741	26705
827.88	26609
828.02	26583
828.159	26556
828.298	26556
828.437	26758
828.577	26549
828.716	26754
828.855	26594
828.994	26225
829.134	26355
829.273	26343
829.412	26301
829.551	26347
829.69	26294
829.829	26415
829.968	26404
830.107	26400
830.246	26400
830.385	26248
830.524	26191
830.663	26161
830.802	25940
830.941	25898
831.08	25986
831.219	26092
831.357	26016
831.496	26187
831.635	26020
831.774	25864
831.913	25913
832.051	25769
832.19	25776
832.329	25757
832.467	25658
832.606	25537
832.744	25578
832.883	25860
833.022	25605
833.16	25677
833.299	25586
833.437	25776
833.576	25681
833.714	25750
833.852	25674
833.991	25693
834.129	25890
834.267	25731
834.406	25734
834.544	25856
834.682	25841
834.821	25700
834.959	25868
835.097	25647
835.235	25849
835.373	25677
835.511	25719
835.65	25666
835.788	25582
835.926	25468
836.064	25381
836.202	25335
836.34	25491
836.478	25575
836.615	25453
836.753	25514
836.891	25537
837.029	25441
837.167	25499
837.305	25483
837.443	25464
837.58	25327
837.718	25521
837.856	25422
837.993	25263
838.131	25194
838.269	25114
838.406	25228
838.544	25114
838.681	25084
838.819	24966
838.956	24852
839.094	24703
839.231	24943
839.369	24916
839.506	25206
839.643	25069
839.781	24757
839.918	24798
840.055	24871
840.193	24798
840.33	24654
840.467	24719
840.604	24852
840.742	24966
840.879	24509
841.016	24665
841.153	24551
841.29	24776
841.427	24658
841.564	24772
841.701	24715
841.838	24536
841.975	24544
842.112	24585
842.249	24525
842.385	24479
842.522	24715
842.659	24642
842.796	24357
842.933	24517
843.069	24391
843.206	24369
843.343	24597
843.479	24570
843.616	24334
843.752	24330
843.889	24232
844.025	24285
844.162	24239
844.298	24403
844.435	24285
844.571	24216
844.708	24247
844.844	24414
844.98	24437
845.117	24391
845.253	24254
845.389	24133
845.525	24015
845.661	24121
845.798	24026
845.934	23958
846.07	23912
846.206	24068
846.342	24087
846.478	23912
846.614	23863
846.75	23676
846.886	23638
847.022	23866
847.158	23687
847.294	23798
847.429	23809
847.565	23665
847.701	23984
847.837	23471
847.972	23376
848.108	23429
848.244	23497
848.379	23326
848.515	23307
848.65	23311
848.786	23185
848.921	23379
849.057	23318
849.192	23360
849.328	23280
849.463	23341
849.598	23353
849.734	23094
849.869	23094
850.004	22965
850.14	23064
850.275	23109
850.41	22885
850.545	22930
850.68	22976
850.815	23136
850.95	22991
851.085	23147
851.22	23086
851.355	23044
851.49	22976
851.625	22972
851.76	22999
851.895	22877
852.03	22885
852.165	22991
852.299	23132
852.434	23090
852.569	23052
852.703	23056
852.838	23147
852.973	23200
853.107	23223
853.242	23006
853.376	22866
853.511	22778
853.645	22908
853.78	22927
853.914	22946
854.048	22809
854.183	22786
854.317	22881
854.451	23102
854.585	22892
854.72	22809
854.854	22991
854.988	22911
855.122	22915
855.256	22694
855.39	22877
855.524	22896
855.658	22911
855.792	22972
855.926	22805
856.06	22911
856.194	22908
856.327	22934
856.461	22885
856.595	22908
856.729	22854
856.862	22911
856.996	22946
857.13	22957
857.263	23025
857.397	23109
857.53	22786
857.664	23010
857.797	22885
857.931	22953
858.064	22911
858.197	22980
858.331	22831
858.464	22683
858.597	22847
858.731	22900
858.864	22896
858.997	22938
859.13	22774
859.263	22927
859.396	23022
859.529	22782
859.662	22801
859.795	22767
859.928	22980
860.061	23006
860.194	23090
860.327	22968
860.46	22805
860.592	23010
860.725	23056
860.858	23037
860.99	22949
861.123	22694
861.256	22866
861.388	22793
861.521	23581
861.653	22774
861.786	22637
861.918	22759
862.05	22736
862.183	22752
862.315	22900
862.447	22801
862.58	22748
862.712	22641
862.844	22443
862.976	22611
863.108	22615
863.24	22908
863.372	22588
863.504	22481
863.636	22592
863.768	22717
863.9	22611
864.032	22626
864.164	22402
864.296	22580
864.428	22717
864.559	22649
864.691	22626
864.823	22440
864.954	22546
865.086	22752
865.217	22504
865.349	22447
865.48	22455
865.612	22478
865.743	22546
865.875	22527
866.006	22432
866.137	22344
866.269	22455
866.4	22451
866.531	22333
866.662	22219
866.793	22409
866.924	22424
867.055	22417
867.186	22310
867.317	22318
867.448	22375
867.579	22192
867.71	22238
867.841	22207
867.972	22390
868.103	22234
868.233	22379
868.364	22466
868.495	22497
868.625	22573
868.756	22675
868.886	22500
869.017	22580
869.147	22691
869.278	22668
869.408	22683
869.539	22577
869.669	22668
869.799	22702
869.929	22725
870.06	22687
870.19	22881
870.32	22908
870.45	22980
870.58	22995
870.71	23109
870.84	23105
870.97	23132
871.1	22980
871.23	23102
871.36	23132
871.489	23090
871.619	23136
871.749	23204
871.879	23239
872.008	23452
872.138	23204
872.267	23159
872.397	23044
872.526	22965
872.656	23174
872.785	23086
872.915	23261
873.044	23155
873.173	23265
873.303	23105
873.432	23246
873.561	23356
873.69	23303
873.819	23220
873.948	23269
874.077	23280
874.206	23174
874.335	23094
874.464	23322
874.593	23558
874.722	23364
874.851	23406
874.979	23341
875.108	23516
875.237	23299
875.365	23277
875.494	23421
875.623	23501
875.751	23372
875.88	23486
876.008	23524
876.136	23592
876.265	23855
876.393	23977
876.521	23889
876.65	23775
876.778	23745
876.906	23722
877.034	23741
877.162	23809
877.29	23741
877.418	23798
877.546	23802
877.674	23855
877.802	23619
877.93	23699
878.058	23665
878.185	23642
878.313	23608
878.441	23676
878.568	23638
878.696	23741
878.824	23695
878.951	23828
879.079	23999
879.206	23973
879.333	23935
879.461	23767
879.588	23874
879.715	23912
879.842	23988
879.97	23813
880.097	23539
880.224	23657
880.351	23592
880.478	23581
880.605	23551
880.732	23524
880.859	23885
880.986	23657
881.112	23680
881.239	23459
881.366	23239
881.493	23178
881.619	23235
881.746	23204
881.872	23159
881.999	23109
882.125	23029
882.252	23128
882.378	23033
882.505	23242
882.631	22927
882.757	22873
882.883	22946
883.01	22843
883.136	22778
883.262	22599
883.388	22672
883.514	22881
883.64	22793
883.766	22725
883.892	22554
884.018	22508
884.143	22683
884.269	22831
884.395	22519
884.52	22405
884.646	22531
884.772	22344
884.897	22322
885.023	22405
885.148	22459
885.274	22542
885.399	22474
885.524	22413
885.65	22440
885.775	22470
885.9	22493
886.025	22641
886.15	22577
886.275	22481
886.4	22428
886.525	22481
886.65	22295
886.775	22329
886.9	22481
887.025	22599
887.149	22421
887.274	22356
887.399	22207
887.523	22230
887.648	22173
887.773	22143
887.897	22177
888.021	22246
888.146	22109
888.27	22287
888.395	22261
888.519	22177
888.643	22249
888.767	22116
888.891	22093
889.015	21991
889.139	22029
889.263	21972
889.387	22067
889.511	22230
889.635	22135
889.759	21979
889.883	21892
890.006	21991
890.13	22112
890.254	21972
890.377	21918
890.501	21667
890.624	21610
890.748	21728
890.871	21458
890.995	21580
891.118	21477
891.241	21458
891.364	21488
891.488	21698
891.611	21526
891.734	21526
891.857	21606
891.98	21587
892.103	21504
892.226	21447
892.349	21488
892.471	21294
892.594	21439
892.717	21355
892.839	21439
892.962	21386
893.085	21325
893.207	21367
893.33	21351
893.452	21214
893.575	21526
893.697	21325
893.819	21462
893.941	21549
894.064	21420
894.186	21340
894.308	21260
894.43	21428
894.552	21633
894.674	21511
894.796	21424
894.918	21313
895.04	21382
895.161	21424
895.283	21458
895.405	21336
895.526	21336
895.648	21378
895.769	21363
895.891	21462
896.012	21397
896.134	21348
896.255	21428
896.376	21416
896.498	21412
896.619	21538
896.74	21214
896.861	21450
896.982	21755
897.103	21724
897.224	21629
897.345	21542
897.466	21523
897.587	21542
897.708	21770
897.828	21587
897.949	21572
898.07	21393
898.19	21454
898.311	21637
898.431	21568
898.552	21507
898.672	21511
898.792	21557
898.913	21561
899.033	21500
899.153	21306
899.273	21192
899.393	21298
899.513	21359
899.633	21294
899.753	21367
899.873	21260
899.993	21424
900.113	21165
900.232	21279
900.352	21203
900.472	21074
900.591	21028
900.711	21135
900.83	21066
900.95	21188
901.069	21077
901.189	21005
901.308	20693
901.427	20526
901.546	20693
901.665	20697
901.784	20648
901.904	20488
902.023	20434
902.141	20134
902.26	20176
902.379	20138
902.498	20130
902.617	20012
902.735	20077
902.854	19982
902.973	19967
903.091	19772
903.21	19795
903.328	19696
903.446	19674
903.565	19647
903.683	19556
903.801	19460
903.919	19544
904.038	19510
904.156	19365
904.274	19510
904.392	19438
904.51	19331
904.627	19221
904.745	19388
904.863	19324
904.981	19099
905.098	19065
905.216	19023
905.334	19114
905.451	19000
905.569	18886
905.686	18958
905.803	19000
905.921	18802
906.038	18856
906.155	18905
906.272	18665
906.389	18707
906.506	18372
906.623	18513
906.74	18597
906.857	18338
906.974	18445
907.091	18467
907.208	18532
907.324	18566
907.441	18429
907.557	18273
907.674	18216
907.79	18136
907.907	18334
908.023	18095
908.139	18228
908.256	18045
908.372	18079
908.488	18057
908.604	17980
908.72	17950
908.836	17954
908.952	17885
909.068	17931
909.184	18015
909.3	17935
909.415	18045
909.531	17828
909.647	17710
909.762	17699
909.878	17554
909.993	17608
910.108	17581
910.224	17532
910.339	17638
910.454	17463
910.57	17497
910.685	17349
910.8	17501
910.915	17589
911.03	17398
911.145	17185
911.259	17181
911.374	17197
911.489	17018
911.604	16991
911.718	16923
911.833	16892
911.947	16812
912.062	16767
912.176	16946
912.291	16927
912.405	16938
912.519	17079
912.633	17102
912.748	16877
912.862	16847
912.976	16694
913.09	16664
913.204	16763
913.318	16805
913.431	16778
913.545	16771
913.659	16839
913.772	16653
913.886	16535
914	16478
914.113	16462
914.226	16577
914.34	16660
914.453	16379
914.566	16580
914.68	16424
914.793	16344
914.906	16093
915.019	16078
915.132	16059
915.245	16097
915.358	16181
915.47	16143
915.583	16150
915.696	16135
915.809	16166
915.921	16204
916.034	16135
916.146	15979
916.259	15979
916.371	16059
916.483	16101
916.595	15972
916.708	15884
916.82	15934
916.932	15884
917.044	15850
917.156	15831
917.268	15679
917.38	15736
917.491	15705
917.603	15694
917.715	15808
917.826	15743
917.938	15610
918.049	15370
918.161	15762
918.272	15759
918.384	15778
918.495	15542
918.606	15492
918.717	15420
918.828	15416
918.939	15466
919.05	15359
919.161	15397
919.272	15199
919.383	15329
919.494	15591
919.604	15519
919.715	15389
919.826	15325
919.936	15374
920.047	15485
920.157	15386
920.267	15610
920.378	15435
920.488	15306
920.598	15633
920.708	15622
920.818	15534
920.928	15458
921.038	15736
921.148	15591
921.258	15310
921.368	15252
921.477	15051
921.587	15138
921.697	15001
921.806	15081
921.916	14895
922.025	14872
922.134	14796
922.244	14678
922.353	14842
922.462	14602
922.571	14590
922.68	14400
922.789	14393
922.898	14381
923.007	14400
923.116	14419
923.224	14400
923.333	14244
923.442	14271
923.55	14248
923.659	14267
923.767	14290
923.876	14161
923.984	14240
924.092	14100
924.201	14126
924.309	14096
924.417	13993
924.525	14065
924.633	13955
924.741	14823
924.849	13826
924.956	13917
925.064	13791
925.172	13662
925.279	13666
925.387	13742
925.494	13647
925.602	13769
925.709	13761
925.816	13658
925.924	13750
926.031	13696
926.138	13677
926.245	13772
926.352	13662
926.459	13772
926.566	13689
926.673	13605
926.779	13453
926.886	13411
926.993	13362
927.099	13362
927.206	13183
927.312	13152
927.419	13331
927.525	13217
927.631	13190
927.737	13175
927.843	13107
927.95	12989
928.056	13023
928.162	13095
928.267	13175
928.373	13753
928.479	13198
928.585	12973
928.69	13076
928.796	13072
928.901	13012
929.007	12764
929.112	12958
929.218	12951
929.323	12829
929.428	12772
929.533	12905
929.638	12787
929.743	12749
929.848	12787
929.953	12703
930.058	12608
930.163	12475
930.267	12494
930.372	12608
930.477	12407
930.581	12692
930.685	12483
930.79	12330
930.894	12422
930.998	12273
931.103	12483
931.207	12076
931.311	11984
931.415	11946
931.519	11745
931.623	11695
