Data from test_V78500241_306.txt Node
Date: Fri Mar 25 15:43:55 CST 2022
User: usil
Spectrometer: V785-0024
Trigger mode: 0
Integration Time (sec): 4.000000E-1
Scans to average: 1
Nonlinearity correction enabled: false
Boxcar width: 0
Storing dark spectrum: false
XAxis mode: Wavelengths
Number of Pixels in Spectrum: 1024
>>>>>Begin Spectral Data<<<<<
801.071	29642
801.214	29600
801.356	29410
801.499	29280
801.641	29204
801.783	29178
801.926	29273
802.068	29117
802.211	28980
802.353	29105
802.496	28972
802.638	28771
802.78	28771
802.923	28801
803.065	28816
803.208	28755
803.35	28854
803.492	28809
803.635	29003
803.777	29003
803.919	29128
804.061	29436
804.204	29064
804.346	29014
804.488	28999
804.63	29216
804.773	28805
804.915	28759
805.057	29132
805.199	28961
805.341	29227
805.483	29258
805.626	29193
805.768	28984
805.91	29277
806.052	29124
806.194	29090
806.336	29383
806.478	29181
806.62	29193
806.762	29273
806.904	29630
807.046	29638
807.188	29623
807.33	29619
807.472	29436
807.614	29524
807.756	29417
807.898	29395
808.04	29368
808.182	29349
808.324	29425
808.465	29455
808.607	29440
808.749	29722
808.891	29950
809.033	30049
809.174	29939
809.316	29950
809.458	29764
809.6	29634
809.741	29832
809.883	29923
810.025	30045
810.166	30041
810.308	30205
810.45	29984
810.591	29950
810.733	29836
810.875	29699
811.016	29684
811.158	29741
811.299	29961
811.441	29920
811.582	29901
811.724	29668
811.865	29802
812.007	29786
812.148	29722
812.29	29817
812.431	29843
812.573	30117
812.714	30289
812.855	30292
812.997	30437
813.138	30479
813.279	30437
813.421	30266
813.562	30296
813.703	30182
813.845	29996
813.986	29737
814.127	29448
814.268	29353
814.41	29516
814.551	29623
814.692	29551
814.833	29417
814.974	29520
815.115	29558
815.256	29360
815.397	29235
815.539	29334
815.68	29064
815.821	29197
815.962	29143
816.103	29147
816.244	29212
816.385	29006
816.526	28847
816.666	28869
816.807	28717
816.948	28717
817.089	28668
817.23	28713
817.371	28653
817.512	28736
817.653	28717
817.793	28637
817.934	28641
818.075	28493
818.216	28672
818.356	28546
818.497	28592
818.638	28409
818.778	28466
818.919	28280
819.06	28405
819.2	28504
819.341	28710
819.481	28462
819.622	28573
819.762	28873
819.903	28854
820.043	28839
820.184	28755
820.324	28675
820.465	28793
820.605	28740
820.746	28710
820.886	28561
821.026	28694
821.167	28622
821.307	28828
821.447	28634
821.588	28474
821.728	28284
821.868	28230
822.008	28082
822.149	28032
822.289	28025
822.429	27751
822.569	27713
822.709	27739
822.849	27488
822.99	27549
823.13	27443
823.27	27382
823.41	27370
823.55	27287
823.69	27431
823.83	27264
823.97	27329
824.11	27108
824.25	27165
824.389	27142
824.529	27306
824.669	27131
824.809	27374
824.949	27176
825.089	27169
825.228	27104
825.368	27001
825.508	26967
825.648	26933
825.787	27024
825.927	27062
826.067	27062
826.206	26994
826.346	26956
826.485	27001
826.625	26876
826.765	27157
826.904	26979
827.044	26781
827.183	26682
827.323	26655
827.462	26701
827.601	26697
827.741	26533
827.88	26724
828.02	26442
828.159	26503
828.298	26674
828.437	26750
828.577	26644
828.716	26697
828.855	26480
828.994	26351
829.134	26476
829.273	26400
829.412	26457
829.551	26278
829.69	26130
829.829	26351
829.968	26301
830.107	26419
830.246	26317
830.385	26271
830.524	26199
830.663	26168
830.802	25982
830.941	25966
831.08	25864
831.219	25951
831.357	25993
831.496	26130
831.635	25803
831.774	25883
831.913	25761
832.051	25635
832.19	25662
832.329	25651
832.467	25529
832.606	25552
832.744	25552
832.883	25635
833.022	25670
833.16	25514
833.299	25582
833.437	25502
833.576	25693
833.714	25567
833.852	25624
833.991	25719
834.129	25677
834.267	25727
834.406	25662
834.544	25563
834.682	25594
834.821	25502
834.959	25655
835.097	25365
835.235	25540
835.373	25457
835.511	25563
835.65	25514
835.788	25301
835.926	25266
836.064	25179
836.202	25297
836.34	25457
836.478	25464
836.615	25304
836.753	25400
836.891	25472
837.029	25225
837.167	25263
837.305	25335
837.443	25168
837.58	25198
837.718	25236
837.856	25301
837.993	25152
838.131	25320
838.269	25046
838.406	25103
838.544	25046
838.681	24817
838.819	24776
838.956	24776
839.094	24776
839.231	24719
839.369	24840
839.506	24973
839.643	24894
839.781	24494
839.918	24566
840.055	24456
840.193	24475
840.33	24494
840.467	24631
840.604	24483
840.742	24783
840.879	24429
841.016	24566
841.153	24372
841.29	24593
841.427	24467
841.564	24357
841.701	24429
841.838	24429
841.975	24422
842.112	24285
842.249	24308
842.385	24254
842.522	24502
842.659	24209
842.796	24216
842.933	24243
843.069	24213
843.206	24174
843.343	24216
843.479	24190
843.616	24186
843.752	24121
843.889	23954
844.025	24102
844.162	23965
844.298	24018
844.435	23973
844.571	23996
844.708	24026
844.844	24110
844.98	23927
845.117	24049
845.253	23904
845.389	23836
845.525	23767
845.661	23786
845.798	23737
845.934	23741
846.07	23687
846.206	23733
846.342	23710
846.478	23665
846.614	23387
846.75	23315
846.886	23353
847.022	23410
847.158	23395
847.294	23337
847.429	23501
847.565	23433
847.701	23653
847.837	23041
847.972	23033
848.108	23216
848.244	23193
848.379	23025
848.515	23105
848.65	22927
848.786	22987
848.921	22980
849.057	23006
849.192	23037
849.328	23060
849.463	23052
849.598	22869
849.734	22915
849.869	22694
850.004	22710
850.14	22740
850.275	22626
850.41	22641
850.545	22679
850.68	22596
850.815	22634
850.95	22713
851.085	22793
851.22	22778
851.355	22675
851.49	22733
851.625	22599
851.76	22656
851.895	22733
852.03	22626
852.165	22694
852.299	22653
852.434	22702
852.569	22729
852.703	22660
852.838	22782
852.973	22809
853.107	22736
853.242	22527
853.376	22497
853.511	22356
853.645	22352
853.78	22489
853.914	22485
854.048	22580
854.183	22432
854.317	22394
854.451	22599
854.585	22535
854.72	22462
854.854	22653
854.988	22409
855.122	22519
855.256	22394
855.39	22390
855.524	22508
855.658	22428
855.792	22508
855.926	22413
856.06	22470
856.194	22599
856.327	22474
856.461	22424
856.595	22379
856.729	22344
856.862	22577
856.996	22413
857.13	22470
857.263	22577
857.397	22565
857.53	22447
857.664	22413
857.797	22459
857.931	22428
858.064	22634
858.197	22550
858.331	22398
858.464	22371
858.597	22337
858.731	22371
858.864	22500
858.997	22386
859.13	22428
859.263	22508
859.396	22554
859.529	22409
859.662	22371
859.795	22348
859.928	22337
860.061	22538
860.194	22554
860.327	22455
860.46	22481
860.592	22538
860.725	22565
860.858	22592
860.99	22443
861.123	22440
861.256	22436
861.388	22504
861.521	23098
861.653	22360
861.786	22238
861.918	22398
862.05	22356
862.183	22424
862.315	22379
862.447	22367
862.58	22455
862.712	22211
862.844	22211
862.976	22242
863.108	22249
863.24	22546
863.372	22086
863.504	22101
863.636	22025
863.768	22249
863.9	22078
864.032	21949
864.164	22067
864.296	22074
864.428	22109
864.559	22120
864.691	22185
864.823	22150
864.954	22059
865.086	22112
865.217	21975
865.349	22021
865.48	22070
865.612	22021
865.743	22112
865.875	22040
866.006	22078
866.137	22010
866.269	21975
866.4	22048
866.531	21964
866.662	21907
866.793	21998
866.924	21930
867.055	21918
867.186	21873
867.317	21831
867.448	21759
867.579	21876
867.71	21831
867.841	21922
867.972	21987
868.103	21915
868.233	21918
868.364	21880
868.495	21972
868.625	22139
868.756	22265
868.886	22036
869.017	22246
869.147	22158
869.278	22230
869.408	22181
869.539	22093
869.669	22169
869.799	22204
869.929	22242
870.06	22268
870.19	22405
870.32	22360
870.45	22455
870.58	22554
870.71	22634
870.84	22577
870.97	22459
871.1	22577
871.23	22828
871.36	22736
871.489	22675
871.619	22862
871.749	22679
871.879	22858
872.008	22862
872.138	22694
872.267	22683
872.397	22710
872.526	22523
872.656	22626
872.785	22504
872.915	22752
873.044	22816
873.173	22550
873.303	22805
873.432	22748
873.561	22801
873.69	22828
873.819	22812
873.948	22812
874.077	22828
874.206	22683
874.335	22679
874.464	22839
874.593	23064
874.722	23018
874.851	23105
874.979	22995
875.108	22953
875.237	22812
875.365	22839
875.494	22957
875.623	23037
875.751	22889
875.88	22999
876.008	23105
876.136	23181
876.265	23315
876.393	23425
876.521	23414
876.65	23391
876.778	23277
876.906	23265
877.034	23356
877.162	23448
877.29	23341
877.418	23341
877.546	23254
877.674	23334
877.802	23315
877.93	23318
878.058	23353
878.185	23261
878.313	23250
878.441	23296
878.568	23018
878.696	23197
878.824	23471
878.951	23261
879.079	23505
879.206	23615
879.333	23444
879.461	23311
879.588	23429
879.715	23497
879.842	23581
879.97	23444
880.097	23056
880.224	23064
880.351	23159
880.478	23235
880.605	22984
880.732	23166
880.859	23242
880.986	23071
881.112	23109
881.239	22919
881.366	22991
881.493	22774
881.619	22691
881.746	22729
881.872	22759
881.999	22679
882.125	22649
882.252	22713
882.378	22588
882.505	22672
882.631	22538
882.757	22489
882.883	22546
883.01	22421
883.136	22432
883.262	22348
883.388	22135
883.514	22402
883.64	22409
883.766	22291
883.892	22196
884.018	22398
884.143	22284
884.269	22318
884.395	22181
884.52	21994
884.646	21926
884.772	21918
884.897	21972
885.023	21998
885.148	22143
885.274	22139
885.399	22120
885.524	21960
885.65	21915
885.775	21907
885.9	22013
886.025	22051
886.15	21949
886.275	22006
886.4	21911
886.525	22040
886.65	21964
886.775	21800
886.9	22135
887.025	22238
887.149	22025
887.274	21861
887.399	21789
887.523	21614
887.648	21701
887.773	21679
887.897	21835
888.021	21785
888.146	21736
888.27	21713
888.395	21747
888.519	21819
888.643	21842
888.767	21797
888.891	21572
889.015	21549
889.139	21667
889.263	21523
889.387	21648
889.511	21701
889.635	21625
889.759	21553
889.883	21519
890.006	21523
890.13	21447
890.254	21374
890.377	21389
890.501	21291
890.624	21313
890.748	21351
890.871	21036
890.995	20975
891.118	21100
891.241	21066
891.364	21123
891.488	21199
891.611	21096
891.734	21009
891.857	21138
891.98	21070
892.103	21096
892.226	21062
892.349	20880
892.471	20941
892.594	21154
892.717	21093
892.839	20925
892.962	21116
893.085	21051
893.207	20998
893.33	20838
893.452	20872
893.575	20967
893.697	20910
893.819	21104
893.941	21154
894.064	21062
894.186	20982
894.308	20857
894.43	21135
894.552	21108
894.674	21055
894.796	20796
894.918	20975
895.04	20963
895.161	20986
895.283	21100
895.405	20857
895.526	20830
895.648	20868
895.769	21074
895.891	20971
896.012	21077
896.134	21058
896.255	21024
896.376	21055
896.498	20876
896.619	20998
896.74	20902
896.861	20998
896.982	21272
897.103	21408
897.224	21230
897.345	21249
897.466	20982
897.587	21146
897.708	21393
897.828	21131
897.949	21062
898.07	20891
898.19	21062
898.311	21268
898.431	21108
898.552	21138
898.672	21188
898.792	21188
898.913	21131
899.033	21135
899.153	21009
899.273	20925
899.393	20902
899.513	20872
899.633	20921
899.753	20899
899.873	20750
899.993	20830
900.113	20746
900.232	20887
900.352	20663
900.472	20693
900.591	20541
900.711	20606
900.83	20579
900.95	20724
901.069	20686
901.189	20492
901.308	20301
901.427	20206
901.546	20237
901.665	20218
901.784	20385
901.904	20012
902.023	20016
902.141	19833
902.26	19719
902.379	19750
902.498	19753
902.617	19635
902.735	19712
902.854	19651
902.973	19521
903.091	19396
903.21	19244
903.328	19304
903.446	19206
903.565	19160
903.683	19285
903.801	19038
903.919	19050
904.038	19183
904.156	18848
904.274	18920
904.392	18947
904.51	18966
904.627	18848
904.745	18928
904.863	18894
904.981	18703
905.098	18620
905.216	18654
905.334	18658
905.451	18642
905.569	18475
905.686	18738
905.803	18517
905.921	18338
906.038	18391
906.155	18262
906.272	18213
906.389	18186
906.506	17996
906.623	18038
906.74	18133
906.857	17889
906.974	17958
907.091	18064
907.208	18228
907.324	17992
907.441	18007
907.557	17866
907.674	17775
907.79	17707
907.907	17771
908.023	17809
908.139	17840
908.256	17680
908.372	17680
908.488	17589
908.604	17596
908.72	17425
908.836	17455
908.952	17493
909.068	17455
909.184	17592
909.3	17417
909.415	17459
909.531	17474
909.647	17197
909.762	17197
909.878	17208
909.993	17155
910.108	17117
910.224	17109
910.339	17071
910.454	17025
910.57	16972
910.685	16866
910.8	17242
910.915	17121
911.03	16984
911.145	16839
911.259	16759
911.374	16634
911.489	16611
911.604	16649
911.718	16493
911.833	16485
911.947	16436
912.062	16322
912.176	16504
912.291	16527
912.405	16390
912.519	16683
912.633	16763
912.748	16459
912.862	16432
912.976	16226
913.09	16124
913.204	16181
913.318	16325
913.431	16371
913.545	16360
913.659	16367
913.772	16223
913.886	16048
914	15918
914.113	16211
914.226	16101
914.34	16219
914.453	16055
914.566	16048
914.68	15865
914.793	16002
914.906	15762
915.019	15713
915.132	15530
915.245	15675
915.358	15686
915.47	15762
915.583	15686
915.696	15648
915.809	15728
915.921	15690
916.034	15584
916.146	15534
916.259	15496
916.371	15614
916.483	15492
916.595	15576
916.708	15504
916.82	15488
916.932	15370
917.044	15401
917.156	15473
917.268	15291
917.38	15199
917.491	15275
917.603	15237
917.715	15367
917.826	15363
917.938	15279
918.049	15097
918.161	15203
918.272	15370
918.384	15332
918.495	15192
918.606	15066
918.717	15020
918.828	15081
918.939	15077
919.05	14986
919.161	14994
919.272	14785
919.383	14982
919.494	14937
919.604	15192
919.715	14937
919.826	14864
919.936	14948
920.047	15116
920.157	14933
920.267	15157
920.378	14952
920.488	14857
920.598	15135
920.708	15226
920.818	15131
920.928	15138
921.038	15214
921.148	15154
921.258	14861
921.368	14807
921.477	14648
921.587	14667
921.697	14473
921.806	14651
921.916	14518
922.025	14298
922.134	14408
922.244	14305
922.353	14313
922.462	14210
922.571	14103
922.68	13902
922.789	13963
922.898	13894
923.007	13921
923.116	13982
923.224	13898
923.333	13875
923.442	13799
923.55	13799
923.659	13681
923.767	13803
923.876	13677
923.984	13734
924.092	13597
924.201	13712
924.309	13791
924.417	13708
924.525	13537
924.633	13571
924.741	14495
924.849	13419
924.956	13487
925.064	13373
925.172	13244
925.279	13381
925.387	13384
925.494	13369
925.602	13480
925.709	13346
925.816	13282
925.924	13396
926.031	13289
926.138	13282
926.245	13365
926.352	13110
926.459	13251
926.566	13304
926.673	13213
926.779	13019
926.886	13034
926.993	12954
927.099	12939
927.206	12753
927.312	12856
927.419	12844
927.525	12840
927.631	12878
927.737	12749
927.843	12696
927.95	12658
928.056	12669
928.162	12745
928.267	12745
928.373	13285
928.479	12753
928.585	12540
928.69	12620
928.796	12635
928.901	12593
929.007	12426
929.112	12498
929.218	12517
929.323	12365
929.428	12365
929.533	12506
929.638	12357
929.743	12395
929.848	12422
929.953	12342
930.058	12171
930.163	12117
930.267	12038
930.372	12266
930.477	12072
930.581	12289
930.685	12079
930.79	11988
930.894	11931
930.998	11901
931.103	12060
931.207	11684
931.311	11592
931.415	11505
931.519	11330
931.623	11250
