Data from test_V78500241_2746.txt Node
Date: Fri Mar 25 16:00:49 CST 2022
User: usil
Spectrometer: V785-0024
Trigger mode: 0
Integration Time (sec): 4.000000E-1
Scans to average: 1
Nonlinearity correction enabled: false
Boxcar width: 0
Storing dark spectrum: false
XAxis mode: Wavelengths
Number of Pixels in Spectrum: 1024
>>>>>Begin Spectral Data<<<<<
801.071	28401
801.214	28436
801.356	28230
801.499	28112
801.641	27972
801.783	27937
801.926	28025
802.068	27979
802.211	27991
802.353	27778
802.496	27854
802.638	27682
802.78	27633
802.923	27663
803.065	27614
803.208	27633
803.35	27774
803.492	27892
803.635	27873
803.777	27671
803.919	27888
804.061	28109
804.204	27937
804.346	27983
804.488	27876
804.63	27892
804.773	27778
804.915	27869
805.057	28044
805.199	27953
805.341	28040
805.483	28200
805.626	28086
805.768	28105
805.91	28112
806.052	28101
806.194	27956
806.336	28185
806.478	28154
806.62	28105
806.762	28200
806.904	28333
807.046	28637
807.188	28519
807.33	28382
807.472	28561
807.614	28455
807.756	28618
807.898	28382
808.04	28348
808.182	28223
808.324	28428
808.465	28470
808.607	28584
808.749	28664
808.891	28843
809.033	28854
809.174	28877
809.316	28767
809.458	28774
809.6	28721
809.741	29029
809.883	28854
810.025	29090
810.166	29102
810.308	29166
810.45	29010
810.591	29022
810.733	28862
810.875	28835
811.016	28725
811.158	28607
811.299	28881
811.441	28946
811.582	28809
811.724	28888
811.865	28752
812.007	28622
812.148	28668
812.29	28831
812.431	28888
812.573	29128
812.714	29212
812.855	29170
812.997	29273
813.138	29505
813.279	29417
813.421	29250
813.562	29189
813.703	28984
813.845	28946
813.986	28748
814.127	28641
814.268	28443
814.41	28531
814.551	28341
814.692	28577
814.833	28272
814.974	28409
815.115	28443
815.256	28200
815.397	28344
815.539	28280
815.68	28348
815.821	28204
815.962	28230
816.103	28238
816.244	28185
816.385	27998
816.526	27956
816.666	27903
816.807	27736
816.948	27831
817.089	27778
817.23	27743
817.371	27663
817.512	27808
817.653	27759
817.793	27770
817.934	27816
818.075	27926
818.216	27679
818.356	27599
818.497	27648
818.638	27435
818.778	27447
818.919	27572
819.06	27587
819.2	27663
819.341	27842
819.481	27781
819.622	27899
819.762	28105
819.903	27953
820.043	27941
820.184	27975
820.324	27823
820.465	28010
820.605	27937
820.746	27972
820.886	27679
821.026	27854
821.167	27694
821.307	27854
821.447	27724
821.588	27755
821.728	27469
821.868	27382
822.008	27306
822.149	27412
822.289	27184
822.429	27009
822.569	27009
822.709	27013
822.849	26727
822.99	26701
823.13	26781
823.27	26716
823.41	26473
823.55	26415
823.69	26571
823.83	26583
823.97	26594
824.11	26290
824.25	26453
824.389	26202
824.529	26442
824.669	26324
824.809	26526
824.949	26461
825.089	26431
825.228	26473
825.368	26199
825.508	26244
825.648	26195
825.787	26351
825.927	26336
826.067	26263
826.206	26408
826.346	26275
826.485	26271
826.625	26183
826.765	26412
826.904	26317
827.044	26088
827.183	26187
827.323	25841
827.462	26058
827.601	25951
827.741	25963
827.88	26020
828.02	25860
828.159	25947
828.298	26149
828.437	26058
828.577	25856
828.716	26107
828.855	25833
828.994	25696
829.134	25700
829.273	25795
829.412	25681
829.551	25540
829.69	25738
829.829	25681
829.968	25742
830.107	25852
830.246	25727
830.385	25582
830.524	25548
830.663	25479
830.802	25479
830.941	25194
831.08	25266
831.219	25438
831.357	25221
831.496	25670
831.635	25411
831.774	25206
831.913	25099
832.051	25122
832.19	25168
832.329	24985
832.467	25004
832.606	24920
832.744	24897
832.883	25023
833.022	24878
833.16	25004
833.299	25065
833.437	24928
833.576	25091
833.714	24928
833.852	25065
833.991	25072
834.129	25061
834.267	24966
834.406	25004
834.544	25023
834.682	25137
834.821	25053
834.959	25103
835.097	24947
835.235	25110
835.373	24992
835.511	24977
835.65	24928
835.788	24875
835.926	24806
836.064	24631
836.202	24601
836.34	24798
836.478	24875
836.615	24700
836.753	25023
836.891	24894
837.029	24856
837.167	24802
837.305	24886
837.443	24642
837.58	24661
837.718	24658
837.856	24597
837.993	24650
838.131	24654
838.269	24486
838.406	24635
838.544	24513
838.681	24353
838.819	24384
838.956	24159
839.094	24159
839.231	24194
839.369	24323
839.506	24494
839.643	24414
839.781	24258
839.918	24216
840.055	24148
840.193	24068
840.33	24015
840.467	24106
840.604	24053
840.742	24338
840.879	23908
841.016	23923
841.153	23931
841.29	24079
841.427	24076
841.564	24057
841.701	24041
841.838	24034
841.975	23931
842.112	23897
842.249	23988
842.385	23737
842.522	23954
842.659	23817
842.796	23756
842.933	23737
843.069	23783
843.206	23783
843.343	23764
843.479	23798
843.616	23672
843.752	23516
843.889	23748
844.025	23859
844.162	23608
844.298	23638
844.435	23551
844.571	23551
844.708	23596
844.844	23764
844.98	23665
845.117	23657
845.253	23524
845.389	23444
845.525	23520
845.661	23421
845.798	23311
845.934	23326
846.07	23330
846.206	23242
846.342	23402
846.478	23379
846.614	23113
846.75	22968
846.886	22923
847.022	23044
847.158	23067
847.294	23128
847.429	23136
847.565	23075
847.701	23277
847.837	22847
847.972	22908
848.108	22915
848.244	22831
848.379	22557
848.515	22607
848.65	22618
848.786	22577
848.921	22641
849.057	22691
849.192	22649
849.328	22702
849.463	22626
849.598	22577
849.734	22538
849.869	22474
850.004	22508
850.14	22284
850.275	22440
850.41	22322
850.545	22265
850.68	22272
850.815	22542
850.95	22318
851.085	22618
851.22	22527
851.355	22344
851.49	22360
851.625	22337
851.76	22337
851.895	22341
852.03	22337
852.165	22440
852.299	22474
852.434	22474
852.569	22398
852.703	22341
852.838	22466
852.973	22497
853.107	22516
853.242	22386
853.376	22253
853.511	22090
853.645	22101
853.78	22211
853.914	22280
854.048	22230
854.183	22337
854.317	22257
854.451	22421
854.585	22185
854.72	22162
854.854	22238
854.988	22139
855.122	22318
855.256	22059
855.39	22291
855.524	22162
855.658	22299
855.792	22215
855.926	22204
856.06	22268
856.194	22280
856.327	22181
856.461	22131
856.595	22116
856.729	22192
856.862	22299
856.996	22192
857.13	22188
857.263	22306
857.397	22299
857.53	22166
857.664	22143
857.797	22215
857.931	22284
858.064	22379
858.197	22356
858.331	22181
858.464	22188
858.597	22135
858.731	22169
858.864	22154
858.997	22139
859.13	22162
859.263	22249
859.396	22196
859.529	22173
859.662	22086
859.795	22040
859.928	22177
860.061	22436
860.194	22390
860.327	22322
860.46	22287
860.592	22291
860.725	22325
860.858	22459
860.99	22158
861.123	22139
861.256	22226
861.388	22280
861.521	22991
861.653	22086
861.786	22032
861.918	22040
862.05	22070
862.183	22093
862.315	22177
862.447	22139
862.58	22162
862.712	21915
862.844	21857
862.976	21998
863.108	21960
863.24	22447
863.372	21949
863.504	21857
863.636	21922
863.768	22006
863.9	21964
864.032	21781
864.164	21869
864.296	21899
864.428	22067
864.559	21930
864.691	22010
864.823	21857
864.954	21831
865.086	21850
865.217	21812
865.349	21713
865.48	21755
865.612	21915
865.743	21876
865.875	21941
866.006	21755
866.137	21804
866.269	21835
866.4	21770
866.531	21671
866.662	21622
866.793	21637
866.924	21797
867.055	21739
867.186	21701
867.317	21778
867.448	21633
867.579	21698
867.71	21694
867.841	21698
867.972	21743
868.103	21701
868.233	21720
868.364	21713
868.495	21682
868.625	21975
868.756	22143
868.886	21941
869.017	21945
869.147	22116
869.278	22128
869.408	22044
869.539	21953
869.669	21907
869.799	21876
869.929	22112
870.06	22013
870.19	22272
870.32	22268
870.45	22211
870.58	22352
870.71	22451
870.84	22500
870.97	22276
871.1	22329
871.23	22569
871.36	22512
871.489	22386
871.619	22630
871.749	22649
871.879	22599
872.008	22569
872.138	22512
872.267	22656
872.397	22314
872.526	22436
872.656	22413
872.785	22459
872.915	22630
873.044	22660
873.173	22713
873.303	22542
873.432	22694
873.561	22706
873.69	22565
873.819	22645
873.948	22759
874.077	22630
874.206	22573
874.335	22626
874.464	22653
874.593	22889
874.722	22828
874.851	22885
874.979	22790
875.108	22866
875.237	22729
875.365	22824
875.494	22778
875.623	22911
875.751	22748
875.88	22774
876.008	22904
876.136	23003
876.265	23299
876.393	23414
876.521	23250
876.65	23269
876.778	23318
876.906	23155
877.034	23113
877.162	23204
877.29	23079
877.418	23155
877.546	23185
877.674	23098
877.802	23200
877.93	23178
878.058	23022
878.185	23067
878.313	23128
878.441	23181
878.568	22927
878.696	23098
878.824	23159
878.951	23227
879.079	23330
879.206	23478
879.333	23395
879.461	23166
879.588	23124
879.715	23200
879.842	23436
879.97	23398
880.097	22915
880.224	23075
880.351	22976
880.478	22915
880.605	22908
880.732	23071
880.859	23246
880.986	22980
881.112	22953
881.239	22862
881.366	22710
881.493	22538
881.619	22565
881.746	22542
881.872	22630
881.999	22599
882.125	22546
882.252	22542
882.378	22500
882.505	22630
882.631	22344
882.757	22230
882.883	22310
883.01	22276
883.136	22173
883.262	22059
883.388	21949
883.514	22166
883.64	22166
883.766	22101
883.892	21994
884.018	22131
884.143	22185
884.269	22219
884.395	21903
884.52	21816
884.646	21941
884.772	21854
884.897	21903
885.023	21895
885.148	21915
885.274	22048
885.399	21918
885.524	21831
885.65	21895
885.775	21838
885.9	21823
886.025	21876
886.15	21861
886.275	21747
886.4	21827
886.525	21755
886.65	21770
886.775	21884
886.9	22017
887.025	22044
887.149	21876
887.274	21599
887.399	21618
887.523	21618
887.648	21641
887.773	21660
887.897	21675
888.021	21663
888.146	21583
888.27	21800
888.395	21701
888.519	21599
888.643	21545
888.767	21679
888.891	21443
889.015	21462
889.139	21329
889.263	21291
889.387	21447
889.511	21660
889.635	21443
889.759	21348
889.883	21279
890.006	21435
890.13	21477
890.254	21462
890.377	21389
890.501	21207
890.624	21150
890.748	21165
890.871	21036
890.995	20906
891.118	20853
891.241	20986
891.364	21047
891.488	21089
891.611	21051
891.734	20998
891.857	20902
891.98	21039
892.103	21104
892.226	21020
892.349	20735
892.471	20724
892.594	20830
892.717	20842
892.839	20948
892.962	20941
893.085	20880
893.207	20823
893.33	20746
893.452	20830
893.575	20960
893.697	20880
893.819	20933
893.941	20956
894.064	20952
894.186	20788
894.308	20640
894.43	20971
894.552	20994
894.674	20868
894.796	20670
894.918	20800
895.04	20834
895.161	20834
895.283	20842
895.405	20712
895.526	20842
895.648	20804
895.769	20880
895.891	20933
896.012	20948
896.134	20849
896.255	20956
896.376	20773
896.498	20937
896.619	20887
896.74	20853
896.861	20800
896.982	21184
897.103	21237
897.224	21123
897.345	21066
897.466	21005
897.587	21135
897.708	21142
897.828	21116
897.949	21142
898.07	20785
898.19	20883
898.311	21062
898.431	21043
898.552	21058
898.672	21028
898.792	21169
898.913	21074
899.033	20880
899.153	20849
899.273	20826
899.393	20914
899.513	20887
899.633	20819
899.753	20781
899.873	20750
899.993	20804
900.113	20629
900.232	20693
900.352	20583
900.472	20575
900.591	20686
900.711	20579
900.83	20514
900.95	20686
901.069	20632
901.189	20438
901.308	20168
901.427	20130
901.546	19989
901.665	20180
901.784	20172
901.904	20065
902.023	19890
902.141	19666
902.26	19681
902.379	19624
902.498	19590
902.617	19597
902.735	19628
902.854	19499
902.973	19635
903.091	19297
903.21	19206
903.328	19266
903.446	19270
903.565	19088
903.683	19107
903.801	19076
903.919	19015
904.038	19080
904.156	18924
904.274	19004
904.392	18886
904.51	18920
904.627	18882
904.745	18859
904.863	18863
904.981	18779
905.098	18532
905.216	18555
905.334	18498
905.451	18601
905.569	18437
905.686	18661
905.803	18559
905.921	18319
906.038	18334
906.155	18334
906.272	18197
906.389	18197
906.506	18087
906.623	18144
906.74	18057
906.857	17958
906.974	17992
907.091	18167
907.208	18266
907.324	18216
907.441	17973
907.557	17874
907.674	17805
907.79	17764
907.907	17733
908.023	17786
908.139	17809
908.256	17771
908.372	17642
908.488	17665
908.604	17474
908.72	17414
908.836	17547
908.952	17368
909.068	17520
909.184	17600
909.3	17509
909.415	17619
909.531	17463
909.647	17296
909.762	17212
909.878	17094
909.993	17299
910.108	17239
910.224	17155
910.339	17086
910.454	17128
910.57	17067
910.685	16984
910.8	17212
910.915	17136
911.03	16980
911.145	16873
911.259	16873
911.374	16698
911.489	16774
911.604	16626
911.718	16550
911.833	16596
911.947	16432
912.062	16443
912.176	16504
912.291	16569
912.405	16550
912.519	16725
912.633	16710
912.748	16599
912.862	16504
912.976	16379
913.09	16196
913.204	16371
913.318	16356
913.431	16360
913.545	16386
913.659	16527
913.772	16287
913.886	16143
914	16207
914.113	16226
914.226	16272
914.34	16181
914.453	16059
914.566	16139
914.68	16010
914.793	16006
914.906	15778
915.019	15793
915.132	15675
915.245	15728
915.358	15709
915.47	15781
915.583	15720
915.696	15774
915.809	15797
915.921	15842
916.034	15660
916.146	15564
916.259	15614
916.371	15637
916.483	15648
916.595	15545
916.708	15629
916.82	15477
916.932	15526
917.044	15488
917.156	15435
917.268	15363
917.38	15367
917.491	15268
917.603	15416
917.715	15428
917.826	15462
917.938	15218
918.049	15180
918.161	15378
918.272	15450
918.384	15454
918.495	15226
918.606	15138
918.717	15017
918.828	15176
918.939	15119
919.05	15039
919.161	15055
919.272	14876
919.383	14986
919.494	15047
919.604	15268
919.715	15032
919.826	14933
919.936	15024
920.047	15058
920.157	14998
920.267	15226
920.378	15077
920.488	14986
920.598	15150
920.708	15294
920.818	15184
920.928	15135
921.038	15173
921.148	15218
921.258	14944
921.368	14937
921.477	14785
921.587	14800
921.697	14670
921.806	14830
921.916	14648
922.025	14442
922.134	14446
922.244	14362
922.353	14450
922.462	14244
922.571	14183
922.68	14103
922.789	14123
922.898	14138
923.007	13970
923.116	14088
923.224	14088
923.333	14001
923.442	13917
923.55	13898
923.659	13932
923.767	13963
923.876	13845
923.984	13803
924.092	13742
924.201	13841
924.309	13784
924.417	13852
924.525	13814
924.633	13670
924.741	14606
924.849	13495
924.956	13620
925.064	13396
925.172	13396
925.279	13430
925.387	13594
925.494	13540
925.602	13556
925.709	13464
925.816	13301
925.924	13411
926.031	13476
926.138	13343
926.245	13453
926.352	13339
926.459	13392
926.566	13422
926.673	13369
926.779	13179
926.886	13160
926.993	13061
927.099	12970
927.206	12947
927.312	12882
927.419	13065
927.525	12920
927.631	12970
927.737	12878
927.843	12757
927.95	12768
928.056	12749
928.162	12829
928.267	12844
928.373	13278
928.479	12852
928.585	12722
928.69	12692
928.796	12734
928.901	12601
929.007	12517
929.112	12692
929.218	12612
929.323	12540
929.428	12593
929.533	12578
929.638	12380
929.743	12536
929.848	12555
929.953	12441
930.058	12327
930.163	12270
930.267	12197
930.372	12353
930.477	12140
930.581	12342
930.685	12182
930.79	12133
930.894	12079
930.998	11992
931.103	12209
931.207	11828
931.311	11775
931.415	11649
931.519	11455
931.623	11433
