Data from test_V78500241_1864.txt Node
Date: Fri Mar 25 15:54:42 CST 2022
User: usil
Spectrometer: V785-0024
Trigger mode: 0
Integration Time (sec): 4.000000E-1
Scans to average: 1
Nonlinearity correction enabled: false
Boxcar width: 0
Storing dark spectrum: false
XAxis mode: Wavelengths
Number of Pixels in Spectrum: 1024
>>>>>Begin Spectral Data<<<<<
801.071	28554
801.214	28485
801.356	28363
801.499	28299
801.641	28143
801.783	28249
801.926	28249
802.068	28131
802.211	28124
802.353	28067
802.496	27956
802.638	27728
802.78	27854
802.923	27720
803.065	27679
803.208	27705
803.35	27743
803.492	28051
803.635	28067
803.777	28032
803.919	28128
804.061	28379
804.204	28032
804.346	27979
804.488	27953
804.63	28078
804.773	27914
804.915	28086
805.057	28371
805.199	28135
805.341	28185
805.483	28143
805.626	28230
805.768	28169
805.91	28139
806.052	28234
806.194	28093
806.336	28363
806.478	28272
806.62	28253
806.762	28348
806.904	28500
807.046	28710
807.188	28618
807.33	28641
807.472	28748
807.614	28649
807.756	28691
807.898	28645
808.04	28470
808.182	28531
808.324	28615
808.465	28641
808.607	28786
808.749	28839
808.891	28930
809.033	29041
809.174	28904
809.316	28972
809.458	28866
809.6	28812
809.741	28972
809.883	29048
810.025	29204
810.166	29269
810.308	29296
810.45	29288
810.591	29014
810.733	29060
810.875	29025
811.016	28786
811.158	28759
811.299	28984
811.441	29064
811.582	29147
811.724	28972
811.865	28774
812.007	28828
812.148	28824
812.29	28953
812.431	29132
812.573	29239
812.714	29391
812.855	29242
812.997	29543
813.138	29589
813.279	29611
813.421	29505
813.562	29474
813.703	29326
813.845	29216
813.986	28999
814.127	28634
814.268	28630
814.41	28706
814.551	28455
814.692	28584
814.833	28607
814.974	28603
815.115	28672
815.256	28497
815.397	28481
815.539	28478
815.68	28443
815.821	28303
815.962	28436
816.103	28512
816.244	28329
816.385	28291
816.526	28200
816.666	27842
816.807	27930
816.948	27987
817.089	27941
817.23	27857
817.371	27895
817.512	27918
817.653	27903
817.793	27930
817.934	27983
818.075	28013
818.216	27808
818.356	27739
818.497	27797
818.638	27618
818.778	27675
818.919	27603
819.06	27804
819.2	27789
819.341	27926
819.481	27903
819.622	28181
819.762	28147
819.903	28139
820.043	28101
820.184	28226
820.324	28078
820.465	28078
820.605	27987
820.746	27987
820.886	27991
821.026	28055
821.167	27949
821.307	28173
821.447	27945
821.588	27903
821.728	27751
821.868	27641
822.008	27488
822.149	27435
822.289	27332
822.429	27108
822.569	27165
822.709	27127
822.849	26956
822.99	26868
823.13	27062
823.27	26857
823.41	26785
823.55	26689
823.69	26735
823.83	26807
823.97	26488
824.11	26480
824.25	26537
824.389	26564
824.529	26598
824.669	26735
824.809	26750
824.949	26659
825.089	26663
825.228	26724
825.368	26473
825.508	26465
825.648	26366
825.787	26408
825.927	26533
826.067	26442
826.206	26442
826.346	26552
826.485	26495
826.625	26301
826.765	26415
826.904	26499
827.044	26202
827.183	26237
827.323	26062
827.462	26161
827.601	26180
827.741	26142
827.88	26107
828.02	26103
828.159	26062
828.298	26153
828.437	26282
828.577	26100
828.716	26138
828.855	25989
828.994	25902
829.134	25890
829.273	25890
829.412	25833
829.551	25811
829.69	25772
829.829	25780
829.968	25860
830.107	25951
830.246	25902
830.385	25765
830.524	25693
830.663	25727
830.802	25464
830.941	25518
831.08	25381
831.219	25525
831.357	25521
831.496	25723
831.635	25362
831.774	25392
831.913	25304
832.051	25198
832.19	25240
832.329	25244
832.467	25217
832.606	25137
832.744	24943
832.883	25190
833.022	25183
833.16	25194
833.299	25232
833.437	25095
833.576	25232
833.714	25297
833.852	25122
833.991	25164
834.129	25266
834.267	25236
834.406	25247
834.544	25213
834.682	25171
834.821	25183
834.959	25320
835.097	25019
835.235	25168
835.373	25091
835.511	25099
835.65	25168
835.788	25038
835.926	24867
836.064	24783
836.202	24928
836.34	25061
836.478	25126
836.615	24970
836.753	25000
836.891	25038
837.029	24920
837.167	24848
837.305	24833
837.443	24745
837.58	24779
837.718	24821
837.856	24897
837.993	24764
838.131	24890
838.269	24700
838.406	24798
838.544	24631
838.681	24418
838.819	24388
838.956	24194
839.094	24273
839.231	24372
839.369	24433
839.506	24768
839.643	24544
839.781	24418
839.918	24277
840.055	24228
840.193	24251
840.33	24232
840.467	24148
840.604	24254
840.742	24414
840.879	24007
841.016	24148
841.153	24087
841.29	24361
841.427	24197
841.564	24205
841.701	24209
841.838	24076
841.975	24197
842.112	24064
842.249	24018
842.385	23939
842.522	24140
842.659	24057
842.796	23992
842.933	23961
843.069	23904
843.206	23817
843.343	23973
843.479	23973
843.616	23996
843.752	23661
843.889	23691
844.025	23855
844.162	23794
844.298	23794
844.435	23916
844.571	23718
844.708	23767
844.844	23984
844.98	23836
845.117	23718
845.253	23596
845.389	23528
845.525	23630
845.661	23585
845.798	23562
845.934	23490
846.07	23417
846.206	23455
846.342	23570
846.478	23501
846.614	23212
846.75	23029
846.886	23235
847.022	23307
847.158	23216
847.294	23231
847.429	23258
847.565	23151
847.701	23391
847.837	22927
847.972	22930
848.108	23006
848.244	23033
848.379	22942
848.515	22702
848.65	22778
848.786	22820
848.921	22763
849.057	22923
849.192	22927
849.328	22801
849.463	22687
849.598	22706
849.734	22592
849.869	22592
850.004	22497
850.14	22497
850.275	22550
850.41	22314
850.545	22481
850.68	22535
850.815	22478
850.95	22573
851.085	22759
851.22	22641
851.355	22637
851.49	22459
851.625	22512
851.76	22527
851.895	22519
852.03	22390
852.165	22504
852.299	22531
852.434	22649
852.569	22618
852.703	22371
852.838	22630
852.973	22656
853.107	22622
853.242	22462
853.376	22318
853.511	22348
853.645	22413
853.78	22607
853.914	22341
854.048	22280
854.183	22428
854.317	22303
854.451	22573
854.585	22337
854.72	22363
854.854	22466
854.988	22280
855.122	22253
855.256	22310
855.39	22398
855.524	22497
855.658	22462
855.792	22348
855.926	22421
856.06	22367
856.194	22424
856.327	22329
856.461	22329
856.595	22413
856.729	22314
856.862	22436
856.996	22451
857.13	22527
857.263	22478
857.397	22542
857.53	22318
857.664	22360
857.797	22417
857.931	22489
858.064	22367
858.197	22432
858.331	22249
858.464	22337
858.597	22226
858.731	22314
858.864	22344
858.997	22333
859.13	22478
859.263	22375
859.396	22523
859.529	22272
859.662	22413
859.795	22325
859.928	22280
860.061	22527
860.194	22641
860.327	22466
860.46	22390
860.592	22474
860.725	22577
860.858	22459
860.99	22470
861.123	22394
861.256	22242
861.388	22352
861.521	23337
861.653	22093
861.786	22200
861.918	22303
862.05	22280
862.183	22306
862.315	22211
862.447	22318
862.58	22177
862.712	22150
862.844	21979
862.976	22131
863.108	22105
863.24	22500
863.372	22120
863.504	22086
863.636	22036
863.768	22109
863.9	22070
864.032	22055
864.164	22059
864.296	22036
864.428	22234
864.559	22036
864.691	22120
864.823	22116
864.954	22059
865.086	21949
865.217	22013
865.349	21850
865.48	21876
865.612	22002
865.743	22154
865.875	21972
866.006	21930
866.137	21888
866.269	22006
866.4	21934
866.531	21842
866.662	21987
866.793	21762
866.924	21747
867.055	21968
867.186	21842
867.317	21899
867.448	21915
867.579	21865
867.71	21823
867.841	21945
867.972	21918
868.103	21823
868.233	21720
868.364	21918
868.495	21857
868.625	22070
868.756	22253
868.886	22048
869.017	22230
869.147	22192
869.278	22295
869.408	22154
869.539	22135
869.669	22147
869.799	22143
869.929	22154
870.06	22246
870.19	22352
870.32	22398
870.45	22398
870.58	22466
870.71	22584
870.84	22580
870.97	22554
871.1	22527
871.23	22649
871.36	22763
871.489	22611
871.619	22660
871.749	22599
871.879	22698
872.008	22721
872.138	22660
872.267	22713
872.397	22634
872.526	22497
872.656	22580
872.785	22485
872.915	22892
873.044	22793
873.173	22649
873.303	22713
873.432	22896
873.561	22877
873.69	22767
873.819	22744
873.948	22767
874.077	22790
874.206	22763
874.335	22805
874.464	22892
874.593	22961
874.722	22957
874.851	23029
874.979	22965
875.108	22976
875.237	22938
875.365	22873
875.494	22866
875.623	23022
875.751	22968
875.88	23006
876.008	23014
876.136	23121
876.265	23254
876.393	23467
876.521	23455
876.65	23448
876.778	23379
876.906	23341
877.034	23269
877.162	23349
877.29	23231
877.418	23269
877.546	23288
877.674	23185
877.802	23193
877.93	23322
878.058	23284
878.185	23174
878.313	23242
878.441	23189
878.568	23147
878.696	23197
878.824	23376
878.951	23364
879.079	23486
879.206	23718
879.333	23436
879.461	23322
879.588	23383
879.715	23474
879.842	23630
879.97	23379
880.097	23025
880.224	23143
880.351	23208
880.478	23200
880.605	23197
880.732	23151
880.859	23315
880.986	23117
881.112	23079
881.239	22968
881.366	22892
881.493	22713
881.619	22736
881.746	22755
881.872	22748
881.999	22611
882.125	22660
882.252	22748
882.378	22649
882.505	22744
882.631	22531
882.757	22424
882.883	22565
883.01	22390
883.136	22291
883.262	22124
883.388	22265
883.514	22356
883.64	22390
883.766	22246
883.892	22090
884.018	22291
884.143	22322
884.269	22443
884.395	22086
884.52	21998
884.646	21922
884.772	21876
884.897	21823
885.023	21972
885.148	22032
885.274	22128
885.399	21926
885.524	21819
885.65	22093
885.775	21869
885.9	22021
886.025	22139
886.15	22059
886.275	21979
886.4	21892
886.525	21930
886.65	21956
886.775	21854
886.9	22051
887.025	22139
887.149	21937
887.274	21797
887.399	21580
887.523	21850
887.648	21720
887.773	21675
887.897	21846
888.021	21926
888.146	21637
888.27	21888
888.395	21835
888.519	21736
888.643	21869
888.767	21648
888.891	21705
889.015	21557
889.139	21682
889.263	21515
889.387	21622
889.511	21747
889.635	21583
889.759	21526
889.883	21561
890.006	21549
890.13	21610
890.254	21439
890.377	21443
890.501	21310
890.624	21298
890.748	21374
890.871	21077
890.995	21062
891.118	20982
891.241	21127
891.364	20998
891.488	21241
891.611	21127
891.734	21096
891.857	21169
891.98	21089
892.103	21055
892.226	21119
892.349	21028
892.471	20849
892.594	21013
892.717	20921
892.839	20956
892.962	20937
893.085	21047
893.207	20883
893.33	20811
893.452	20902
893.575	20994
893.697	20948
893.819	21142
893.941	21245
894.064	21077
894.186	20857
894.308	20918
894.43	21024
894.552	21116
894.674	21085
894.796	20788
894.918	20914
895.04	20944
895.161	21066
895.283	21074
895.405	20929
895.526	21017
895.648	20845
895.769	21020
895.891	21108
896.012	21032
896.134	21039
896.255	21066
896.376	20883
896.498	20910
896.619	21009
896.74	20868
896.861	20952
896.982	21211
897.103	21435
897.224	21245
897.345	21104
897.466	20963
897.587	21203
897.708	21310
897.828	21268
897.949	20963
898.07	20963
898.19	21028
898.311	21260
898.431	21024
898.552	21264
898.672	21218
898.792	21199
898.913	21135
899.033	21055
899.153	20960
899.273	20811
899.393	20982
899.513	20975
899.633	20921
899.753	20891
899.873	20845
899.993	20902
900.113	20861
900.232	20899
900.352	20819
900.472	20746
900.591	20686
900.711	20659
900.83	20648
900.95	20682
901.069	20834
901.189	20609
901.308	20377
901.427	20229
901.546	20271
901.665	20366
901.784	20362
901.904	20183
902.023	20012
902.141	19879
902.26	19780
902.379	19830
902.498	19788
902.617	19624
902.735	19860
902.854	19616
902.973	19620
903.091	19422
903.21	19400
903.328	19331
903.446	19320
903.565	19152
903.683	19263
903.801	19175
903.919	19168
904.038	19190
904.156	19091
904.274	19019
904.392	18909
904.51	18897
904.627	18840
904.745	18932
904.863	18882
904.981	18722
905.098	18506
905.216	18555
905.334	18650
905.451	18631
905.569	18578
905.686	18658
905.803	18597
905.921	18380
906.038	18585
906.155	18471
906.272	18273
906.389	18350
906.506	18254
906.623	18228
906.74	18216
906.857	18015
906.974	18022
907.091	18155
907.208	18254
907.324	18136
907.441	17992
907.557	17923
907.674	17786
907.79	17745
907.907	17775
908.023	17870
908.139	17916
908.256	17832
908.372	17672
908.488	17813
908.604	17627
908.72	17547
908.836	17551
908.952	17558
909.068	17592
909.184	17691
909.3	17577
909.415	17573
909.531	17573
909.647	17280
909.762	17288
909.878	17200
909.993	17227
910.108	17246
910.224	17250
910.339	17162
910.454	17105
910.57	17060
910.685	17045
910.8	17261
910.915	17311
911.03	16987
911.145	16915
911.259	16801
911.374	16869
911.489	16721
911.604	16755
911.718	16618
911.833	16618
911.947	16478
912.062	16455
912.176	16558
912.291	16630
912.405	16535
912.519	16862
912.633	16790
912.748	16611
912.862	16580
912.976	16394
913.09	16173
913.204	16344
913.318	16459
913.431	16402
913.545	16508
913.659	16565
913.772	16314
913.886	16303
914	16207
914.113	16284
914.226	16200
914.34	16230
914.453	16109
914.566	16284
914.68	16040
914.793	16048
914.906	15743
915.019	15808
915.132	15698
915.245	15747
915.358	15850
915.47	15774
915.583	15895
915.696	15823
915.809	15819
915.921	15926
916.034	15675
916.146	15671
916.259	15694
916.371	15686
916.483	15728
916.595	15622
916.708	15515
916.82	15530
916.932	15633
917.044	15485
917.156	15473
917.268	15450
917.38	15336
917.491	15348
917.603	15401
917.715	15435
917.826	15523
917.938	15249
918.049	15279
918.161	15332
918.272	15401
918.384	15393
918.495	15272
918.606	15233
918.717	15093
918.828	15131
918.939	15195
919.05	15085
919.161	15195
919.272	14963
919.383	15001
919.494	15203
919.604	15469
919.715	15146
919.826	15017
919.936	15070
920.047	15127
920.157	15165
920.267	15283
920.378	15085
920.488	15081
920.598	15294
920.708	15386
920.818	15207
920.928	15161
921.038	15355
921.148	15237
921.258	15047
921.368	14986
921.477	14880
921.587	14864
921.697	14670
921.806	14838
921.916	14674
922.025	14484
922.134	14469
922.244	14461
922.353	14454
922.462	14290
922.571	14271
922.68	14145
922.789	14130
922.898	14172
923.007	14043
923.116	14248
923.224	14187
923.333	14103
923.442	13955
923.55	13936
923.659	13894
923.767	13974
923.876	13841
923.984	13970
924.092	13856
924.201	13818
924.309	13849
924.417	13849
924.525	13814
924.633	13704
924.741	14495
924.849	13571
924.956	13685
925.064	13502
925.172	13445
925.279	13426
925.387	13525
925.494	13476
925.602	13624
925.709	13552
925.816	13384
925.924	13365
926.031	13548
926.138	13354
926.245	13441
926.352	13293
926.459	13464
926.566	13441
926.673	13324
926.779	13255
926.886	13206
926.993	13095
927.099	13095
927.206	12947
927.312	12966
927.419	13133
927.525	12958
927.631	13084
927.737	12852
927.843	12875
927.95	12783
928.056	12916
928.162	12924
928.267	12821
928.373	13468
928.479	12856
928.585	12669
928.69	12768
928.796	12810
928.901	12665
929.007	12498
929.112	12692
929.218	12646
929.323	12532
929.428	12547
929.533	12688
929.638	12502
929.743	12467
929.848	12620
929.953	12418
930.058	12437
930.163	12270
930.267	12197
930.372	12414
930.477	12171
930.581	12365
930.685	12258
930.79	12148
930.894	12133
930.998	12076
931.103	12232
931.207	11817
931.311	11760
931.415	11684
931.519	11459
931.623	11535
