Data from test_V78500241_2229.txt Node
Date: Fri Mar 25 15:57:14 CST 2022
User: usil
Spectrometer: V785-0024
Trigger mode: 0
Integration Time (sec): 4.000000E-1
Scans to average: 1
Nonlinearity correction enabled: false
Boxcar width: 0
Storing dark spectrum: false
XAxis mode: Wavelengths
Number of Pixels in Spectrum: 1024
>>>>>Begin Spectral Data<<<<<
801.071	29216
801.214	29231
801.356	28991
801.499	28961
801.641	28850
801.783	28793
801.926	28778
802.068	28881
802.211	28759
802.353	28816
802.496	28436
802.638	28675
802.78	28573
802.923	28481
803.065	28405
803.208	28481
803.35	28710
803.492	28691
803.635	28702
803.777	28710
803.919	28816
804.061	29151
804.204	28824
804.346	28748
804.488	28736
804.63	28885
804.773	28767
804.915	28835
805.057	29048
805.199	28934
805.341	28961
805.483	28953
805.626	28987
805.768	29014
805.91	29113
806.052	29124
806.194	28927
806.336	29273
806.478	29044
806.62	29033
806.762	29174
806.904	29284
807.046	29611
807.188	29471
807.33	29379
807.472	29642
807.614	29455
807.756	29395
807.898	29315
808.04	29315
808.182	29280
808.324	29318
808.465	29440
808.607	29573
808.749	29771
808.891	29973
809.033	30034
809.174	29805
809.316	29794
809.458	29745
809.6	29676
809.741	29729
809.883	29832
810.025	30018
810.166	29908
810.308	29897
810.45	29901
810.591	29878
810.733	29920
810.875	29729
811.016	29745
811.158	29482
811.299	29920
811.441	29988
811.582	29950
811.724	29684
811.865	29726
812.007	29748
812.148	29756
812.29	29851
812.431	30018
812.573	30064
812.714	30270
812.855	30186
812.997	30353
813.138	30471
813.279	30460
813.421	30285
813.562	30254
813.703	29996
813.845	30053
813.986	29824
814.127	29699
814.268	29444
814.41	29520
814.551	29539
814.692	29501
814.833	29417
814.974	29452
815.115	29577
815.256	29349
815.397	29414
815.539	29349
815.68	29341
815.821	29231
815.962	29425
816.103	29307
816.244	29128
816.385	29083
816.526	29121
816.666	28908
816.807	28786
816.948	28980
817.089	28927
817.23	28797
817.371	28786
817.512	28801
817.653	28790
817.793	28786
817.934	28885
818.075	28809
818.216	28755
818.356	28862
818.497	28740
818.638	28679
818.778	28577
818.919	28596
819.06	28637
819.2	28672
819.341	28675
819.481	28771
819.622	29018
819.762	29159
819.903	29018
820.043	28999
820.184	28949
820.324	29086
820.465	28923
820.605	28938
820.746	28961
820.886	28881
821.026	28953
821.167	28881
821.307	28908
821.447	28911
821.588	28812
821.728	28656
821.868	28424
822.008	28382
822.149	28333
822.289	28348
822.429	27991
822.569	28040
822.709	27865
822.849	27846
822.99	27781
823.13	27846
823.27	27781
823.41	27755
823.55	27553
823.69	27724
823.83	27625
823.97	27492
824.11	27557
824.25	27401
824.389	27435
824.529	27694
824.669	27603
824.809	27793
824.949	27462
825.089	27473
825.228	27477
825.368	27199
825.508	27355
825.648	27367
825.787	27325
825.927	27500
826.067	27370
826.206	27332
826.346	27355
826.485	27507
826.625	27283
826.765	27439
826.904	27355
827.044	27165
827.183	27195
827.323	27024
827.462	27176
827.601	27116
827.741	26998
827.88	27138
828.02	27032
828.159	27074
828.298	27077
828.437	27180
828.577	27077
828.716	27195
828.855	26921
828.994	26701
829.134	26826
829.273	26834
829.412	26716
829.551	26758
829.69	26845
829.829	26758
829.968	26815
830.107	26777
830.246	26720
830.385	26579
830.524	26632
830.663	26720
830.802	26507
830.941	26423
831.08	26248
831.219	26442
831.357	26469
831.496	26526
831.635	26385
831.774	26351
831.913	26305
832.051	26195
832.19	26244
832.329	26263
832.467	26046
832.606	26062
832.744	25974
832.883	25936
833.022	25913
833.16	26096
833.299	26069
833.437	26039
833.576	26180
833.714	26100
833.852	26111
833.991	26191
834.129	26164
834.267	26138
834.406	26043
834.544	26142
834.682	26176
834.821	26073
834.959	26180
835.097	26031
835.235	26240
835.373	26145
835.511	26111
835.65	26031
835.788	25944
835.926	25791
836.064	25734
836.202	25753
836.34	25974
836.478	25966
836.615	25883
836.753	26016
836.891	25974
837.029	25955
837.167	25974
837.305	25715
837.443	25906
837.58	25685
837.718	25734
837.856	25750
837.993	25696
838.131	25723
838.269	25784
838.406	25685
838.544	25472
838.681	25381
838.819	25457
838.956	25282
839.094	25232
839.231	25350
839.369	25312
839.506	25540
839.643	25384
839.781	25183
839.918	25152
840.055	25225
840.193	25114
840.33	25069
840.467	25202
840.604	25126
840.742	25407
840.879	25023
841.016	24985
841.153	24958
841.29	25301
841.427	25129
841.564	25137
841.701	25069
841.838	25008
841.975	25103
842.112	25023
842.249	24924
842.385	24897
842.522	25095
842.659	24924
842.796	24821
842.933	24806
843.069	24901
843.206	24882
843.343	25015
843.479	25023
843.616	24958
843.752	24753
843.889	24703
844.025	24684
844.162	24684
844.298	24776
844.435	24555
844.571	24513
844.708	24726
844.844	24764
844.98	24665
845.117	24768
845.253	24589
845.389	24376
845.525	24517
845.661	24582
845.798	24277
845.934	24429
846.07	24315
846.206	24334
846.342	24559
846.478	24300
846.614	24030
846.75	23904
846.886	23969
847.022	24254
847.158	24095
847.294	24110
847.429	24102
847.565	23988
847.701	24369
847.837	23923
847.972	23714
848.108	23901
848.244	23893
848.379	23543
848.515	23646
848.65	23649
848.786	23649
848.921	23737
849.057	23764
849.192	23786
849.328	23653
849.463	23703
849.598	23471
849.734	23634
849.869	23490
850.004	23414
850.14	23429
850.275	23318
850.41	23414
850.545	23349
850.68	23444
850.815	23421
850.95	23353
851.085	23452
851.22	23611
851.355	23490
851.49	23512
851.625	23383
851.76	23398
851.895	23315
852.03	23376
852.165	23360
852.299	23402
852.434	23486
852.569	23414
852.703	23429
852.838	23368
852.973	23573
853.107	23535
853.242	23425
853.376	23315
853.511	23052
853.645	23208
853.78	23265
853.914	23124
854.048	23121
854.183	23258
854.317	23280
854.451	23535
854.585	23284
854.72	23174
854.854	23364
854.988	23231
855.122	23258
855.256	23113
855.39	23185
855.524	23242
855.658	23185
855.792	23216
855.926	23261
856.06	23284
856.194	23364
856.327	23193
856.461	23075
856.595	23223
856.729	23189
856.862	23318
856.996	23174
857.13	23330
857.263	23341
857.397	23467
857.53	23216
857.664	23140
857.797	23288
857.931	23326
858.064	23189
858.197	23132
858.331	23231
858.464	23140
858.597	23003
858.731	23208
858.864	23216
858.997	23269
859.13	23109
859.263	23246
859.396	23254
859.529	23132
859.662	23140
859.795	23105
859.928	23185
860.061	23379
860.194	23398
860.327	23353
860.46	23398
860.592	23360
860.725	23398
860.858	23417
860.99	23239
861.123	23296
861.256	23197
861.388	23315
861.521	23870
861.653	23155
861.786	22946
861.918	23056
862.05	23003
862.183	23064
862.315	23136
862.447	23212
862.58	23189
862.712	22987
862.844	22873
862.976	22953
863.108	23083
863.24	23334
863.372	22877
863.504	22957
863.636	22862
863.768	22976
863.9	22850
864.032	22896
864.164	22953
864.296	23022
864.428	22942
864.559	22980
864.691	22984
864.823	22919
864.954	22942
865.086	22900
865.217	22797
865.349	22721
865.48	22675
865.612	22771
865.743	22968
865.875	22797
866.006	22820
866.137	22771
866.269	22816
866.4	22881
866.531	22850
866.662	22679
866.793	22752
866.924	22717
867.055	22702
867.186	22752
867.317	22877
867.448	22573
867.579	22649
867.71	22618
867.841	22721
867.972	22672
868.103	22672
868.233	22687
868.364	22668
868.495	22801
868.625	22869
868.756	23075
868.886	22873
869.017	22881
869.147	23044
869.278	23052
869.408	23018
869.539	22930
869.669	23143
869.799	23029
869.929	23117
870.06	23018
870.19	23204
870.32	23193
870.45	23303
870.58	23360
870.71	23512
870.84	23486
870.97	23372
871.1	23277
871.23	23589
871.36	23505
871.489	23573
871.619	23448
871.749	23604
871.879	23505
872.008	23687
872.138	23490
872.267	23524
872.397	23436
872.526	23280
872.656	23501
872.785	23337
872.915	23497
873.044	23680
873.173	23684
873.303	23649
873.432	23585
873.561	23668
873.69	23604
873.819	23459
873.948	23608
874.077	23547
874.206	23497
874.335	23501
874.464	23733
874.593	23813
874.722	23764
874.851	23802
874.979	23836
875.108	23828
875.237	23775
875.365	23756
875.494	23786
875.623	23821
875.751	23687
875.88	23676
876.008	23920
876.136	24064
876.265	24121
876.393	24296
876.521	24186
876.65	24140
876.778	24201
876.906	24079
877.034	24091
877.162	24136
877.29	24114
877.418	24053
877.546	24068
877.674	24133
877.802	24064
877.93	23954
878.058	23984
878.185	23954
878.313	24087
878.441	24026
878.568	24057
878.696	24068
878.824	24114
878.951	24171
879.079	24213
879.206	24521
879.333	24296
879.461	24106
879.588	24174
879.715	24194
879.842	24338
879.97	24174
880.097	23863
880.224	23920
880.351	24018
880.478	23878
880.605	23882
880.732	23939
880.859	24098
880.986	23950
881.112	23954
881.239	23843
881.366	23642
881.493	23611
881.619	23463
881.746	23535
881.872	23570
881.999	23448
882.125	23315
882.252	23493
882.378	23463
882.505	23570
882.631	23254
882.757	23109
882.883	23117
883.01	23086
883.136	23113
883.262	22949
883.388	22972
883.514	23136
883.64	23060
883.766	22995
883.892	22877
884.018	22843
884.143	23094
884.269	23105
884.395	22858
884.52	22805
884.646	22729
884.772	22725
884.897	22748
885.023	22607
885.148	22824
885.274	22843
885.399	22778
885.524	22736
885.65	22733
885.775	22812
885.9	22774
886.025	22767
886.15	22843
886.275	22733
886.4	22634
886.525	22641
886.65	22672
886.775	22702
886.9	22862
887.025	23006
887.149	22752
887.274	22698
887.399	22512
887.523	22607
887.648	22375
887.773	22356
887.897	22599
888.021	22584
888.146	22523
888.27	22603
888.395	22801
888.519	22455
888.643	22500
888.767	22489
888.891	22344
889.015	22284
889.139	22337
889.263	22341
889.387	22409
889.511	22478
889.635	22398
889.759	22226
889.883	22291
890.006	22257
890.13	22299
890.254	22162
890.377	22284
890.501	21934
890.624	21972
890.748	22017
890.871	21888
890.995	21960
891.118	21819
891.241	21857
891.364	21823
891.488	22032
891.611	21869
891.734	21812
891.857	21937
891.98	21739
892.103	21854
892.226	21812
892.349	21804
892.471	21648
892.594	21732
892.717	21835
892.839	21644
892.962	21816
893.085	21781
893.207	21747
893.33	21583
893.452	21625
893.575	21644
893.697	21698
893.819	21873
893.941	21937
894.064	21869
894.186	21652
894.308	21515
894.43	21865
894.552	21827
894.674	21922
894.796	21488
894.918	21641
895.04	21591
895.161	21724
895.283	21759
895.405	21633
895.526	21576
895.648	21622
895.769	21663
895.891	21633
896.012	21720
896.134	21709
896.255	21743
896.376	21713
896.498	21671
896.619	21789
896.74	21583
896.861	21629
896.982	22032
897.103	22036
897.224	22048
897.345	21873
897.466	21747
897.587	21873
897.708	21968
897.828	21903
897.949	21827
898.07	21705
898.19	21743
898.311	21911
898.431	21732
898.552	21915
898.672	21857
898.792	21827
898.913	21781
899.033	21675
899.153	21656
899.273	21538
899.393	21618
899.513	21526
899.633	21595
899.753	21526
899.873	21526
899.993	21641
900.113	21481
900.232	21557
900.352	21614
900.472	21370
900.591	21416
900.711	21389
900.83	21294
900.95	21336
901.069	21553
901.189	21272
901.308	20998
901.427	20830
901.546	20899
901.665	20910
901.784	20925
901.904	20758
902.023	20697
902.141	20408
902.26	20454
902.379	20465
902.498	20438
902.617	20362
902.735	20275
902.854	20332
902.973	20248
903.091	20263
903.21	20001
903.328	20084
903.446	19856
903.565	19902
903.683	19894
903.801	19662
903.919	19761
904.038	19788
904.156	19601
904.274	19559
904.392	19502
904.51	19578
904.627	19533
904.745	19677
904.863	19582
904.981	19403
905.098	19206
905.216	19202
905.334	19274
905.451	19198
905.569	19266
905.686	19289
905.803	19255
905.921	18920
906.038	19198
906.155	19057
906.272	18890
906.389	18943
906.506	18882
906.623	18779
906.74	18703
906.857	18669
906.974	18715
907.091	18829
907.208	18909
907.324	18821
907.441	18741
907.557	18414
907.674	18506
907.79	18441
907.907	18494
908.023	18502
908.139	18327
908.256	18441
908.372	18239
908.488	18311
908.604	18239
908.72	18106
908.836	18174
908.952	18110
909.068	18224
909.184	18258
909.3	18213
909.415	18281
909.531	18178
909.647	17836
909.762	17885
909.878	17863
909.993	17923
910.108	17821
910.224	17821
910.339	17779
910.454	17646
910.57	17680
910.685	17634
910.8	17847
910.915	17779
911.03	17623
911.145	17402
911.259	17478
911.374	17455
911.489	17349
911.604	17311
911.718	17197
911.833	17242
911.947	17170
912.062	17037
912.176	17200
912.291	17216
912.405	17208
912.519	17364
912.633	17296
912.748	17288
912.862	17178
912.976	16949
913.09	16930
913.204	16873
913.318	17045
913.431	17025
913.545	17037
913.659	17098
913.772	16881
913.886	16889
914	16790
914.113	16892
914.226	16892
914.34	16831
914.453	16618
914.566	16759
914.68	16713
914.793	16596
914.906	16443
915.019	16356
915.132	16284
915.245	16352
915.358	16348
915.47	16314
915.583	16344
915.696	16333
915.809	16451
915.921	16398
916.034	16280
916.146	16265
916.259	16226
916.371	16291
916.483	16284
916.595	16158
916.708	16230
916.82	16109
916.932	16101
917.044	15983
917.156	16055
917.268	15930
917.38	15953
917.491	15915
917.603	15953
917.715	15960
917.826	15934
917.938	15918
918.049	15667
918.161	15827
918.272	16025
918.384	15941
918.495	15854
918.606	15644
918.717	15648
918.828	15747
918.939	15724
919.05	15564
919.161	15572
919.272	15492
919.383	15542
919.494	15660
919.604	15812
919.715	15652
919.826	15549
919.936	15618
920.047	15747
920.157	15667
920.267	15774
920.378	15568
920.488	15564
920.598	15781
920.708	15842
920.818	15861
920.928	15675
921.038	15854
921.148	15835
921.258	15603
921.368	15492
921.477	15367
921.587	15241
921.697	15218
921.806	15245
921.916	15180
922.025	14979
922.134	14906
922.244	14910
922.353	14986
922.462	14804
922.571	14872
922.68	14648
922.789	14587
922.898	14697
923.007	14537
923.116	14644
923.224	14655
923.333	14488
923.442	14454
923.55	14465
923.659	14427
923.767	14469
923.876	14336
923.984	14423
924.092	14294
924.201	14336
924.309	14229
924.417	14259
924.525	14233
924.633	14199
924.741	14975
924.849	14035
924.956	14153
925.064	13936
925.172	13887
925.279	13932
925.387	13963
925.494	13830
925.602	13951
925.709	13944
925.816	13811
925.924	13799
926.031	13951
926.138	13936
926.245	13906
926.352	13761
926.459	13811
926.566	13959
926.673	13803
926.779	13753
926.886	13712
926.993	13502
927.099	13350
927.206	13449
927.312	13396
927.419	13438
927.525	13400
927.631	13449
927.737	13369
927.843	13339
927.95	13164
928.056	13198
928.162	13312
928.267	13270
928.373	13890
928.479	13304
928.585	13080
928.69	13202
928.796	13175
928.901	13225
929.007	12962
929.112	13175
929.218	13110
929.323	12973
929.428	12981
929.533	13095
929.638	12882
929.743	12916
929.848	13080
929.953	12833
930.058	12844
930.163	12639
930.267	12639
930.372	12734
930.477	12604
930.581	12829
930.685	12738
930.79	12471
930.894	12551
930.998	12376
931.103	12623
931.207	12239
931.311	12167
931.415	12110
931.519	11802
931.623	11882
