Data from test_V78500241_2733.txt Node
Date: Fri Mar 25 16:00:43 CST 2022
User: usil
Spectrometer: V785-0024
Trigger mode: 0
Integration Time (sec): 4.000000E-1
Scans to average: 1
Nonlinearity correction enabled: false
Boxcar width: 0
Storing dark spectrum: false
XAxis mode: Wavelengths
Number of Pixels in Spectrum: 1024
>>>>>Begin Spectral Data<<<<<
801.071	28927
801.214	28763
801.356	28577
801.499	28398
801.641	28493
801.783	28333
801.926	28447
802.068	28573
802.211	28341
802.353	28249
802.496	28124
802.638	28101
802.78	28120
802.923	28234
803.065	28090
803.208	28013
803.35	28150
803.492	28192
803.635	28417
803.777	28196
803.919	28276
804.061	28675
804.204	28481
804.346	28265
804.488	28360
804.63	28337
804.773	28337
804.915	28405
805.057	28489
805.199	28417
805.341	28527
805.483	28493
805.626	28584
805.768	28367
805.91	28538
806.052	28588
806.194	28428
806.336	28736
806.478	28588
806.62	28516
806.762	28698
806.904	28755
807.046	29128
807.188	28896
807.33	28999
807.472	29136
807.614	28866
807.756	28896
807.898	28923
808.04	28873
808.182	28828
808.324	28915
808.465	28987
808.607	28980
808.749	29250
808.891	29349
809.033	29349
809.174	29368
809.316	29170
809.458	29296
809.6	29231
809.741	29410
809.883	29353
810.025	29421
810.166	29478
810.308	29463
810.45	29368
810.591	29402
810.733	29372
810.875	29254
811.016	28968
811.158	29086
811.299	29379
811.441	29353
811.582	29421
811.724	29410
811.865	29231
812.007	29197
812.148	29280
812.29	29368
812.431	29436
812.573	29554
812.714	29539
812.855	29741
812.997	29821
813.138	29980
813.279	29908
813.421	29748
813.562	29748
813.703	29581
813.845	29516
813.986	29117
814.127	29083
814.268	28961
814.41	29067
814.551	28896
814.692	29083
814.833	28987
814.974	28923
815.115	29064
815.256	28664
815.397	28812
815.539	28774
815.68	28759
815.821	28641
815.962	28786
816.103	28710
816.244	28713
816.385	28660
816.526	28584
816.666	28379
816.807	28348
816.948	28421
817.089	28557
817.23	28287
817.371	28295
817.512	28207
817.653	28314
817.793	28329
817.934	28276
818.075	28223
818.216	28223
818.356	28329
818.497	28242
818.638	27922
818.778	28006
818.919	28090
819.06	28238
819.2	28169
819.341	28291
819.481	28101
819.622	28470
819.762	28527
819.903	28573
820.043	28565
820.184	28451
820.324	28485
820.465	28432
820.605	28428
820.746	28436
820.886	28447
821.026	28428
821.167	28523
821.307	28504
821.447	28341
821.588	28257
821.728	28143
821.868	27949
822.008	27903
822.149	27789
822.289	27724
822.429	27526
822.569	27523
822.709	27408
822.849	27351
822.99	27275
823.13	27279
823.27	27188
823.41	27020
823.55	27013
823.69	27062
823.83	27192
823.97	26994
824.11	26925
824.25	26864
824.389	26914
824.529	26944
824.669	26921
824.809	27089
824.949	27043
825.089	26891
825.228	27081
825.368	26804
825.508	26849
825.648	26670
825.787	26940
825.927	26891
826.067	26895
826.206	26727
826.346	26921
826.485	26849
826.625	26712
826.765	26963
826.904	26823
827.044	26678
827.183	26667
827.323	26518
827.462	26598
827.601	26590
827.741	26503
827.88	26457
828.02	26427
828.159	26579
828.298	26575
828.437	26560
828.577	26484
828.716	26663
828.855	26465
828.994	26309
829.134	26107
829.273	26362
829.412	26195
829.551	26180
829.69	26202
829.829	26263
829.968	26229
830.107	26309
830.246	26191
830.385	26088
830.524	26073
830.663	26035
830.802	25864
830.941	25746
831.08	25746
831.219	25909
831.357	26027
831.496	26024
831.635	25837
831.774	25639
831.913	25704
832.051	25712
832.19	25529
832.329	25548
832.467	25540
832.606	25426
832.744	25350
832.883	25411
833.022	25476
833.16	25468
833.299	25514
833.437	25544
833.576	25540
833.714	25483
833.852	25746
833.991	25616
834.129	25674
834.267	25655
834.406	25597
834.544	25487
834.682	25407
834.821	25582
834.959	25788
835.097	25460
835.235	25441
835.373	25609
835.511	25518
835.65	25339
835.788	25460
835.926	25312
836.064	25168
836.202	25190
836.34	25388
836.478	25434
836.615	25301
836.753	25358
836.891	25388
837.029	25327
837.167	25244
837.305	25289
837.443	25190
837.58	25160
837.718	25289
837.856	25228
837.993	25110
838.131	25221
838.269	25175
838.406	25160
838.544	25065
838.681	24772
838.819	24798
838.956	24692
839.094	24620
839.231	24821
839.369	24928
839.506	25023
839.643	24875
839.781	24665
839.918	24654
840.055	24711
840.193	24681
840.33	24582
840.467	24532
840.604	24677
840.742	24760
840.879	24304
841.016	24517
841.153	24380
841.29	24707
841.427	24563
841.564	24593
841.701	24582
841.838	24642
841.975	24536
842.112	24532
842.249	24235
842.385	24254
842.522	24521
842.659	24353
842.796	24270
842.933	24357
843.069	24433
843.206	24285
843.343	24270
843.479	24422
843.616	24266
843.752	24125
843.889	24194
844.025	24262
844.162	24144
844.298	24186
844.435	24064
844.571	24053
844.708	24213
844.844	24235
844.98	24174
845.117	24213
845.253	24072
845.389	23973
845.525	23897
845.661	23920
845.798	23771
845.934	23950
846.07	23870
846.206	23855
846.342	23931
846.478	23710
846.614	23695
846.75	23471
846.886	23429
847.022	23611
847.158	23497
847.294	23551
847.429	23596
847.565	23547
847.701	23767
847.837	23288
847.972	23315
848.108	23341
848.244	23490
848.379	23181
848.515	23128
848.65	23189
848.786	23292
848.921	23117
849.057	23269
849.192	23239
849.328	23216
849.463	23086
849.598	23242
849.734	23060
849.869	22927
850.004	22934
850.14	22957
850.275	23025
850.41	22869
850.545	22881
850.68	22862
850.815	22938
850.95	22831
851.085	23174
851.22	23090
851.355	22889
851.49	22869
851.625	22923
851.76	22930
851.895	22809
852.03	22801
852.165	22809
852.299	22889
852.434	22984
852.569	22923
852.703	22908
852.838	22984
852.973	23041
853.107	23048
853.242	22790
853.376	22706
853.511	22615
853.645	22691
853.78	22767
853.914	22656
854.048	22713
854.183	22725
854.317	22763
854.451	23105
854.585	22729
854.72	22752
854.854	22793
854.988	22603
855.122	22615
855.256	22611
855.39	22702
855.524	22733
855.658	22793
855.792	22767
855.926	22721
856.06	22835
856.194	22752
856.327	22725
856.461	22763
856.595	22584
856.729	22702
856.862	22835
856.996	22736
857.13	22801
857.263	22858
857.397	22801
857.53	22668
857.664	22664
857.797	22942
857.931	22812
858.064	22687
858.197	22778
858.331	22759
858.464	22649
858.597	22615
858.731	22755
858.864	22664
858.997	22588
859.13	22531
859.263	22675
859.396	22858
859.529	22786
859.662	22672
859.795	22774
859.928	22721
860.061	22782
860.194	22896
860.327	22729
860.46	22573
860.592	22828
860.725	22820
860.858	22771
860.99	22733
861.123	22675
861.256	22607
861.388	22839
861.521	23512
861.653	22649
861.786	22500
861.918	22618
862.05	22596
862.183	22615
862.315	22637
862.447	22717
862.58	22592
862.712	22390
862.844	22230
862.976	22523
863.108	22611
863.24	22896
863.372	22398
863.504	22440
863.636	22546
863.768	22516
863.9	22382
864.032	22291
864.164	22382
864.296	22299
864.428	22569
864.559	22538
864.691	22516
864.823	22352
864.954	22481
865.086	22470
865.217	22318
865.349	22204
865.48	22344
865.612	22341
865.743	22428
865.875	22299
866.006	22390
866.137	22242
866.269	22314
866.4	22200
866.531	22284
866.662	22287
866.793	22139
866.924	22238
867.055	22169
867.186	22219
867.317	22257
867.448	22173
867.579	22249
867.71	22253
867.841	22120
867.972	22246
868.103	22188
868.233	22291
868.364	22093
868.495	22329
868.625	22409
868.756	22611
868.886	22318
869.017	22512
869.147	22592
869.278	22497
869.408	22531
869.539	22455
869.669	22462
869.799	22561
869.929	22508
870.06	22573
870.19	22801
870.32	22763
870.45	22809
870.58	22854
870.71	22831
870.84	22927
870.97	22828
871.1	22923
871.23	23083
871.36	23143
871.489	23014
871.619	22987
871.749	23018
871.879	23083
872.008	23143
872.138	23166
872.267	23025
872.397	22946
872.526	22976
872.656	22930
872.785	22976
872.915	23075
873.044	23159
873.173	23064
873.303	23254
873.432	23094
873.561	23296
873.69	23220
873.819	22987
873.948	23128
874.077	23155
874.206	23090
874.335	23185
874.464	23223
874.593	23353
874.722	23265
874.851	23212
874.979	23337
875.108	23368
875.237	23326
875.365	23136
875.494	23280
875.623	23273
875.751	23265
875.88	23235
876.008	23436
876.136	23558
876.265	23642
876.393	23760
876.521	23748
876.65	23859
876.778	23634
876.906	23566
877.034	23630
877.162	23627
877.29	23615
877.418	23615
877.546	23638
877.674	23539
877.802	23699
877.93	23562
878.058	23627
878.185	23604
878.313	23623
878.441	23604
878.568	23486
878.696	23448
878.824	23634
878.951	23699
879.079	23676
879.206	23973
879.333	23809
879.461	23741
879.588	23615
879.715	23851
879.842	24003
879.97	23657
880.097	23478
880.224	23436
880.351	23501
880.478	23535
880.605	23406
880.732	23387
880.859	23634
880.986	23543
881.112	23592
881.239	23318
881.366	23159
881.493	23178
881.619	22927
881.746	22991
881.872	23033
881.999	23048
882.125	22889
882.252	23025
882.378	22965
882.505	23037
882.631	22812
882.757	22740
882.883	22634
883.01	22607
883.136	22702
883.262	22538
883.388	22580
883.514	22736
883.64	22702
883.766	22542
883.892	22447
884.018	22455
884.143	22542
884.269	22748
884.395	22409
884.52	22249
884.646	22299
884.772	22185
884.897	22257
885.023	22337
885.148	22413
885.274	22546
885.399	22409
885.524	22280
885.65	22318
885.775	22333
885.9	22284
886.025	22409
886.15	22497
886.275	22322
886.4	22299
886.525	22299
886.65	22280
886.775	22276
886.9	22417
887.025	22466
887.149	22337
887.274	22150
887.399	22124
887.523	22147
887.648	21994
887.773	21964
887.897	22200
888.021	22105
888.146	22101
888.27	22207
888.395	22040
888.519	22234
888.643	22162
888.767	22192
888.891	21998
889.015	21846
889.139	21888
889.263	21964
889.387	22036
889.511	22078
889.635	22128
889.759	21785
889.883	21949
890.006	21972
890.13	21857
890.254	21812
890.377	21846
890.501	21648
890.624	21587
890.748	21724
890.871	21473
890.995	21447
891.118	21431
891.241	21488
891.364	21500
891.488	21576
891.611	21458
891.734	21526
891.857	21500
891.98	21511
892.103	21526
892.226	21382
892.349	21302
892.471	21268
892.594	21230
892.717	21462
892.839	21325
892.962	21370
893.085	21386
893.207	21275
893.33	21283
893.452	21336
893.575	21275
893.697	21351
893.819	21603
893.941	21526
894.064	21447
894.186	21279
894.308	21127
894.43	21443
894.552	21416
894.674	21454
894.796	21116
894.918	21237
895.04	21188
895.161	21374
895.283	21283
895.405	21344
895.526	21325
895.648	21363
895.769	21291
895.891	21298
896.012	21458
896.134	21313
896.255	21340
896.376	21230
896.498	21249
896.619	21469
896.74	21283
896.861	21336
896.982	21564
897.103	21747
897.224	21553
897.345	21481
897.466	21462
897.587	21492
897.708	21637
897.828	21572
897.949	21435
898.07	21321
898.19	21435
898.311	21603
898.431	21348
898.552	21477
898.672	21580
898.792	21397
898.913	21595
899.033	21363
899.153	21176
899.273	21180
899.393	21176
899.513	21306
899.633	21226
899.753	21283
899.873	21211
899.993	21211
900.113	21165
900.232	21127
900.352	21066
900.472	20902
900.591	21017
900.711	20979
900.83	20883
900.95	21112
901.069	20979
901.189	20899
901.308	20609
901.427	20469
901.546	20533
901.665	20621
901.784	20594
901.904	20469
902.023	20385
902.141	20214
902.26	20024
902.379	20142
902.498	20092
902.617	20031
902.735	20062
902.854	19974
902.973	20054
903.091	19822
903.21	19681
903.328	19772
903.446	19556
903.565	19434
903.683	19510
903.801	19263
903.919	19396
904.038	19392
904.156	19331
904.274	19377
904.392	19221
904.51	19194
904.627	19270
904.745	19285
904.863	19232
904.981	19050
905.098	18939
905.216	18890
905.334	18947
905.451	19019
905.569	18989
905.686	18966
905.803	18795
905.921	18677
906.038	18783
906.155	18719
906.272	18646
906.389	18665
906.506	18555
906.623	18525
906.74	18380
906.857	18327
906.974	18418
907.091	18448
907.208	18566
907.324	18517
907.441	18338
907.557	18235
907.674	18144
907.79	18060
907.907	18106
908.023	18205
908.139	18239
908.256	18148
908.372	18064
908.488	18049
908.604	17901
908.72	17984
908.836	17794
908.952	17771
909.068	17809
909.184	17874
909.3	17874
909.415	17908
909.531	17897
909.647	17608
909.762	17535
909.878	17486
909.993	17547
910.108	17707
910.224	17680
910.339	17493
910.454	17376
910.57	17326
910.685	17326
910.8	17566
910.915	17562
911.03	17322
911.145	17212
911.259	17102
911.374	17204
911.489	17113
911.604	16949
911.718	16957
911.833	16885
911.947	16809
912.062	16752
912.176	16900
912.291	16938
912.405	16957
912.519	17159
912.633	17060
912.748	16866
912.862	16930
912.976	16733
913.09	16577
913.204	16694
913.318	16774
913.431	16782
913.545	16675
913.659	16729
913.772	16736
913.886	16573
914	16470
914.113	16607
914.226	16622
914.34	16565
914.453	16303
914.566	16447
914.68	16325
914.793	16276
914.906	16120
915.019	16063
915.132	15968
915.245	15994
915.358	16090
915.47	16048
915.583	16044
915.696	16036
915.809	16196
915.921	16131
916.034	15876
916.146	16010
916.259	15945
916.371	15987
916.483	15945
916.595	15880
916.708	15903
916.82	15827
916.932	15854
917.044	15819
917.156	15808
917.268	15724
917.38	15751
917.491	15641
917.603	15656
917.715	15720
917.826	15736
917.938	15606
918.049	15504
918.161	15671
918.272	15728
918.384	15694
918.495	15557
918.606	15450
918.717	15313
918.828	15408
918.939	15428
919.05	15370
919.161	15389
919.272	15180
919.383	15173
919.494	15416
919.604	15622
919.715	15382
919.826	15310
919.936	15332
920.047	15431
920.157	15359
920.267	15519
920.378	15355
920.488	15344
920.598	15500
920.708	15641
920.818	15473
920.928	15496
921.038	15580
921.148	15580
921.258	15256
921.368	15207
921.477	15116
921.587	14982
921.697	14998
921.806	15176
921.916	14906
922.025	14777
922.134	14727
922.244	14762
922.353	14758
922.462	14606
922.571	14457
922.68	14400
922.789	14412
922.898	14237
923.007	14298
923.116	14263
923.224	14347
923.333	14298
923.442	14214
923.55	14092
923.659	14123
923.767	14210
923.876	14134
923.984	14221
924.092	14016
924.201	14077
924.309	14050
924.417	14065
924.525	14012
924.633	14016
924.741	14914
924.849	13780
924.956	13887
925.064	13738
925.172	13662
925.279	13651
925.387	13769
925.494	13753
925.602	13742
925.709	13723
925.816	13578
925.924	13628
926.031	13776
926.138	13681
926.245	13727
926.352	13506
926.459	13647
926.566	13693
926.673	13521
926.779	13506
926.886	13476
926.993	13225
927.099	13304
927.206	13137
927.312	13213
927.419	13316
927.525	13225
927.631	13289
927.737	13118
927.843	13114
927.95	12973
928.056	13034
928.162	13000
928.267	13091
928.373	13594
928.479	13091
928.585	12825
928.69	13012
928.796	13080
928.901	12951
929.007	12673
929.112	12833
929.218	12817
929.323	12764
929.428	12688
929.533	12905
929.638	12749
929.743	12715
929.848	12757
929.953	12677
930.058	12593
930.163	12502
930.267	12441
930.372	12559
930.477	12429
930.581	12703
930.685	12441
930.79	12369
930.894	12414
930.998	12239
931.103	12448
931.207	11999
931.311	11958
931.415	11965
931.519	11733
931.623	11688
