Data from test_V78500241_3145.txt Node
Date: Fri Mar 25 16:03:35 CST 2022
User: usil
Spectrometer: V785-0024
Trigger mode: 0
Integration Time (sec): 4.000000E-1
Scans to average: 1
Nonlinearity correction enabled: false
Boxcar width: 0
Storing dark spectrum: false
XAxis mode: Wavelengths
Number of Pixels in Spectrum: 1024
>>>>>Begin Spectral Data<<<<<
801.071	28584
801.214	28417
801.356	28265
801.499	28200
801.641	28150
801.783	28120
801.926	28360
802.068	28207
802.211	28036
802.353	27983
802.496	27998
802.638	27892
802.78	27850
802.923	27793
803.065	27755
803.208	27823
803.35	27781
803.492	27888
803.635	27941
803.777	28067
803.919	28044
804.061	28424
804.204	28074
804.346	28059
804.488	27865
804.63	28135
804.773	27911
804.915	28177
805.057	28097
805.199	28139
805.341	28112
805.483	28257
805.626	28120
805.768	28158
805.91	28291
806.052	28181
806.194	28120
806.336	28451
806.478	28299
806.62	28215
806.762	28478
806.904	28550
807.046	28816
807.188	28717
807.33	28706
807.472	28801
807.614	28550
807.756	28611
807.898	28561
808.04	28436
808.182	28596
808.324	28405
808.465	28531
808.607	28869
808.749	28892
808.891	28930
809.033	29121
809.174	28934
809.316	29067
809.458	28839
809.6	28911
809.741	29010
809.883	29014
810.025	29044
810.166	29181
810.308	29060
810.45	29109
810.591	29128
810.733	28911
810.875	29060
811.016	28824
811.158	28923
811.299	29098
811.441	29010
811.582	29079
811.724	28965
811.865	28927
812.007	28987
812.148	28869
812.29	29041
812.431	29216
812.573	29189
812.714	29429
812.855	29436
812.997	29497
813.138	29729
813.279	29634
813.421	29490
813.562	29509
813.703	29334
813.845	29143
813.986	28896
814.127	28771
814.268	28649
814.41	28584
814.551	28592
814.692	28740
814.833	28675
814.974	28550
815.115	28599
815.256	28577
815.397	28561
815.539	28500
815.68	28382
815.821	28379
815.962	28519
816.103	28390
816.244	28291
816.385	28120
816.526	28158
816.666	28196
816.807	27934
816.948	28010
817.089	28169
817.23	28013
817.371	28025
817.512	27983
817.653	27934
817.793	27922
817.934	27922
818.075	27949
818.216	27918
818.356	27850
818.497	27732
818.638	27713
818.778	27637
818.919	27572
819.06	27842
819.2	27865
819.341	27949
819.481	28002
819.622	27964
819.762	28280
819.903	28158
820.043	28135
820.184	28238
820.324	28074
820.465	28131
820.605	28032
820.746	28086
820.886	27998
821.026	27857
821.167	28048
821.307	28070
821.447	28063
821.588	27846
821.728	27759
821.868	27599
822.008	27424
822.149	27427
822.289	27504
822.429	27062
822.569	27062
822.709	27074
822.849	26933
822.99	26994
823.13	27089
823.27	26960
823.41	26853
823.55	26625
823.69	26750
823.83	26830
823.97	26769
824.11	26587
824.25	26530
824.389	26670
824.529	26625
824.669	26625
824.809	26712
824.949	26697
825.089	26583
825.228	26640
825.368	26415
825.508	26347
825.648	26469
825.787	26450
825.927	26404
826.067	26358
826.206	26473
826.346	26606
826.485	26450
826.625	26362
826.765	26590
826.904	26442
827.044	26252
827.183	26126
827.323	26240
827.462	26240
827.601	26263
827.741	26122
827.88	26244
828.02	26001
828.159	26157
828.298	26164
828.437	26294
828.577	26088
828.716	26305
828.855	26081
828.994	25833
829.134	25970
829.273	25837
829.412	25890
829.551	25902
829.69	25879
829.829	25769
829.968	26054
830.107	26039
830.246	25765
830.385	25879
830.524	25795
830.663	25685
830.802	25499
830.941	25578
831.08	25346
831.219	25590
831.357	25529
831.496	25719
831.635	25548
831.774	25419
831.913	25346
832.051	25156
832.19	25236
832.329	25339
832.467	25118
832.606	25080
832.744	25110
832.883	25076
833.022	25164
833.16	25190
833.299	25088
833.437	25236
833.576	25324
833.714	25255
833.852	25190
833.991	25221
834.129	25339
834.267	25297
834.406	25221
834.544	25282
834.682	25194
834.821	25164
834.959	25373
835.097	25148
835.235	25247
835.373	25232
835.511	25194
835.65	24913
835.788	25084
835.926	25038
836.064	24871
836.202	24760
836.34	25038
836.478	25126
836.615	25099
836.753	25008
836.891	24985
837.029	25057
837.167	24947
837.305	24795
837.443	24916
837.58	24791
837.718	24890
837.856	24920
837.993	24802
838.131	24726
838.269	24734
838.406	24620
838.544	24673
838.681	24517
838.819	24460
838.956	24418
839.094	24262
839.231	24308
839.369	24426
839.506	24715
839.643	24582
839.781	24380
839.918	24266
840.055	24350
840.193	24281
840.33	24243
840.467	24174
840.604	24190
840.742	24597
840.879	23946
841.016	24102
841.153	24053
841.29	24433
841.427	24129
841.564	24216
841.701	24220
841.838	24136
841.975	24079
842.112	24129
842.249	24140
842.385	24003
842.522	24133
842.659	24057
842.796	23988
842.933	24034
843.069	23927
843.206	23969
843.343	23996
843.479	24068
843.616	23999
843.752	23737
843.889	23965
844.025	23843
844.162	23703
844.298	23824
844.435	23813
844.571	23859
844.708	23790
844.844	23912
844.98	23882
845.117	23790
845.253	23600
845.389	23524
845.525	23748
845.661	23668
845.798	23455
845.934	23509
846.07	23414
846.206	23531
846.342	23581
846.478	23486
846.614	23185
846.75	23124
846.886	23212
847.022	23429
847.158	23261
847.294	23174
847.429	23322
847.565	23296
847.701	23433
847.837	22911
847.972	22873
848.108	23189
848.244	23124
848.379	22946
848.515	22763
848.65	22771
848.786	22816
848.921	22847
849.057	23037
849.192	23003
849.328	22755
849.463	22733
849.598	22774
849.734	22626
849.869	22580
850.004	22531
850.14	22637
850.275	22554
850.41	22580
850.545	22512
850.68	22546
850.815	22607
850.95	22500
851.085	22748
851.22	22698
851.355	22561
851.49	22615
851.625	22618
851.76	22546
851.895	22421
852.03	22382
852.165	22485
852.299	22531
852.434	22698
852.569	22546
852.703	22504
852.838	22577
852.973	22736
853.107	22637
853.242	22432
853.376	22382
853.511	22299
853.645	22413
853.78	22390
853.914	22424
854.048	22344
854.183	22367
854.317	22382
854.451	22577
854.585	22394
854.72	22516
854.854	22489
854.988	22344
855.122	22268
855.256	22306
855.39	22447
855.524	22478
855.658	22535
855.792	22470
855.926	22436
856.06	22459
856.194	22455
856.327	22367
856.461	22356
856.595	22310
856.729	22341
856.862	22577
856.996	22356
857.13	22459
857.263	22375
857.397	22481
857.53	22493
857.664	22402
857.797	22455
857.931	22424
858.064	22409
858.197	22561
858.331	22390
858.464	22417
858.597	22265
858.731	22333
858.864	22306
858.997	22367
859.13	22493
859.263	22409
859.396	22455
859.529	22402
859.662	22493
859.795	22440
859.928	22367
860.061	22462
860.194	22611
860.327	22405
860.46	22390
860.592	22493
860.725	22538
860.858	22527
860.99	22451
861.123	22386
861.256	22306
861.388	22451
861.521	23121
861.653	22299
861.786	22200
861.918	22280
862.05	22185
862.183	22257
862.315	22329
862.447	22375
862.58	22246
862.712	22109
862.844	22059
862.976	22261
863.108	22272
863.24	22417
863.372	22090
863.504	22116
863.636	22040
863.768	22173
863.9	22211
864.032	21949
864.164	22086
864.296	22067
864.428	22116
864.559	22135
864.691	22219
864.823	21987
864.954	22116
865.086	22082
865.217	21930
865.349	21857
865.48	21964
865.612	22010
865.743	22139
865.875	22006
866.006	21922
866.137	21911
866.269	21915
866.4	21911
866.531	21903
866.662	21865
866.793	21983
866.924	21838
867.055	21835
867.186	21983
867.317	21960
867.448	21766
867.579	21998
867.71	21812
867.841	21865
867.972	21960
868.103	21949
868.233	21983
868.364	21907
868.495	21983
868.625	22086
868.756	22306
868.886	22116
869.017	22192
869.147	22223
869.278	22314
869.408	22173
869.539	22116
869.669	22181
869.799	22325
869.929	22287
870.06	22249
870.19	22405
870.32	22459
870.45	22493
870.58	22554
870.71	22630
870.84	22748
870.97	22656
871.1	22417
871.23	22729
871.36	22645
871.489	22649
871.619	22759
871.749	22656
871.879	22793
872.008	22816
872.138	22748
872.267	22896
872.397	22634
872.526	22637
872.656	22733
872.785	22630
872.915	22862
873.044	22820
873.173	22774
873.303	22957
873.432	22866
873.561	22961
873.69	22835
873.819	22736
873.948	22831
874.077	22820
874.206	22778
874.335	22679
874.464	22736
874.593	22980
874.722	23048
874.851	23048
874.979	22915
875.108	22995
875.237	22972
875.365	22923
875.494	22923
875.623	23033
875.751	22987
875.88	23052
876.008	23189
876.136	23189
876.265	23299
876.393	23433
876.521	23566
876.65	23429
876.778	23299
876.906	23341
877.034	23345
877.162	23345
877.29	23318
877.418	23261
877.546	23391
877.674	23299
877.802	23254
877.93	23376
878.058	23288
878.185	23151
878.313	23311
878.441	23284
878.568	23113
878.696	23239
878.824	23425
878.951	23356
879.079	23478
879.206	23608
879.333	23421
879.461	23376
879.588	23429
879.715	23467
879.842	23680
879.97	23360
880.097	23181
880.224	23143
880.351	23223
880.478	23189
880.605	23010
880.732	23121
880.859	23467
880.986	23166
881.112	23208
881.239	23075
881.366	22900
881.493	22869
881.619	22767
881.746	22744
881.872	22729
881.999	22736
882.125	22656
882.252	22706
882.378	22717
882.505	22759
882.631	22634
882.757	22436
882.883	22470
883.01	22341
883.136	22382
883.262	22276
883.388	22223
883.514	22398
883.64	22360
883.766	22402
883.892	22029
884.018	22192
884.143	22181
884.269	22375
884.395	22093
884.52	21918
884.646	22036
884.772	21937
884.897	21880
885.023	22002
885.148	22135
885.274	22116
885.399	22105
885.524	21903
885.65	22124
885.775	22051
885.9	21895
886.025	22093
886.15	22215
886.275	21915
886.4	21991
886.525	21934
886.65	21766
886.775	21861
886.9	22097
887.025	22306
887.149	21979
887.274	21747
887.399	21785
887.523	21770
887.648	21663
887.773	21736
887.897	21907
888.021	21785
888.146	21667
888.27	21762
888.395	21835
888.519	21850
888.643	21903
888.767	21785
888.891	21720
889.015	21542
889.139	21686
889.263	21511
889.387	21705
889.511	21827
889.635	21736
889.759	21526
889.883	21587
890.006	21644
890.13	21652
890.254	21408
890.377	21580
890.501	21218
890.624	21268
890.748	21344
890.871	21096
890.995	21116
891.118	21188
891.241	21135
891.364	21089
891.488	21188
891.611	21142
891.734	21074
891.857	21199
891.98	21150
892.103	21127
892.226	21062
892.349	21081
892.471	20986
892.594	21085
892.717	21062
892.839	21093
892.962	20906
893.085	20929
893.207	20994
893.33	20979
893.452	20876
893.575	21055
893.697	21131
893.819	21195
893.941	21329
894.064	21146
894.186	20876
894.308	20948
894.43	21013
894.552	21108
894.674	21100
894.796	21028
894.918	21085
895.04	21032
895.161	20979
895.283	20982
895.405	20941
895.526	20906
895.648	20918
895.769	20921
895.891	20990
896.012	21096
896.134	20994
896.255	21127
896.376	20887
896.498	21028
896.619	20971
896.74	20906
896.861	21070
896.982	21317
897.103	21310
897.224	21184
897.345	21325
897.466	21218
897.587	21157
897.708	21313
897.828	21313
897.949	21070
898.07	21051
898.19	21127
898.311	21306
898.431	21089
898.552	21131
898.672	21138
898.792	21252
898.913	21100
899.033	21135
899.153	21066
899.273	20887
899.393	20853
899.513	20872
899.633	20906
899.753	20906
899.873	20910
899.993	20868
900.113	20796
900.232	20826
900.352	20792
900.472	20773
900.591	20651
900.711	20735
900.83	20640
900.95	20804
901.069	20693
901.189	20644
901.308	20377
901.427	20199
901.546	20305
901.665	20278
901.784	20290
901.904	20122
902.023	20031
902.141	19822
902.26	19750
902.379	19932
902.498	19818
902.617	19784
902.735	19833
902.854	19738
902.973	19757
903.091	19388
903.21	19460
903.328	19384
903.446	19255
903.565	19206
903.683	19251
903.801	19194
903.919	19247
904.038	19072
904.156	18993
904.274	18894
904.392	18916
904.51	18954
904.627	18935
904.745	19027
904.863	19012
904.981	18871
905.098	18779
905.216	18707
905.334	18574
905.451	18612
905.569	18509
905.686	18623
905.803	18741
905.921	18494
906.038	18486
906.155	18502
906.272	18365
906.389	18410
906.506	18178
906.623	18251
906.74	18155
906.857	18117
906.974	18098
907.091	18319
907.208	18281
907.324	18186
907.441	18129
907.557	17973
907.674	17786
907.79	17882
907.907	17901
908.023	17851
908.139	17893
908.256	17786
908.372	17786
908.488	17748
908.604	17714
908.72	17646
908.836	17707
908.952	17551
909.068	17604
909.184	17653
909.3	17551
909.415	17604
909.531	17570
909.647	17391
909.762	17284
909.878	17330
909.993	17292
910.108	17273
910.224	17239
910.339	17200
910.454	17292
910.57	16984
910.685	16908
910.8	17261
910.915	17246
911.03	17174
911.145	16953
911.259	16847
911.374	16938
911.489	16843
911.604	16736
911.718	16626
911.833	16622
911.947	16558
912.062	16481
912.176	16611
912.291	16706
912.405	16637
912.519	16854
912.633	16816
912.748	16508
912.862	16573
912.976	16592
913.09	16314
913.204	16451
913.318	16421
913.431	16561
913.545	16531
913.659	16504
913.772	16455
913.886	16219
914	16131
914.113	16295
914.226	16428
914.34	16318
914.453	16147
914.566	16226
914.68	15994
914.793	16044
914.906	15831
915.019	15861
915.132	15698
915.245	15831
915.358	15876
915.47	15934
915.583	15808
915.696	15850
915.809	15975
915.921	15949
916.034	15720
916.146	15686
916.259	15625
916.371	15838
916.483	15762
916.595	15686
916.708	15610
916.82	15488
916.932	15580
917.044	15557
917.156	15488
917.268	15572
917.38	15382
917.491	15424
917.603	15408
917.715	15519
917.826	15454
917.938	15332
918.049	15256
918.161	15412
918.272	15568
918.384	15473
918.495	15283
918.606	15161
918.717	15127
918.828	15313
918.939	15093
919.05	15017
919.161	15123
919.272	14944
919.383	15074
919.494	15226
919.604	15454
919.715	15150
919.826	15047
919.936	14982
920.047	15047
920.157	15077
920.267	15302
920.378	15165
920.488	15036
920.598	15211
920.708	15416
920.818	15222
920.928	15359
921.038	15386
921.148	15287
921.258	15077
921.368	14982
921.477	14933
921.587	14872
921.697	14659
921.806	14921
921.916	14693
922.025	14514
922.134	14484
922.244	14484
922.353	14469
922.462	14438
922.571	14256
922.68	14100
922.789	14202
922.898	14191
923.007	14176
923.116	14183
923.224	14100
923.333	14183
923.442	13974
923.55	13940
923.659	14008
923.767	13974
923.876	13852
923.984	13986
924.092	13887
924.201	13906
924.309	13780
924.417	13833
924.525	13788
924.633	13757
924.741	14560
924.849	13616
924.956	13658
925.064	13586
925.172	13556
925.279	13540
925.387	13529
925.494	13510
925.602	13643
925.709	13552
925.816	13441
925.924	13518
926.031	13495
926.138	13422
926.245	13472
926.352	13327
926.459	13495
926.566	13483
926.673	13396
926.779	13103
926.886	13183
926.993	13137
927.099	13053
927.206	13015
927.312	12989
927.419	13053
927.525	13023
927.631	13156
927.737	12916
927.843	12886
927.95	12817
928.056	12833
928.162	12916
928.267	12871
928.373	13529
928.479	12970
928.585	12726
928.69	12760
928.796	12859
928.901	12692
929.007	12593
929.112	12719
929.218	12635
929.323	12612
929.428	12513
929.533	12711
929.638	12445
929.743	12445
929.848	12597
929.953	12464
930.058	12388
930.163	12277
930.267	12270
930.372	12464
930.477	12315
930.581	12437
930.685	12270
930.79	12091
930.894	12175
930.998	12034
931.103	12201
931.207	11904
931.311	11760
931.415	11756
931.519	11512
931.623	11459
