Data from test_V78500241_1098.txt Node
Date: Fri Mar 25 15:49:24 CST 2022
User: usil
Spectrometer: V785-0024
Trigger mode: 0
Integration Time (sec): 4.000000E-1
Scans to average: 1
Nonlinearity correction enabled: false
Boxcar width: 0
Storing dark spectrum: false
XAxis mode: Wavelengths
Number of Pixels in Spectrum: 1024
>>>>>Begin Spectral Data<<<<<
801.071	28497
801.214	28272
801.356	28048
801.499	28036
801.641	27934
801.783	27930
801.926	28013
802.068	27941
802.211	27892
802.353	27778
802.496	27637
802.638	27496
802.78	27534
802.923	27576
803.065	27523
803.208	27633
803.35	27572
803.492	27603
803.635	27819
803.777	27705
803.919	27800
804.061	28078
804.204	27823
804.346	27629
804.488	27595
804.63	27785
804.773	27804
804.915	27865
805.057	27918
805.199	27701
805.341	27800
805.483	27873
805.626	27934
805.768	27800
805.91	27739
806.052	27895
806.194	27975
806.336	28257
806.478	28025
806.62	28070
806.762	28139
806.904	28166
807.046	28337
807.188	28329
807.33	28341
807.472	28618
807.614	28238
807.756	28325
807.898	28314
808.04	28379
808.182	28253
808.324	28200
808.465	28390
808.607	28508
808.749	28645
808.891	28599
809.033	28744
809.174	28748
809.316	28687
809.458	28546
809.6	28516
809.741	28694
809.883	28778
810.025	28816
810.166	28923
810.308	28923
810.45	28839
810.591	28717
810.733	28641
810.875	28607
811.016	28577
811.158	28459
811.299	28653
811.441	28892
811.582	28809
811.724	28580
811.865	28607
812.007	28603
812.148	28850
812.29	28615
812.431	28919
812.573	28980
812.714	29086
812.855	29090
812.997	29220
813.138	29402
813.279	29375
813.421	29273
813.562	29018
813.703	28938
813.845	29041
813.986	28455
814.127	28474
814.268	28204
814.41	28344
814.551	28310
814.692	28424
814.833	28272
814.974	28318
815.115	28200
815.256	28185
815.397	28150
815.539	28272
815.68	28211
815.821	28032
815.962	28048
816.103	28154
816.244	27998
816.385	27781
816.526	27781
816.666	27819
816.807	27587
816.948	27705
817.089	27865
817.23	27625
817.371	27583
817.512	27538
817.653	27625
817.793	27427
817.934	27606
818.075	27694
818.216	27629
818.356	27580
818.497	27682
818.638	27397
818.778	27332
818.919	27370
819.06	27583
819.2	27488
819.341	27701
819.481	27610
819.622	27816
819.762	27865
819.903	27903
820.043	27781
820.184	27945
820.324	27568
820.465	27781
820.605	27926
820.746	27679
820.886	27686
821.026	27869
821.167	27873
821.307	27819
821.447	27732
821.588	27568
821.728	27595
821.868	27382
822.008	27104
822.149	27154
822.289	27074
822.429	26826
822.569	26739
822.709	26868
822.849	26537
822.99	26678
823.13	26667
823.27	26484
823.41	26632
823.55	26286
823.69	26511
823.83	26446
823.97	26400
824.11	26298
824.25	26210
824.389	26290
824.529	26385
824.669	26317
824.809	26377
824.949	26381
825.089	26396
825.228	26438
825.368	26142
825.508	26107
825.648	26031
825.787	26115
825.927	26233
826.067	26134
826.206	26142
826.346	26130
826.485	26271
826.625	26111
826.765	26221
826.904	26183
827.044	25974
827.183	26005
827.323	25921
827.462	25860
827.601	25780
827.741	25696
827.88	25822
828.02	25738
828.159	25757
828.298	25928
828.437	25909
828.577	25845
828.716	25944
828.855	25712
828.994	25666
829.134	25613
829.273	25514
829.412	25578
829.551	25552
829.69	25529
829.829	25635
829.968	25613
830.107	25590
830.246	25540
830.385	25479
830.524	25502
830.663	25308
830.802	25198
830.941	25183
831.08	25251
831.219	25293
831.357	25164
831.496	25316
831.635	25137
831.774	25061
831.913	24985
832.051	24962
832.19	25061
832.329	24901
832.467	24825
832.606	24738
832.744	24696
832.883	24821
833.022	24703
833.16	24913
833.299	24833
833.437	24833
833.576	24939
833.714	24791
833.852	24901
833.991	24943
834.129	24905
834.267	24939
834.406	24783
834.544	24970
834.682	24916
834.821	24932
834.959	25072
835.097	24760
835.235	24947
835.373	24760
835.511	24833
835.65	24734
835.788	24757
835.926	24681
836.064	24498
836.202	24608
836.34	24673
836.478	24821
836.615	24711
836.753	24601
836.891	24760
837.029	24730
837.167	24639
837.305	24707
837.443	24665
837.58	24574
837.718	24559
837.856	24620
837.993	24346
838.131	24559
838.269	24490
838.406	24475
838.544	24350
838.681	24197
838.819	24083
838.956	24057
839.094	23984
839.231	24095
839.369	24247
839.506	24346
839.643	24270
839.781	24018
839.918	23847
840.055	24003
840.193	23946
840.33	23980
840.467	23988
840.604	24011
840.742	24159
840.879	23771
841.016	23935
841.153	23718
841.29	23885
841.427	23863
841.564	23798
841.701	23817
841.838	23889
841.975	23885
842.112	23859
842.249	23832
842.385	23581
842.522	23866
842.659	23904
842.796	23600
842.933	23703
843.069	23646
843.206	23505
843.343	23680
843.479	23570
843.616	23687
843.752	23501
843.889	23459
844.025	23585
844.162	23414
844.298	23627
844.435	23440
844.571	23444
844.708	23490
844.844	23611
844.98	23687
845.117	23604
845.253	23429
845.389	23356
845.525	23102
845.661	23410
845.798	23181
845.934	23311
846.07	23132
846.206	23193
846.342	23242
846.478	23117
846.614	22843
846.75	22889
846.886	22801
847.022	22976
847.158	23079
847.294	22854
847.429	22919
847.565	22968
847.701	23204
847.837	22649
847.972	22603
848.108	22831
848.244	22755
848.379	22542
848.515	22451
848.65	22523
848.786	22402
848.921	22436
849.057	22550
849.192	22607
849.328	22630
849.463	22637
849.598	22436
849.734	22367
849.869	22249
850.004	22249
850.14	22386
850.275	22223
850.41	22185
850.545	22204
850.68	22200
850.815	22173
850.95	22211
851.085	22485
851.22	22352
851.355	22246
851.49	22215
851.625	22181
851.76	22211
851.895	22101
852.03	22131
852.165	22207
852.299	22276
852.434	22306
852.569	22185
852.703	22181
852.838	22329
852.973	22405
853.107	22459
853.242	22246
853.376	22101
853.511	21953
853.645	22002
853.78	22173
853.914	22059
854.048	22067
854.183	22048
854.317	22139
854.451	22295
854.585	22215
854.72	22032
854.854	22150
854.988	22105
855.122	22036
855.256	22017
855.39	22082
855.524	22112
855.658	22120
855.792	22215
855.926	22010
856.06	22010
856.194	22162
856.327	22093
856.461	21979
856.595	21953
856.729	22086
856.862	22173
856.996	22032
857.13	22166
857.263	22131
857.397	22223
857.53	22070
857.664	22112
857.797	22173
857.931	22215
858.064	22101
858.197	22070
858.331	21979
858.464	22048
858.597	22093
858.731	21991
858.864	21934
858.997	21991
859.13	22097
859.263	22040
859.396	22128
859.529	22055
859.662	22021
859.795	21903
859.928	22120
860.061	22207
860.194	22215
860.327	22188
860.46	22048
860.592	22150
860.725	22253
860.858	22124
860.99	22097
861.123	22029
861.256	22082
861.388	21857
861.521	22767
861.653	22006
861.786	21892
861.918	21823
862.05	21979
862.183	21895
862.315	21934
862.447	22017
862.58	21861
862.712	21861
862.844	21747
862.976	21892
863.108	21915
863.24	22257
863.372	21698
863.504	21816
863.636	21827
863.768	21778
863.9	21800
864.032	21762
864.164	21781
864.296	21854
864.428	21766
864.559	21732
864.691	21709
864.823	21793
864.954	21774
865.086	21644
865.217	21656
865.349	21633
865.48	21671
865.612	21633
865.743	21895
865.875	21682
866.006	21542
866.137	21660
866.269	21717
866.4	21610
866.531	21557
866.662	21545
866.793	21637
866.924	21591
867.055	21633
867.186	21599
867.317	21671
867.448	21549
867.579	21526
867.71	21462
867.841	21534
867.972	21648
868.103	21530
868.233	21679
868.364	21485
868.495	21637
868.625	21732
868.756	21945
868.886	21698
869.017	21797
869.147	22010
869.278	21915
869.408	21861
869.539	21850
869.669	21998
869.799	21907
869.929	21987
870.06	22067
870.19	22169
870.32	22139
870.45	22093
870.58	22131
870.71	22303
870.84	22299
870.97	22143
871.1	22128
871.23	22352
871.36	22382
871.489	22265
871.619	22310
871.749	22413
871.879	22500
872.008	22546
872.138	22485
872.267	22386
872.397	22333
872.526	22246
872.656	22337
872.785	22333
872.915	22314
873.044	22478
873.173	22455
873.303	22459
873.432	22500
873.561	22440
873.69	22428
873.819	22459
873.948	22386
874.077	22447
874.206	22440
874.335	22402
874.464	22493
874.593	22664
874.722	22516
874.851	22634
874.979	22645
875.108	22599
875.237	22584
875.365	22459
875.494	22577
875.623	22702
875.751	22557
875.88	22584
876.008	22660
876.136	22889
876.265	23044
876.393	23284
876.521	23121
876.65	23018
876.778	23041
876.906	23033
877.034	22999
877.162	22949
877.29	22862
877.418	23037
877.546	22957
877.674	22949
877.802	22938
877.93	22911
878.058	22938
878.185	22809
878.313	22923
878.441	23029
878.568	22828
878.696	22923
878.824	22987
878.951	23162
879.079	23227
879.206	23296
879.333	23136
879.461	23121
879.588	23204
879.715	23181
879.842	23307
879.97	23090
880.097	22850
880.224	22771
880.351	22892
880.478	22843
880.605	22702
880.732	22748
880.859	23071
880.986	22866
881.112	22847
881.239	22599
881.366	22538
881.493	22531
881.619	22348
881.746	22379
881.872	22413
881.999	22379
882.125	22348
882.252	22360
882.378	22432
882.505	22584
882.631	22226
882.757	22162
882.883	22147
883.01	22147
883.136	21953
883.262	21918
883.388	21945
883.514	22074
883.64	22158
883.766	21994
883.892	21751
884.018	21930
884.143	21918
884.269	21949
884.395	21766
884.52	21724
884.646	21751
884.772	21675
884.897	21603
885.023	21759
885.148	21785
885.274	21915
885.399	21785
885.524	21675
885.65	21679
885.775	21622
885.9	21686
886.025	21819
886.15	21854
886.275	21618
886.4	21625
886.525	21663
886.65	21682
886.775	21720
886.9	21854
887.025	21945
887.149	21610
887.274	21500
887.399	21431
887.523	21545
887.648	21374
887.773	21306
887.897	21656
888.021	21545
888.146	21348
888.27	21431
888.395	21564
888.519	21488
888.643	21530
888.767	21523
888.891	21325
889.015	21268
889.139	21363
889.263	21313
889.387	21325
889.511	21359
889.635	21378
889.759	21233
889.883	21302
890.006	21317
890.13	21481
890.254	21195
890.377	21116
890.501	21081
890.624	20826
890.748	21001
890.871	20872
890.995	20735
891.118	20735
891.241	20792
891.364	20891
891.488	20971
891.611	20724
891.734	20864
891.857	20765
891.98	20811
892.103	20861
892.226	20807
892.349	20777
892.471	20686
892.594	20644
892.717	20705
892.839	20701
892.962	20792
893.085	20727
893.207	20792
893.33	20621
893.452	20533
893.575	20876
893.697	20598
893.819	20800
893.941	20891
894.064	20758
894.186	20537
894.308	20636
894.43	20712
894.552	20864
894.674	20811
894.796	20697
894.918	20826
895.04	20743
895.161	20750
895.283	20724
895.405	20598
895.526	20727
895.648	20712
895.769	20758
895.891	20697
896.012	20769
896.134	20727
896.255	20739
896.376	20644
896.498	20708
896.619	20777
896.74	20724
896.861	20648
896.982	21085
897.103	21237
897.224	21058
897.345	20906
897.466	20819
897.587	20872
897.708	21028
897.828	20941
897.949	20815
898.07	20720
898.19	20861
898.311	21020
898.431	20823
898.552	20819
898.672	20921
898.792	20948
898.913	20880
899.033	20712
899.153	20640
899.273	20545
899.393	20609
899.513	20583
899.633	20613
899.753	20651
899.873	20503
899.993	20724
900.113	20629
900.232	20594
900.352	20552
900.472	20408
900.591	20408
900.711	20454
900.83	20427
900.95	20465
901.069	20442
901.189	20282
901.308	20027
901.427	19970
901.546	19955
901.665	19917
901.784	19932
901.904	19852
902.023	19639
902.141	19605
902.26	19449
902.379	19544
902.498	19510
902.617	19407
902.735	19559
902.854	19510
902.973	19373
903.091	19141
903.21	19175
903.328	19133
903.446	19031
903.565	18947
903.683	18913
903.801	18817
903.919	18859
904.038	18905
904.156	18707
904.274	18753
904.392	18734
904.51	18589
904.627	18646
904.745	18688
904.863	18688
904.981	18601
905.098	18418
905.216	18437
905.334	18467
905.451	18426
905.569	18441
905.686	18388
905.803	18353
905.921	18152
906.038	18319
906.155	18311
906.272	17965
906.389	18060
906.506	17988
906.623	17939
906.74	18015
906.857	17786
906.974	17843
907.091	17984
907.208	18022
907.324	17832
907.441	17786
907.557	17745
907.674	17619
907.79	17516
907.907	17786
908.023	17691
908.139	17672
908.256	17532
908.372	17490
908.488	17524
908.604	17410
908.72	17414
908.836	17402
908.952	17391
909.068	17337
909.184	17433
909.3	17292
909.415	17356
909.531	17379
909.647	16984
909.762	16972
909.878	17124
909.993	17109
910.108	16934
910.224	17029
910.339	17037
910.454	16904
910.57	16828
910.685	16793
910.8	16896
910.915	17041
911.03	16782
911.145	16630
911.259	16618
911.374	16599
911.489	16535
911.604	16462
911.718	16329
911.833	16356
911.947	16291
912.062	16207
912.176	16333
912.291	16382
912.405	16352
912.519	16470
912.633	16550
912.748	16310
912.862	16287
912.976	16177
913.09	15972
913.204	16093
913.318	16192
913.431	16265
913.545	16291
913.659	16284
913.772	16109
913.886	15979
914	15956
914.113	15975
914.226	15994
914.34	16032
914.453	15873
914.566	15949
914.68	15861
914.793	15842
914.906	15686
915.019	15568
915.132	15553
915.245	15625
915.358	15580
915.47	15538
915.583	15587
915.696	15610
915.809	15656
915.921	15720
916.034	15542
916.146	15355
916.259	15317
916.371	15656
916.483	15538
916.595	15336
916.708	15370
916.82	15405
916.932	15458
917.044	15310
917.156	15249
917.268	15291
917.38	15222
917.491	15142
917.603	15207
917.715	15180
917.826	15241
917.938	15085
918.049	15077
918.161	15077
918.272	15233
918.384	15252
918.495	15154
918.606	14975
918.717	14948
918.828	14887
918.939	14937
919.05	14902
919.161	14826
919.272	14834
919.383	14769
919.494	14887
919.604	15173
919.715	14914
919.826	14887
919.936	14906
920.047	14982
920.157	14868
920.267	15081
920.378	14857
920.488	14971
920.598	15081
920.708	15260
920.818	15070
920.928	14967
921.038	15161
921.148	15112
921.258	14956
921.368	14750
921.477	14743
921.587	14625
921.697	14541
921.806	14659
921.916	14480
922.025	14362
922.134	14301
922.244	14259
922.353	14309
922.462	14130
922.571	14206
922.68	13989
922.789	13909
922.898	13868
923.007	13883
923.116	13932
923.224	13947
923.333	13875
923.442	13822
923.55	13776
923.659	13746
923.767	13799
923.876	13753
923.984	13803
924.092	13586
924.201	13734
924.309	13670
924.417	13643
924.525	13628
924.633	13647
924.741	14339
924.849	13365
924.956	13582
925.064	13445
925.172	13308
925.279	13301
925.387	13392
925.494	13350
925.602	13472
925.709	13388
925.816	13335
925.924	13285
926.031	13426
926.138	13301
926.245	13350
926.352	13171
926.459	13365
926.566	13304
926.673	13232
926.779	13168
926.886	13137
926.993	12985
927.099	12958
927.206	12833
927.312	12726
927.419	12973
927.525	12886
927.631	12897
927.737	12749
927.843	12738
927.95	12646
928.056	12817
928.162	12795
928.267	12779
928.373	13206
928.479	12837
928.585	12479
928.69	12665
928.796	12650
928.901	12574
929.007	12422
929.112	12654
929.218	12467
929.323	12445
929.428	12494
929.533	12483
929.638	12338
929.743	12391
929.848	12445
929.953	12441
930.058	12292
930.163	12102
930.267	12098
930.372	12239
930.477	12087
930.581	12296
930.685	12117
930.79	11969
930.894	11950
930.998	11958
931.103	12015
931.207	11745
931.311	11638
931.415	11592
931.519	11364
931.623	11315
