Data from test_V78500241_2606.txt Node
Date: Fri Mar 25 15:59:51 CST 2022
User: usil
Spectrometer: V785-0024
Trigger mode: 0
Integration Time (sec): 4.000000E-1
Scans to average: 1
Nonlinearity correction enabled: false
Boxcar width: 0
Storing dark spectrum: false
XAxis mode: Wavelengths
Number of Pixels in Spectrum: 1024
>>>>>Begin Spectral Data<<<<<
801.071	28839
801.214	28698
801.356	28447
801.499	28462
801.641	28303
801.783	28246
801.926	28470
802.068	28440
802.211	28314
802.353	28287
802.496	28010
802.638	27934
802.78	28078
802.923	28067
803.065	27869
803.208	28086
803.35	28143
803.492	28181
803.635	28280
803.777	28029
803.919	28310
804.061	28554
804.204	28333
804.346	28253
804.488	28230
804.63	28272
804.773	28211
804.915	28348
805.057	28344
805.199	28272
805.341	28466
805.483	28443
805.626	28519
805.768	28462
805.91	28325
806.052	28478
806.194	28295
806.336	28565
806.478	28512
806.62	28341
806.762	28565
806.904	28675
807.046	28896
807.188	28858
807.33	28858
807.472	28866
807.614	28919
807.756	28923
807.898	28771
808.04	28881
808.182	28698
808.324	28763
808.465	28900
808.607	28927
808.749	29197
808.891	29143
809.033	29220
809.174	29216
809.316	29109
809.458	29166
809.6	28995
809.741	29307
809.883	29239
810.025	29505
810.166	29311
810.308	29452
810.45	29315
810.591	29277
810.733	29094
810.875	29132
811.016	28995
811.158	28984
811.299	29227
811.441	29322
811.582	29204
811.724	29102
811.865	29102
812.007	29128
812.148	29037
812.29	29200
812.431	29318
812.573	29440
812.714	29634
812.855	29821
812.997	29729
813.138	29798
813.279	29733
813.421	29562
813.562	29528
813.703	29440
813.845	29387
813.986	29060
814.127	28934
814.268	28809
814.41	28991
814.551	28717
814.692	28793
814.833	28866
814.974	28850
815.115	28843
815.256	28607
815.397	28687
815.539	28702
815.68	28672
815.821	28485
815.962	28755
816.103	28675
816.244	28535
816.385	28451
816.526	28516
816.666	28242
816.807	28124
816.948	28261
817.089	28421
817.23	28158
817.371	28185
817.512	28029
817.653	28131
817.793	28097
817.934	28036
818.075	28128
818.216	28158
818.356	27941
818.497	28097
818.638	27865
818.778	27880
818.919	27975
819.06	27892
819.2	27998
819.341	28169
819.481	28154
819.622	28333
819.762	28554
819.903	28371
820.043	28303
820.184	28257
820.324	28329
820.465	28356
820.605	28318
820.746	28318
820.886	28078
821.026	28268
821.167	28185
821.307	28291
821.447	28295
821.588	28029
821.728	27930
821.868	27808
822.008	27572
822.149	27747
822.289	27694
822.429	27363
822.569	27420
822.709	27291
822.849	27142
822.99	27112
823.13	27123
823.27	27173
823.41	27074
823.55	26796
823.69	26872
823.83	27024
823.97	26906
824.11	26708
824.25	26568
824.389	26769
824.529	26823
824.669	26571
824.809	26918
824.949	26842
825.089	26815
825.228	26857
825.368	26686
825.508	26587
825.648	26800
825.787	26807
825.927	26807
826.067	26697
826.206	26651
826.346	26655
826.485	26739
826.625	26746
826.765	26746
826.904	26674
827.044	26404
827.183	26423
827.323	26237
827.462	26415
827.601	26377
827.741	26480
827.88	26393
828.02	26355
828.159	26389
828.298	26385
828.437	26499
828.577	26195
828.716	26495
828.855	26233
828.994	26100
829.134	26062
829.273	26206
829.412	25986
829.551	25997
829.69	26035
829.829	26126
829.968	26111
830.107	26153
830.246	26138
830.385	25913
830.524	25986
830.663	25845
830.802	25753
830.941	25632
831.08	25635
831.219	25750
831.357	25734
831.496	25997
831.635	25582
831.774	25616
831.913	25514
832.051	25567
832.19	25388
832.329	25392
832.467	25381
832.606	25282
832.744	25285
832.883	25282
833.022	25213
833.16	25301
833.299	25384
833.437	25350
833.576	25339
833.714	25441
833.852	25525
833.991	25411
834.129	25552
834.267	25464
834.406	25419
834.544	25445
834.682	25358
834.821	25350
834.959	25590
835.097	25301
835.235	25403
835.373	25403
835.511	25289
835.65	25312
835.788	25255
835.926	25244
836.064	25091
836.202	25023
836.34	25255
836.478	25274
836.615	25244
836.753	25327
836.891	25247
837.029	25183
837.167	25221
837.305	25061
837.443	25069
837.58	24973
837.718	25145
837.856	24989
837.993	25023
838.131	25015
838.269	24947
838.406	25012
838.544	24802
838.681	24589
838.819	24574
838.956	24498
839.094	24593
839.231	24665
839.369	24658
839.506	24973
839.643	24791
839.781	24544
839.918	24422
840.055	24505
840.193	24566
840.33	24429
840.467	24391
840.604	24471
840.742	24654
840.879	24201
841.016	24330
841.153	24285
841.29	24445
841.427	24372
841.564	24418
841.701	24350
841.838	24376
841.975	24270
842.112	24285
842.249	24144
842.385	24216
842.522	24384
842.659	24224
842.796	24140
842.933	24205
843.069	24098
843.206	24030
843.343	24209
843.479	24163
843.616	24205
843.752	23939
843.889	24087
844.025	24053
844.162	23984
844.298	23958
844.435	23889
844.571	23859
844.708	23798
844.844	24117
844.98	24079
845.117	23988
845.253	23908
845.389	23779
845.525	23798
845.661	23809
845.798	23554
845.934	23661
846.07	23657
846.206	23710
846.342	23904
846.478	23596
846.614	23459
846.75	23273
846.886	23444
847.022	23368
847.158	23410
847.294	23368
847.429	23425
847.565	23387
847.701	23585
847.837	23018
847.972	23113
848.108	23239
848.244	23231
848.379	22965
848.515	22911
848.65	22904
848.786	23010
848.921	22999
849.057	23159
849.192	23037
849.328	23064
849.463	22991
849.598	22976
849.734	22881
849.869	22809
850.004	22607
850.14	22767
850.275	22710
850.41	22771
850.545	22622
850.68	22805
850.815	22812
850.95	22668
851.085	22904
851.22	22866
851.355	22752
851.49	22805
851.625	22763
851.76	22797
851.895	22664
852.03	22637
852.165	22717
852.299	22946
852.434	22733
852.569	22755
852.703	22744
852.838	22839
852.973	22885
853.107	22900
853.242	22660
853.376	22561
853.511	22432
853.645	22519
853.78	22736
853.914	22584
854.048	22485
854.183	22622
854.317	22527
854.451	22702
854.585	22592
854.72	22611
854.854	22668
854.988	22512
855.122	22565
855.256	22436
855.39	22561
855.524	22497
855.658	22596
855.792	22634
855.926	22611
856.06	22596
856.194	22778
856.327	22462
856.461	22546
856.595	22455
856.729	22565
856.862	22656
856.996	22577
857.13	22702
857.263	22592
857.397	22573
857.53	22584
857.664	22683
857.797	22630
857.931	22531
858.064	22592
858.197	22672
858.331	22516
858.464	22550
858.597	22436
858.731	22451
858.864	22421
858.997	22451
859.13	22592
859.263	22660
859.396	22607
859.529	22580
859.662	22561
859.795	22561
859.928	22546
860.061	22710
860.194	22736
860.327	22641
860.46	22634
860.592	22702
860.725	22721
860.858	22656
860.99	22573
861.123	22508
861.256	22634
861.388	22538
861.521	23239
861.653	22485
861.786	22253
861.918	22341
862.05	22409
862.183	22447
862.315	22569
862.447	22527
862.58	22417
862.712	22219
862.844	22284
862.976	22303
863.108	22306
863.24	22706
863.372	22276
863.504	22238
863.636	22276
863.768	22253
863.9	22246
864.032	22082
864.164	22207
864.296	22329
864.428	22443
864.559	22306
864.691	22284
864.823	22386
864.954	22265
865.086	22249
865.217	22109
865.349	21968
865.48	22067
865.612	22021
865.743	22367
865.875	22204
866.006	22090
866.137	22276
866.269	22097
866.4	22040
866.531	22036
866.662	22097
866.793	22188
866.924	21953
867.055	22059
867.186	22051
867.317	22082
867.448	22029
867.579	21983
867.71	21956
867.841	21922
867.972	22074
868.103	22029
868.233	22059
868.364	22074
868.495	22135
868.625	22261
868.756	22276
868.886	22204
869.017	22226
869.147	22466
869.278	22295
869.408	22249
869.539	22352
869.669	22390
869.799	22303
869.929	22440
870.06	22478
870.19	22675
870.32	22523
870.45	22649
870.58	22744
870.71	22710
870.84	22786
870.97	22679
871.1	22698
871.23	22927
871.36	22900
871.489	22873
871.619	22839
871.749	22881
871.879	22923
872.008	22987
872.138	22843
872.267	22908
872.397	22630
872.526	22710
872.656	22850
872.785	22611
872.915	22908
873.044	23071
873.173	22980
873.303	23033
873.432	22911
873.561	22968
873.69	22877
873.819	22942
873.948	22953
874.077	22881
874.206	22778
874.335	23037
874.464	22976
874.593	23105
874.722	23140
874.851	23193
874.979	23174
875.108	23159
875.237	23010
875.365	22923
875.494	23128
875.623	23223
875.751	23166
875.88	23124
876.008	23330
876.136	23368
876.265	23520
876.393	23726
876.521	23649
876.65	23562
876.778	23687
876.906	23493
877.034	23402
877.162	23497
877.29	23334
877.418	23531
877.546	23452
877.674	23547
877.802	23478
877.93	23356
878.058	23516
878.185	23322
878.313	23433
878.441	23444
878.568	23345
878.696	23330
878.824	23516
878.951	23478
879.079	23680
879.206	23756
879.333	23657
879.461	23436
879.588	23543
879.715	23600
879.842	23710
879.97	23604
880.097	23307
880.224	23284
880.351	23311
880.478	23337
880.605	23200
880.732	23326
880.859	23570
880.986	23299
881.112	23372
881.239	23064
881.366	23079
881.493	22946
881.619	22927
881.746	22976
881.872	22835
881.999	22816
882.125	22835
882.252	22702
882.378	22774
882.505	22847
882.631	22687
882.757	22603
882.883	22569
883.01	22523
883.136	22371
883.262	22440
883.388	22337
883.514	22630
883.64	22664
883.766	22424
883.892	22287
884.018	22398
884.143	22508
884.269	22550
884.395	22181
884.52	22090
884.646	22219
884.772	21949
884.897	22063
885.023	22211
885.148	22272
885.274	22219
885.399	22200
885.524	22200
885.65	22105
885.775	22150
885.9	22090
886.025	22177
886.15	22177
886.275	22044
886.4	22139
886.525	22192
886.65	22181
886.775	22051
886.9	22207
887.025	22291
887.149	22040
887.274	21911
887.399	21899
887.523	21907
887.648	21949
887.773	21827
887.897	22105
888.021	21930
888.146	21873
888.27	22040
888.395	21941
888.519	22002
888.643	21987
888.767	21949
888.891	21873
889.015	21618
889.139	21781
889.263	21629
889.387	21865
889.511	21911
889.635	21781
889.759	21675
889.883	21808
890.006	21816
890.13	21857
890.254	21622
890.377	21652
890.501	21477
890.624	21454
890.748	21481
890.871	21382
890.995	21378
891.118	21142
891.241	21279
891.364	21279
891.488	21291
891.611	21405
891.734	21169
891.857	21241
891.98	21203
892.103	21363
892.226	21230
892.349	21176
892.471	21077
892.594	21268
892.717	21199
892.839	21108
892.962	21169
893.085	21275
893.207	21119
893.33	21142
893.452	20982
893.575	21100
893.697	21043
893.819	21275
893.941	21344
894.064	21154
894.186	21085
894.308	21036
894.43	21207
894.552	21275
894.674	21233
894.796	20952
894.918	20971
895.04	21104
895.161	21195
895.283	21207
895.405	21013
895.526	21146
895.648	21070
895.769	21188
895.891	21013
896.012	21294
896.134	21291
896.255	21100
896.376	20967
896.498	21070
896.619	20990
896.74	20982
896.861	21264
896.982	21382
897.103	21583
897.224	21367
897.345	21214
897.466	21249
897.587	21348
897.708	21610
897.828	21408
897.949	21306
898.07	21195
898.19	21211
898.311	21473
898.431	21268
898.552	21401
898.672	21412
898.792	21389
898.913	21340
899.033	21123
899.153	21150
899.273	21066
899.393	21154
899.513	21123
899.633	21013
899.753	20933
899.873	20929
899.993	21116
900.113	21074
900.232	20925
900.352	20941
900.472	20838
900.591	20754
900.711	20834
900.83	20735
900.95	20845
901.069	20864
901.189	20678
901.308	20427
901.427	20427
901.546	20396
901.665	20377
901.784	20419
901.904	20317
902.023	20065
902.141	19875
902.26	19951
902.379	19986
902.498	19940
902.617	19860
902.735	19989
902.854	19879
902.973	19818
903.091	19544
903.21	19643
903.328	19518
903.446	19548
903.565	19304
903.683	19324
903.801	19118
903.919	19225
904.038	19266
904.156	19114
904.274	19168
904.392	19019
904.51	19046
904.627	19099
904.745	19118
904.863	19110
904.981	19065
905.098	18764
905.216	18802
905.334	18825
905.451	18696
905.569	18882
905.686	18802
905.803	18776
905.921	18547
906.038	18585
906.155	18631
906.272	18372
906.389	18585
906.506	18395
906.623	18270
906.74	18232
906.857	18174
906.974	18133
907.091	18380
907.208	18437
907.324	18289
907.441	18125
907.557	17992
907.674	17969
907.79	18015
907.907	18057
908.023	18045
908.139	17992
908.256	17927
908.372	17863
908.488	17783
908.604	17786
908.72	17691
908.836	17703
908.952	17764
909.068	17752
909.184	17851
909.3	17642
909.415	17745
909.531	17615
909.647	17448
909.762	17372
909.878	17452
909.993	17368
910.108	17379
910.224	17372
910.339	17425
910.454	17421
910.57	17197
910.685	17105
910.8	17444
910.915	17330
911.03	17189
911.145	17147
911.259	17006
911.374	17052
911.489	16873
911.604	16843
911.718	16717
911.833	16675
911.947	16599
912.062	16596
912.176	16668
912.291	16691
912.405	16740
912.519	16877
912.633	16858
912.748	16641
912.862	16721
912.976	16478
913.09	16470
913.204	16474
913.318	16546
913.431	16611
913.545	16577
913.659	16607
913.772	16451
913.886	16310
914	16398
914.113	16363
914.226	16356
914.34	16390
914.453	16226
914.566	16276
914.68	16181
914.793	16249
914.906	15930
915.019	15926
915.132	15911
915.245	15865
915.358	15937
915.47	15934
915.583	15930
915.696	15857
915.809	16078
915.921	15979
916.034	15846
916.146	15781
916.259	15690
916.371	15781
916.483	15823
916.595	15759
916.708	15713
916.82	15618
916.932	15679
917.044	15713
917.156	15633
917.268	15538
917.38	15618
917.491	15629
917.603	15549
917.715	15614
917.826	15576
917.938	15496
918.049	15412
918.161	15534
918.272	15568
918.384	15557
918.495	15393
918.606	15233
918.717	15161
918.828	15294
918.939	15306
919.05	15195
919.161	15264
919.272	15017
919.383	15222
919.494	15306
919.604	15424
919.715	15249
919.826	15169
919.936	15150
920.047	15252
920.157	15203
920.267	15408
920.378	15226
920.488	15230
920.598	15401
920.708	15473
920.818	15355
920.928	15374
921.038	15466
921.148	15389
921.258	15161
921.368	14937
921.477	14975
921.587	14944
921.697	14830
921.806	14937
921.916	14853
922.025	14617
922.134	14590
922.244	14598
922.353	14606
922.462	14427
922.571	14328
922.68	14313
922.789	14191
922.898	14191
923.007	14088
923.116	14282
923.224	14164
923.333	14199
923.442	14024
923.55	14001
923.659	14062
923.767	14043
923.876	14005
923.984	14050
924.092	13875
924.201	13982
924.309	14035
924.417	13944
924.525	13811
924.633	13795
924.741	14792
924.849	13681
924.956	13784
925.064	13685
925.172	13643
925.279	13510
925.387	13582
925.494	13510
925.602	13753
925.709	13571
925.816	13525
925.924	13514
926.031	13567
926.138	13575
926.245	13559
926.352	13384
926.459	13559
926.566	13578
926.673	13441
926.779	13346
926.886	13297
926.993	13152
927.099	13187
927.206	13042
927.312	13095
927.419	13187
927.525	13050
927.631	13057
927.737	13057
927.843	12943
927.95	12829
928.056	12951
928.162	12890
928.267	12924
928.373	13529
928.479	13027
928.585	12798
928.69	12867
928.796	12947
928.901	12814
929.007	12692
929.112	12760
929.218	12753
929.323	12715
929.428	12681
929.533	12764
929.638	12597
929.743	12589
929.848	12719
929.953	12620
930.058	12410
930.163	12334
930.267	12361
930.372	12441
930.477	12258
930.581	12525
930.685	12338
930.79	12205
930.894	12251
930.998	12167
931.103	12220
931.207	11988
931.311	11874
931.415	11699
931.519	11627
931.623	11615
