Data from test_V78500241_3755.txt Node
Date: Fri Mar 25 16:07:48 CST 2022
User: usil
Spectrometer: V785-0024
Trigger mode: 0
Integration Time (sec): 4.000000E-1
Scans to average: 1
Nonlinearity correction enabled: false
Boxcar width: 0
Storing dark spectrum: false
XAxis mode: Wavelengths
Number of Pixels in Spectrum: 1024
>>>>>Begin Spectral Data<<<<<
801.071	37122
801.214	37038
801.356	37084
801.499	37198
801.641	37206
801.783	37221
801.926	37308
802.068	37438
802.211	37441
802.353	37620
802.496	37464
802.638	37495
802.78	37563
802.923	37609
803.065	37635
803.208	37856
803.35	38122
803.492	38134
803.635	38244
803.777	38370
803.919	38457
804.061	38792
804.204	38743
804.346	38480
804.488	38503
804.63	38743
804.773	38400
804.915	38686
805.057	38857
805.199	38720
805.341	38712
805.483	38979
805.626	38876
805.768	38940
805.91	39017
806.052	39055
806.194	39024
806.336	39081
806.478	39062
806.62	39089
806.762	39275
806.904	39321
807.046	39709
807.188	39618
807.33	39568
807.472	39644
807.614	39660
807.756	39602
807.898	39481
808.04	39397
808.182	39507
808.324	39572
808.465	39462
808.607	39732
808.749	39865
808.891	39979
809.033	40078
809.174	39732
809.316	39835
809.458	39876
809.6	39739
809.741	39789
809.883	39793
810.025	40036
810.166	40101
810.308	40101
810.45	39941
810.591	39994
810.733	39869
810.875	39743
811.016	39797
811.158	39747
811.299	39800
811.441	39968
811.582	40040
811.724	39739
811.865	39751
812.007	39797
812.148	39739
812.29	39930
812.431	39953
812.573	40086
812.714	40219
812.855	40253
812.997	40219
813.138	40516
813.279	40265
813.421	40455
813.562	40352
813.703	40185
813.845	40181
813.986	39846
814.127	39743
814.268	39515
814.41	39504
814.551	39492
814.692	39686
814.833	39557
814.974	39485
815.115	39644
815.256	39412
815.397	39488
815.539	39523
815.68	39530
815.821	39135
815.962	39408
816.103	39306
816.244	39268
816.385	39131
816.526	39074
816.666	38963
816.807	38857
816.948	38834
817.089	39036
817.23	38895
817.371	38861
817.512	38826
817.653	38705
817.793	38590
817.934	38887
818.075	38754
818.216	38792
818.356	38811
818.497	38716
818.638	38537
818.778	38457
818.919	38648
819.06	38670
819.2	38762
819.341	39013
819.481	38807
819.622	39062
819.762	39081
819.903	39176
820.043	39165
820.184	38998
820.324	38986
820.465	39150
820.605	39009
820.746	39028
820.886	38842
821.026	38838
821.167	38940
821.307	38788
821.447	38758
821.588	38648
821.728	38609
821.868	38244
822.008	38263
822.149	38263
822.289	38240
822.429	37932
822.569	38069
822.709	37875
822.849	37860
822.99	37944
823.13	37826
823.27	37632
823.41	37597
823.55	37460
823.69	37609
823.83	37529
823.97	37521
824.11	37240
824.25	37358
824.389	37320
824.529	37575
824.669	37236
824.809	37457
824.949	37533
825.089	37518
825.228	37293
825.368	37217
825.508	37152
825.648	37206
825.787	37308
825.927	37373
826.067	37190
826.206	37289
826.346	37396
826.485	37282
826.625	37145
826.765	37392
826.904	37160
827.044	36894
827.183	37004
827.323	36814
827.462	37004
827.601	36951
827.741	36863
827.88	36791
828.02	36764
828.159	36791
828.298	36772
828.437	36817
828.577	36734
828.716	36863
828.855	36555
828.994	36422
829.134	36369
829.273	36391
829.412	36395
829.551	36384
829.69	36414
829.829	36395
829.968	36494
830.107	36464
830.246	36433
830.385	36129
830.524	36365
830.663	36330
830.802	36129
830.941	35901
831.08	35942
831.219	35984
831.357	36155
831.496	36155
831.635	36102
831.774	35931
831.913	35824
832.051	35661
832.19	35767
832.329	35653
832.467	35661
832.606	35520
832.744	35471
832.883	35554
833.022	35531
833.16	35482
833.299	35535
833.437	35535
833.576	35433
833.714	35524
833.852	35417
833.991	35608
834.129	35646
834.267	35459
834.406	35288
834.544	35528
834.682	35440
834.821	35375
834.959	35535
835.097	35383
835.235	35554
835.373	35395
835.511	35292
835.65	35174
835.788	35037
835.926	35029
836.064	35052
836.202	34934
836.34	35102
836.478	35094
836.615	35113
836.753	35162
836.891	35242
837.029	34953
837.167	35041
837.305	35052
837.443	34987
837.58	35048
837.718	35117
837.856	35029
837.993	35124
838.131	34904
838.269	34698
838.406	34904
838.544	34599
838.681	34660
838.819	34599
838.956	34382
839.094	34512
839.231	34440
839.369	34683
839.506	34611
839.643	34375
839.781	34249
839.918	34249
840.055	34200
840.193	34234
840.33	34063
840.467	34090
840.604	34135
840.742	34367
840.879	33724
841.016	33949
841.153	33842
841.29	34116
841.427	34013
841.564	34135
841.701	33945
841.838	33804
841.975	33869
842.112	33717
842.249	33698
842.385	33823
842.522	33953
842.659	33892
842.796	33656
842.933	33675
843.069	33690
843.206	33648
843.343	33682
843.479	33675
843.616	33758
843.752	33504
843.889	33511
844.025	33587
844.162	33424
844.298	33526
844.435	33420
844.571	33264
844.708	33348
844.844	33701
844.98	33401
845.117	33397
845.253	33351
845.389	33252
845.525	33317
845.661	33218
845.798	32940
845.934	33074
846.07	33051
846.206	33062
846.342	33150
846.478	32918
846.614	32834
846.75	32697
846.886	32811
847.022	32876
847.158	32693
847.294	32861
847.429	32674
847.565	32571
847.701	33020
847.837	32530
847.972	32450
848.108	32457
848.244	32560
848.379	32252
848.515	32233
848.65	32282
848.786	32153
848.921	32389
849.057	32419
849.192	32450
849.328	32210
849.463	32157
849.598	32206
849.734	32020
849.869	32157
850.004	32043
850.14	31932
850.275	32058
850.41	31799
850.545	31925
850.68	31769
850.815	31978
850.95	31947
851.085	32069
851.22	32012
851.355	32020
851.49	31940
851.625	31902
851.76	31856
851.895	31780
852.03	32008
852.165	31928
852.299	31936
852.434	31955
852.569	31951
852.703	31795
852.838	31871
852.973	31986
853.107	31845
853.242	31784
853.376	31628
853.511	31613
853.645	31639
853.78	31586
853.914	31681
854.048	31518
854.183	31639
854.317	31594
854.451	31951
854.585	31696
854.72	31571
854.854	31761
854.988	31578
855.122	31540
855.256	31464
855.39	31525
855.524	31594
855.658	31643
855.792	31563
855.926	31624
856.06	31575
856.194	31556
856.327	31518
856.461	31521
856.595	31518
856.729	31518
856.862	31567
856.996	31510
857.13	31605
857.263	31776
857.397	31590
857.53	31658
857.664	31506
857.797	31624
857.931	31662
858.064	31674
858.197	31586
858.331	31521
858.464	31259
858.597	31460
858.731	31502
858.864	31373
858.997	31575
859.13	31464
859.263	31506
859.396	31464
859.529	31525
859.662	31327
859.795	31354
859.928	31533
860.061	31495
860.194	31601
860.327	31514
860.46	31350
860.592	31567
860.725	31567
860.858	31632
860.99	31354
861.123	31232
861.256	31400
861.388	31582
861.521	32111
861.653	31301
861.786	31065
861.918	31415
862.05	31483
862.183	31548
862.315	31586
862.447	31753
862.58	31518
862.712	31244
862.844	31183
862.976	31148
863.108	31171
863.24	31601
863.372	30920
863.504	30871
863.636	30958
863.768	31103
863.9	31034
864.032	30787
864.164	30920
864.296	31183
864.428	30909
864.559	31069
864.691	30996
864.823	30989
864.954	30863
865.086	30985
865.217	30688
865.349	30681
865.48	30711
865.612	30627
865.743	30928
865.875	30958
866.006	30597
866.137	30791
866.269	30700
866.4	30658
866.531	30753
866.662	30627
866.793	30642
866.924	30726
867.055	30601
867.186	30665
867.317	30502
867.448	30429
867.579	30612
867.71	30483
867.841	30475
867.972	30620
868.103	30620
868.233	30536
868.364	30460
868.495	30532
868.625	30715
868.756	30928
868.886	30620
869.017	30821
869.147	30821
869.278	30863
869.408	30726
869.539	30722
869.669	30779
869.799	30745
869.929	30890
870.06	30848
870.19	31107
870.32	31012
870.45	30943
870.58	31061
870.71	31145
870.84	31221
870.97	31095
871.1	31076
871.23	31244
871.36	31236
871.489	31175
871.619	31225
871.749	31335
871.879	31362
872.008	31479
872.138	31327
872.267	31362
872.397	31301
872.526	31103
872.656	31217
872.785	31038
872.915	31331
873.044	31415
873.173	31240
873.303	31400
873.432	31331
873.561	31381
873.69	31464
873.819	31285
873.948	31426
874.077	31350
874.206	31228
874.335	31308
874.464	31251
874.593	31373
874.722	31502
874.851	31506
874.979	31354
875.108	31613
875.237	31495
875.365	31346
875.494	31441
875.623	31426
875.751	31400
875.88	31552
876.008	31567
876.136	31476
876.265	31944
876.393	31871
876.521	31693
876.65	31826
876.778	31696
876.906	31712
877.034	31613
877.162	31632
877.29	31620
877.418	31582
877.546	31658
877.674	31693
877.802	31464
877.93	31529
878.058	31742
878.185	31388
878.313	31666
878.441	31620
878.568	31533
878.696	31658
878.824	31609
878.951	31765
879.079	31685
879.206	31887
879.333	31814
879.461	31662
879.588	31742
879.715	31685
879.842	31738
879.97	31674
880.097	31457
880.224	31506
880.351	31457
880.478	31346
880.605	31476
880.732	31457
880.859	31658
880.986	31422
881.112	31540
881.239	31316
881.366	31145
881.493	31027
881.619	31053
881.746	30901
881.872	31027
881.999	30867
882.125	30798
882.252	31053
882.378	30954
882.505	31042
882.631	30810
882.757	30452
882.883	30722
883.01	30460
883.136	30616
883.262	30471
883.388	30308
883.514	30559
883.64	30563
883.766	30319
883.892	30384
884.018	30273
884.143	30349
884.269	30429
884.395	30232
884.52	30083
884.646	30030
884.772	29988
884.897	30133
885.023	29996
885.148	30076
885.274	30076
885.399	30140
885.524	30007
885.65	30060
885.775	30079
885.9	30064
886.025	30114
886.15	30041
886.275	30095
886.4	29931
886.525	29973
886.65	29920
886.775	29939
886.9	29950
887.025	30049
887.149	29866
887.274	29790
887.399	29627
887.523	29589
887.648	29501
887.773	29551
887.897	29703
888.021	29760
888.146	29570
888.27	29707
888.395	29642
888.519	29657
888.643	29551
888.767	29619
888.891	29551
889.015	29349
889.139	29406
889.263	29455
889.387	29467
889.511	29551
889.635	29364
889.759	29200
889.883	29258
890.006	29090
890.13	29200
890.254	29162
890.377	29037
890.501	28828
890.624	29098
890.748	28908
890.871	28683
890.995	28660
891.118	28717
891.241	28630
891.364	28630
891.488	28656
891.611	28596
891.734	28584
891.857	28721
891.98	28618
892.103	28542
892.226	28508
892.349	28394
892.471	28421
892.594	28253
892.717	28242
892.839	28192
892.962	28234
893.085	28440
893.207	28253
893.33	28238
893.452	28226
893.575	28337
893.697	28242
893.819	28424
893.941	28489
894.064	28310
894.186	28158
894.308	28173
894.43	28268
894.552	28272
894.674	28215
894.796	28021
894.918	27972
895.04	27994
895.161	28158
895.283	28074
895.405	27880
895.526	27987
895.648	27907
895.769	28059
895.891	27972
896.012	28032
896.134	27930
896.255	27926
896.376	27888
896.498	27812
896.619	28006
896.74	27930
896.861	27937
896.982	28341
897.103	28253
897.224	28051
897.345	28044
897.466	27812
897.587	27884
897.708	27895
897.828	27800
897.949	27804
898.07	27610
898.19	27622
898.311	27728
898.431	27603
898.552	27507
898.672	27405
898.792	27511
898.913	27306
899.033	27211
899.153	27051
899.273	26883
899.393	26902
899.513	26906
899.633	26921
899.753	26891
899.873	26522
899.993	26644
900.113	26480
900.232	26670
900.352	26632
900.472	26571
900.591	26533
900.711	26457
900.83	26514
900.95	26533
901.069	26644
901.189	26370
901.308	26229
901.427	25993
901.546	26122
901.665	25989
901.784	25993
901.904	25830
902.023	25731
902.141	25727
902.26	25537
902.379	25578
902.498	25609
902.617	25426
902.735	25434
902.854	25476
902.973	25324
903.091	25285
903.21	25122
903.328	25107
903.446	25072
903.565	25061
903.683	24939
903.801	24894
903.919	25031
904.038	24924
904.156	24776
904.274	24821
904.392	24821
904.51	24745
904.627	24772
904.745	24810
904.863	24863
904.981	24677
905.098	24525
905.216	24711
905.334	24540
905.451	24684
905.569	24585
905.686	24597
905.803	24601
905.921	24452
906.038	24593
906.155	24445
906.272	24304
906.389	24311
906.506	24186
906.623	24277
906.74	24091
906.857	24057
906.974	24201
907.091	24315
907.208	24243
907.324	24194
907.441	24098
907.557	23942
907.674	23931
907.79	23756
907.907	23882
908.023	23958
908.139	24018
908.256	23908
908.372	23920
908.488	23764
908.604	23657
908.72	23653
908.836	23627
908.952	23642
909.068	23630
909.184	23691
909.3	23649
909.415	23486
909.531	23566
909.647	23303
909.762	23269
909.878	23265
909.993	23242
910.108	23220
910.224	23220
910.339	23166
910.454	22953
910.57	22984
910.685	23025
910.8	23220
910.915	23140
911.03	22873
911.145	22824
911.259	22687
911.374	22588
911.489	22577
911.604	22459
911.718	22440
911.833	22424
911.947	22318
912.062	22249
912.176	22303
912.291	22451
912.405	22512
912.519	22607
912.633	22618
912.748	22284
912.862	22329
912.976	22188
913.09	21968
913.204	22154
913.318	22109
913.431	22284
913.545	22207
913.659	22131
913.772	22010
913.886	21934
914	21819
914.113	22017
914.226	21960
914.34	21884
914.453	21618
914.566	21770
914.68	21663
914.793	21530
914.906	21420
915.019	21268
915.132	21294
915.245	21214
915.358	21249
915.47	21249
915.583	21310
915.696	21260
915.809	21428
915.921	21386
916.034	21218
916.146	21051
916.259	21119
916.371	21096
916.483	21116
916.595	21028
916.708	20994
916.82	21036
916.932	20834
917.044	20876
917.156	20807
917.268	20693
917.38	20800
917.491	20686
917.603	20655
917.715	20606
917.826	20811
917.938	20579
918.049	20389
918.161	20594
918.272	20636
918.384	20549
918.495	20606
918.606	20427
918.717	20214
918.828	20317
918.939	20248
919.05	20191
919.161	20202
919.272	20077
919.383	19993
919.494	20168
919.604	20381
919.715	20081
919.826	19947
919.936	20221
920.047	20183
920.157	20092
920.267	20183
920.378	20130
920.488	20035
920.598	20149
920.708	20324
920.818	20058
920.928	20054
921.038	20176
921.148	20012
921.258	19791
921.368	19708
921.477	19700
921.587	19635
921.697	19358
921.806	19616
921.916	19476
922.025	19198
922.134	19103
922.244	19069
922.353	19183
922.462	19061
922.571	18825
922.68	18734
922.789	18741
922.898	18768
923.007	18639
923.116	18711
923.224	18696
923.333	18547
923.442	18540
923.55	18372
923.659	18479
923.767	18467
923.876	18338
923.984	18380
924.092	18155
924.201	18369
924.309	18220
924.417	18330
924.525	18251
924.633	18178
924.741	18924
924.849	17992
924.956	17992
925.064	17817
925.172	17798
925.279	17809
925.387	17741
925.494	17676
925.602	17866
925.709	17851
925.816	17577
925.924	17687
926.031	17710
926.138	17566
926.245	17600
926.352	17509
926.459	17649
926.566	17699
926.673	17482
926.779	17292
926.886	17330
926.993	17208
927.099	17079
927.206	17136
927.312	17022
927.419	17143
927.525	17105
927.631	16930
927.737	16873
927.843	16911
927.95	16763
928.056	16835
928.162	16911
928.267	16839
928.373	17459
928.479	16809
928.585	16592
928.69	16740
928.796	16812
928.901	16558
929.007	16455
929.112	16603
929.218	16481
929.323	16470
929.428	16310
929.533	16546
929.638	16363
929.743	16276
929.848	16257
929.953	16291
930.058	16071
930.163	15956
930.267	15930
930.372	16063
930.477	15823
930.581	15998
930.685	15934
930.79	15770
930.894	15793
930.998	15625
931.103	15861
931.207	15462
931.311	15294
931.415	15249
931.519	14967
931.623	14910
