Data from test_V78500241_3036.txt Node
Date: Fri Mar 25 16:02:49 CST 2022
User: usil
Spectrometer: V785-0024
Trigger mode: 0
Integration Time (sec): 4.000000E-1
Scans to average: 1
Nonlinearity correction enabled: false
Boxcar width: 0
Storing dark spectrum: false
XAxis mode: Wavelengths
Number of Pixels in Spectrum: 1024
>>>>>Begin Spectral Data<<<<<
801.071	28835
801.214	28702
801.356	28516
801.499	28531
801.641	28554
801.783	28470
801.926	28497
802.068	28577
802.211	28322
802.353	28382
802.496	28257
802.638	28055
802.78	28051
802.923	28067
803.065	28017
803.208	27922
803.35	28169
803.492	28280
803.635	28329
803.777	28322
803.919	28284
804.061	28733
804.204	28405
804.346	28246
804.488	28337
804.63	28363
804.773	28348
804.915	28527
805.057	28656
805.199	28409
805.341	28466
805.483	28611
805.626	28546
805.768	28409
805.91	28611
806.052	28504
806.194	28485
806.336	28694
806.478	28641
806.62	28535
806.762	28778
806.904	28691
807.046	29204
807.188	28949
807.33	29193
807.472	29086
807.614	28957
807.756	28965
807.898	28854
808.04	28706
808.182	28877
808.324	28835
808.465	28892
808.607	29151
808.749	29242
808.891	29360
809.033	29258
809.174	29197
809.316	29136
809.458	29147
809.6	29212
809.741	29387
809.883	29433
810.025	29562
810.166	29512
810.308	29543
810.45	29436
810.591	29623
810.733	29330
810.875	29303
811.016	29143
811.158	29117
811.299	29474
811.441	29482
811.582	29482
811.724	29429
811.865	29208
812.007	29151
812.148	29303
812.29	29440
812.431	29436
812.573	29547
812.714	29680
812.855	29783
812.997	29866
813.138	30003
813.279	30007
813.421	29672
813.562	29847
813.703	29615
813.845	29547
813.986	29162
814.127	29022
814.268	29018
814.41	29090
814.551	28793
814.692	29079
814.833	28820
814.974	28892
815.115	29018
815.256	28881
815.397	28961
815.539	28900
815.68	28790
815.821	28679
815.962	28706
816.103	28828
816.244	28527
816.385	28440
816.526	28645
816.666	28219
816.807	28356
816.948	28485
817.089	28375
817.23	28527
817.371	28329
817.512	28344
817.653	28230
817.793	28341
817.934	28200
818.075	28299
818.216	28413
818.356	28291
818.497	28280
818.638	27972
818.778	28029
818.919	28086
819.06	28207
819.2	28257
819.341	28367
819.481	28310
819.622	28504
819.762	28618
819.903	28512
820.043	28497
820.184	28565
820.324	28322
820.465	28675
820.605	28375
820.746	28428
820.886	28188
821.026	28249
821.167	28428
821.307	28561
821.447	28451
821.588	28310
821.728	28211
821.868	27922
822.008	27922
822.149	27873
822.289	27880
822.429	27568
822.569	27454
822.709	27523
822.849	27477
822.99	27389
823.13	27317
823.27	27188
823.41	27058
823.55	27058
823.69	27165
823.83	27119
823.97	27013
824.11	26994
824.25	26826
824.389	26891
824.529	27051
824.669	27062
824.809	27157
824.949	27131
825.089	27028
825.228	27009
825.368	26754
825.508	26979
825.648	26933
825.787	26944
825.927	26853
826.067	26796
826.206	26781
826.346	26834
826.485	26883
826.625	26891
826.765	26921
826.904	26876
827.044	26731
827.183	26568
827.323	26606
827.462	26602
827.601	26415
827.741	26480
827.88	26522
828.02	26396
828.159	26473
828.298	26648
828.437	26697
828.577	26450
828.716	26583
828.855	26415
828.994	26271
829.134	26339
829.273	26431
829.412	26191
829.551	26282
829.69	26237
829.829	26180
829.968	26336
830.107	26298
830.246	26267
830.385	26221
830.524	26035
830.663	26077
830.802	25974
830.941	25761
831.08	25723
831.219	25871
831.357	25940
831.496	26115
831.635	25791
831.774	25788
831.913	25681
832.051	25632
832.19	25556
832.329	25635
832.467	25499
832.606	25567
832.744	25388
832.883	25582
833.022	25381
833.16	25441
833.299	25537
833.437	25620
833.576	25658
833.714	25563
833.852	25605
833.991	25719
834.129	25746
834.267	25578
834.406	25643
834.544	25647
834.682	25544
834.821	25552
834.959	25704
835.097	25521
835.235	25575
835.373	25662
835.511	25597
835.65	25521
835.788	25419
835.926	25228
836.064	25289
836.202	25320
836.34	25460
836.478	25479
836.615	25388
836.753	25396
836.891	25533
837.029	25316
837.167	25316
837.305	25251
837.443	25274
837.58	25289
837.718	25331
837.856	25270
837.993	25080
838.131	25194
838.269	25114
838.406	25118
838.544	25057
838.681	24951
838.819	24856
838.956	24658
839.094	24779
839.231	24688
839.369	24962
839.506	25221
839.643	25012
839.781	24722
839.918	24669
840.055	24779
840.193	24601
840.33	24570
840.467	24768
840.604	24757
840.742	24798
840.879	24521
841.016	24646
841.153	24563
841.29	24726
841.427	24509
841.564	24684
841.701	24532
841.838	24597
841.975	24551
842.112	24505
842.249	24372
842.385	24380
842.522	24555
842.659	24372
842.796	24296
842.933	24395
843.069	24395
843.206	24330
843.343	24452
843.479	24445
843.616	24346
843.752	24174
843.889	24136
844.025	24243
844.162	24068
844.298	24213
844.435	24140
844.571	24091
844.708	24079
844.844	24304
844.98	24300
845.117	24167
845.253	24144
845.389	24072
845.525	24060
845.661	24034
845.798	23878
845.934	23859
846.07	23874
846.206	23897
846.342	24038
846.478	23752
846.614	23615
846.75	23516
846.886	23634
847.022	23661
847.158	23649
847.294	23729
847.429	23554
847.565	23554
847.701	23851
847.837	23265
847.972	23322
848.108	23452
848.244	23349
848.379	23155
848.515	23105
848.65	23083
848.786	23235
848.921	23155
849.057	23296
849.192	23086
849.328	23212
849.463	23090
849.598	23018
849.734	23003
849.869	22999
850.004	22953
850.14	23056
850.275	23041
850.41	22927
850.545	22790
850.68	22809
850.815	22934
850.95	23014
851.085	23128
851.22	22900
851.355	23018
851.49	22782
851.625	22930
851.76	22877
851.895	22858
852.03	22900
852.165	23022
852.299	22953
852.434	22942
852.569	22930
852.703	23018
852.838	22972
852.973	22991
853.107	23048
853.242	22774
853.376	22771
853.511	22649
853.645	22778
853.78	22923
853.914	22812
854.048	22717
854.183	22729
854.317	22767
854.451	23003
854.585	22869
854.72	22713
854.854	22778
854.988	22634
855.122	22778
855.256	22668
855.39	22759
855.524	22797
855.658	22748
855.792	22653
855.926	22713
856.06	22721
856.194	22847
856.327	22786
856.461	22672
856.595	22706
856.729	22805
856.862	22828
856.996	22755
857.13	22854
857.263	22862
857.397	22744
857.53	22683
857.664	22733
857.797	22759
857.931	22972
858.064	22713
858.197	22820
858.331	22805
858.464	22744
858.597	22713
858.731	22683
858.864	22793
858.997	22672
859.13	22744
859.263	22744
859.396	22824
859.529	22820
859.662	22744
859.795	22778
859.928	22679
860.061	22854
860.194	23060
860.327	22740
860.46	22801
860.592	22843
860.725	23113
860.858	22923
860.99	22835
861.123	22782
861.256	22801
861.388	22706
861.521	23554
861.653	22713
861.786	22557
861.918	22672
862.05	22634
862.183	22683
862.315	22630
862.447	22790
862.58	22626
862.712	22485
862.844	22409
862.976	22535
863.108	22618
863.24	22736
863.372	22436
863.504	22459
863.636	22341
863.768	22398
863.9	22550
864.032	22466
864.164	22394
864.296	22500
864.428	22580
864.559	22611
864.691	22466
864.823	22504
864.954	22508
865.086	22287
865.217	22276
865.349	22204
865.48	22344
865.612	22394
865.743	22470
865.875	22402
866.006	22303
866.137	22329
866.269	22295
866.4	22341
866.531	22322
866.662	22215
866.793	22246
866.924	22280
867.055	22371
867.186	22337
867.317	22128
867.448	22154
867.579	22284
867.71	22173
867.841	22150
867.972	22344
868.103	22230
868.233	22238
868.364	22325
868.495	22314
868.625	22402
868.756	22603
868.886	22466
869.017	22493
869.147	22546
869.278	22713
869.408	22470
869.539	22557
869.669	22592
869.799	22588
869.929	22569
870.06	22622
870.19	22805
870.32	22812
870.45	22900
870.58	22805
870.71	23010
870.84	23003
870.97	22862
871.1	22805
871.23	23189
871.36	23117
871.489	22991
871.619	23048
871.749	23170
871.879	23052
872.008	23162
872.138	23124
872.267	23197
872.397	22999
872.526	22885
872.656	23056
872.785	22946
872.915	23136
873.044	23181
873.173	23128
873.303	23178
873.432	23246
873.561	23178
873.69	23109
873.819	23208
873.948	23200
874.077	23223
874.206	23060
874.335	23227
874.464	23242
874.593	23315
874.722	23417
874.851	23277
874.979	23360
875.108	23368
875.237	23296
875.365	23250
875.494	23360
875.623	23349
875.751	23353
875.88	23189
876.008	23558
876.136	23520
876.265	23676
876.393	23935
876.521	23813
876.65	23733
876.778	23783
876.906	23707
877.034	23554
877.162	23760
877.29	23608
877.418	23642
877.546	23627
877.674	23531
877.802	23592
877.93	23642
878.058	23512
878.185	23474
878.313	23619
878.441	23630
878.568	23642
878.696	23512
878.824	23703
878.951	23718
879.079	23855
879.206	24015
879.333	23874
879.461	23672
879.588	23802
879.715	23885
879.842	23965
879.97	23687
880.097	23433
880.224	23482
880.351	23630
880.478	23653
880.605	23535
880.732	23398
880.859	23695
880.986	23486
881.112	23482
881.239	23261
881.366	23334
881.493	23170
881.619	23044
881.746	23170
881.872	23136
881.999	23022
882.125	22965
882.252	23094
882.378	23140
882.505	23155
882.631	22850
882.757	22698
882.883	22828
883.01	22694
883.136	22702
883.262	22577
883.388	22577
883.514	22740
883.64	22782
883.766	22584
883.892	22459
884.018	22493
884.143	22664
884.269	22736
884.395	22356
884.52	22246
884.646	22409
884.772	22379
884.897	22367
885.023	22398
885.148	22409
885.274	22538
885.399	22497
885.524	22348
885.65	22379
885.775	22306
885.9	22204
886.025	22542
886.15	22436
886.275	22348
886.4	22265
886.525	22261
886.65	22082
886.775	22192
886.9	22447
887.025	22672
887.149	22402
887.274	22188
887.399	21987
887.523	22139
887.648	22017
887.773	21972
887.897	22147
888.021	22109
888.146	22109
888.27	22162
888.395	22219
888.519	22131
888.643	22074
888.767	22067
888.891	22101
889.015	21930
889.139	21895
889.263	21926
889.387	21979
889.511	22112
889.635	22021
889.759	21762
889.883	21998
890.006	21968
890.13	21884
890.254	21854
890.377	21751
890.501	21644
890.624	21743
890.748	21633
890.871	21549
890.995	21443
891.118	21469
891.241	21393
891.364	21397
891.488	21511
891.611	21386
891.734	21351
891.857	21507
891.98	21454
892.103	21439
892.226	21492
892.349	21310
892.471	21310
892.594	21378
892.717	21359
892.839	21310
892.962	21389
893.085	21302
893.207	21321
893.33	21180
893.452	21233
893.575	21367
893.697	21302
893.819	21526
893.941	21515
894.064	21526
894.186	21294
894.308	21138
894.43	21428
894.552	21454
894.674	21340
894.796	21222
894.918	21230
895.04	21268
895.161	21389
895.283	21329
895.405	21264
895.526	21264
895.648	21374
895.769	21275
895.891	21291
896.012	21469
896.134	21424
896.255	21283
896.376	21173
896.498	21264
896.619	21405
896.74	21249
896.861	21329
896.982	21679
897.103	21739
897.224	21485
897.345	21587
897.466	21370
897.587	21469
897.708	21663
897.828	21492
897.949	21431
898.07	21348
898.19	21340
898.311	21542
898.431	21424
898.552	21519
898.672	21363
898.792	21591
898.913	21488
899.033	21348
899.153	21287
899.273	21119
899.393	21131
899.513	21256
899.633	21287
899.753	21116
899.873	21146
899.993	21245
900.113	21252
900.232	21184
900.352	21066
900.472	20986
900.591	20971
900.711	21062
900.83	20941
900.95	21070
901.069	21081
901.189	20925
901.308	20636
901.427	20495
901.546	20598
901.665	20682
901.784	20682
901.904	20343
902.023	20480
902.141	20077
902.26	20092
902.379	20252
902.498	20077
902.617	19989
902.735	20225
902.854	19978
902.973	20012
903.091	19696
903.21	19772
903.328	19647
903.446	19563
903.565	19457
903.683	19635
903.801	19415
903.919	19438
904.038	19392
904.156	19293
904.274	19308
904.392	19282
904.51	19274
904.627	19251
904.745	19190
904.863	19369
904.981	19019
905.098	18894
905.216	18935
905.334	18939
905.451	18981
905.569	18848
905.686	18909
905.803	18909
905.921	18772
906.038	18791
906.155	18741
906.272	18585
906.389	18578
906.506	18555
906.623	18563
906.74	18433
906.857	18426
906.974	18467
907.091	18578
907.208	18521
907.324	18456
907.441	18384
907.557	18163
907.674	18220
907.79	18190
907.907	18110
908.023	18155
908.139	18228
908.256	18194
908.372	18060
908.488	18015
908.604	18019
908.72	17935
908.836	17764
908.952	17790
909.068	17946
909.184	17901
909.3	17882
909.415	17931
909.531	17756
909.647	17592
909.762	17600
909.878	17646
909.993	17619
910.108	17573
910.224	17585
910.339	17570
910.454	17391
910.57	17395
910.685	17341
910.8	17535
910.915	17452
911.03	17368
911.145	17220
911.259	17136
911.374	17102
911.489	17071
911.604	17041
911.718	16866
911.833	16869
911.947	16900
912.062	16850
912.176	16847
912.291	16923
912.405	16790
912.519	17105
912.633	17113
912.748	16919
912.862	16752
912.976	16725
913.09	16554
913.204	16649
913.318	16569
913.431	16797
913.545	16793
913.659	16790
913.772	16717
913.886	16558
914	16527
914.113	16497
914.226	16565
914.34	16462
914.453	16379
914.566	16516
914.68	16363
914.793	16234
914.906	16169
915.019	16071
915.132	16002
915.245	15998
915.358	16059
915.47	16093
915.583	16017
915.696	16059
915.809	16101
915.921	16112
916.034	15991
916.146	15895
916.259	15956
916.371	15991
916.483	15983
916.595	15816
916.708	15880
916.82	15842
916.932	15892
917.044	15835
917.156	15747
917.268	15629
917.38	15770
917.491	15614
917.603	15656
917.715	15728
917.826	15728
917.938	15644
918.049	15496
918.161	15576
918.272	15732
918.384	15698
918.495	15580
918.606	15405
918.717	15348
918.828	15294
918.939	15336
919.05	15211
919.161	15321
919.272	15135
919.383	15291
919.494	15526
919.604	15511
919.715	15310
919.826	15264
919.936	15302
920.047	15439
920.157	15370
920.267	15534
920.378	15321
920.488	15268
920.598	15526
920.708	15732
920.818	15504
920.928	15386
921.038	15671
921.148	15549
921.258	15329
921.368	15138
921.477	15020
921.587	14902
921.697	14941
921.806	15074
921.916	14895
922.025	14705
922.134	14621
922.244	14644
922.353	14746
922.462	14598
922.571	14465
922.68	14461
922.789	14370
922.898	14324
923.007	14286
923.116	14343
923.224	14290
923.333	14347
923.442	14119
923.55	14191
923.659	14210
923.767	14176
923.876	14149
923.984	14199
924.092	13940
924.201	14073
924.309	14024
924.417	14020
924.525	14062
924.633	13947
924.741	14731
924.849	13788
924.956	13978
925.064	13632
925.172	13700
925.279	13651
925.387	13715
925.494	13670
925.602	13791
925.709	13784
925.816	13670
925.924	13677
926.031	13693
926.138	13620
926.245	13674
926.352	13582
926.459	13575
926.566	13757
926.673	13620
926.779	13476
926.886	13460
926.993	13320
927.099	13354
927.206	13247
927.312	13206
927.419	13339
927.525	13213
927.631	13247
927.737	13126
927.843	13175
927.95	13019
928.056	13122
928.162	13061
928.267	13076
928.373	13803
928.479	13118
928.585	12848
928.69	12993
928.796	13053
928.901	12909
929.007	12791
929.112	12901
929.218	12924
929.323	12722
929.428	12783
929.533	13008
929.638	12707
929.743	12760
929.848	12764
929.953	12658
930.058	12669
930.163	12441
930.267	12540
930.372	12604
930.477	12350
930.581	12635
930.685	12490
930.79	12300
930.894	12388
930.998	12308
931.103	12471
931.207	12003
931.311	12022
931.415	11920
931.519	11729
931.623	11718
