Data from test_V78500241_3205.txt Node
Date: Fri Mar 25 16:04:00 CST 2022
User: usil
Spectrometer: V785-0024
Trigger mode: 0
Integration Time (sec): 4.000000E-1
Scans to average: 1
Nonlinearity correction enabled: false
Boxcar width: 0
Storing dark spectrum: false
XAxis mode: Wavelengths
Number of Pixels in Spectrum: 1024
>>>>>Begin Spectral Data<<<<<
801.071	28508
801.214	28447
801.356	28333
801.499	28268
801.641	28314
801.783	28139
801.926	28242
802.068	28147
802.211	27998
802.353	28074
802.496	27907
802.638	27876
802.78	27743
802.923	27648
803.065	27724
803.208	27827
803.35	27720
803.492	27930
803.635	28055
803.777	27869
803.919	28032
804.061	28314
804.204	28207
804.346	27987
804.488	28013
804.63	28051
804.773	27968
804.915	28101
805.057	28318
805.199	27960
805.341	28177
805.483	28196
805.626	28192
805.768	28059
805.91	28226
806.052	28234
806.194	28112
806.336	28573
806.478	28246
806.62	28185
806.762	28401
806.904	28348
807.046	28797
807.188	28653
807.33	28717
807.472	28812
807.614	28603
807.756	28664
807.898	28542
808.04	28436
808.182	28401
808.324	28531
808.465	28565
808.607	28637
808.749	28778
808.891	29048
809.033	29193
809.174	28927
809.316	28824
809.458	28900
809.6	29025
809.741	28888
809.883	29064
810.025	29185
810.166	29227
810.308	29117
810.45	29041
810.591	29124
810.733	29010
810.875	28869
811.016	28927
811.158	28824
811.299	29014
811.441	29060
811.582	29052
811.724	28904
811.865	28831
812.007	28896
812.148	28946
812.29	28972
812.431	28984
812.573	29398
812.714	29406
812.855	29490
812.997	29604
813.138	29748
813.279	29661
813.421	29417
813.562	29467
813.703	29258
813.845	29162
813.986	28835
814.127	28694
814.268	28527
814.41	28782
814.551	28546
814.692	28664
814.833	28573
814.974	28622
815.115	28618
815.256	28561
815.397	28519
815.539	28531
815.68	28443
815.821	28421
815.962	28546
816.103	28417
816.244	28318
816.385	28207
816.526	28200
816.666	28086
816.807	27968
816.948	27876
817.089	27899
817.23	28067
817.371	27994
817.512	27899
817.653	27922
817.793	27880
817.934	28051
818.075	28013
818.216	27888
818.356	27774
818.497	27930
818.638	27618
818.778	27682
818.919	27610
819.06	27865
819.2	27751
819.341	27861
819.481	27892
819.622	28120
819.762	28284
819.903	28238
820.043	28200
820.184	28112
820.324	28097
820.465	28131
820.605	28010
820.746	28010
820.886	28067
821.026	28101
821.167	27960
821.307	28082
821.447	27918
821.588	27873
821.728	27717
821.868	27614
822.008	27424
822.149	27420
822.289	27439
822.429	27157
822.569	27100
822.709	27192
822.849	27062
822.99	26872
823.13	26872
823.27	26940
823.41	26773
823.55	26659
823.69	26819
823.83	26880
823.97	26727
824.11	26549
824.25	26480
824.389	26541
824.529	26663
824.669	26606
824.809	26617
824.949	26705
825.089	26590
825.228	26750
825.368	26400
825.508	26549
825.648	26438
825.787	26541
825.927	26492
826.067	26419
826.206	26457
826.346	26484
826.485	26537
826.625	26442
826.765	26697
826.904	26552
827.044	26278
827.183	26271
827.323	26294
827.462	26317
827.601	26221
827.741	26107
827.88	26161
828.02	26050
828.159	26183
828.298	26202
828.437	26221
828.577	26145
828.716	26271
828.855	26046
828.994	25753
829.134	25970
829.273	25974
829.412	25647
829.551	25841
829.69	25799
829.829	25803
829.968	25932
830.107	25974
830.246	25860
830.385	25818
830.524	25742
830.663	25734
830.802	25575
830.941	25476
831.08	25384
831.219	25476
831.357	25487
831.496	25616
831.635	25491
831.774	25312
831.913	25255
832.051	25263
832.19	25202
832.329	25362
832.467	25126
832.606	25133
832.744	25027
832.883	25202
833.022	25145
833.16	25221
833.299	25171
833.437	25133
833.576	25301
833.714	25339
833.852	25339
833.991	25369
834.129	25289
834.267	25331
834.406	25228
834.544	25312
834.682	25202
834.821	25194
834.959	25377
835.097	25069
835.235	25285
835.373	25114
835.511	25274
835.65	24970
835.788	25031
835.926	24985
836.064	24844
836.202	24817
836.34	25008
836.478	25110
836.615	25038
836.753	25008
836.891	25160
837.029	25034
837.167	24985
837.305	24932
837.443	24985
837.58	24981
837.718	24863
837.856	24909
837.993	24734
838.131	24901
838.269	24703
838.406	24791
838.544	24772
838.681	24505
838.819	24509
838.956	24289
839.094	24262
839.231	24338
839.369	24513
839.506	24700
839.643	24513
839.781	24251
839.918	24254
840.055	24380
840.193	24220
840.33	24235
840.467	24353
840.604	24251
840.742	24517
840.879	24095
841.016	24140
841.153	24030
841.29	24308
841.427	24205
841.564	24148
841.701	24292
841.838	24213
841.975	24178
842.112	24098
842.249	24045
842.385	24041
842.522	24235
842.659	24064
842.796	24079
842.933	23958
843.069	23897
843.206	23870
843.343	24148
843.479	24053
843.616	23836
843.752	23802
843.889	23809
844.025	23813
844.162	23726
844.298	23870
844.435	23680
844.571	23851
844.708	23859
844.844	23859
844.98	23798
845.117	23840
845.253	23745
845.389	23600
845.525	23699
845.661	23524
845.798	23596
845.934	23520
846.07	23455
846.206	23444
846.342	23608
846.478	23493
846.614	23303
846.75	23341
846.886	23235
847.022	23265
847.158	23155
847.294	23273
847.429	23292
847.565	23159
847.701	23539
847.837	22965
847.972	23003
848.108	22999
848.244	23044
848.379	22782
848.515	22923
848.65	22793
848.786	22812
848.921	22946
849.057	22904
849.192	22911
849.328	22972
849.463	22805
849.598	22660
849.734	22725
849.869	22702
850.004	22649
850.14	22660
850.275	22569
850.41	22500
850.545	22519
850.68	22405
850.815	22565
850.95	22615
851.085	22675
851.22	22729
851.355	22550
851.49	22588
851.625	22478
851.76	22497
851.895	22516
852.03	22565
852.165	22421
852.299	22535
852.434	22664
852.569	22630
852.703	22557
852.838	22546
852.973	22641
853.107	22626
853.242	22557
853.376	22462
853.511	22242
853.645	22306
853.78	22519
853.914	22375
854.048	22451
854.183	22382
854.317	22500
854.451	22599
854.585	22424
854.72	22348
854.854	22409
854.988	22253
855.122	22344
855.256	22177
855.39	22394
855.524	22523
855.658	22436
855.792	22580
855.926	22428
856.06	22253
856.194	22603
856.327	22363
856.461	22363
856.595	22257
856.729	22390
856.862	22554
856.996	22318
857.13	22356
857.263	22523
857.397	22561
857.53	22360
857.664	22462
857.797	22531
857.931	22527
858.064	22386
858.197	22512
858.331	22474
858.464	22223
858.597	22333
858.731	22329
858.864	22363
858.997	22306
859.13	22325
859.263	22341
859.396	22440
859.529	22223
859.662	22466
859.795	22257
859.928	22352
860.061	22466
860.194	22710
860.327	22531
860.46	22344
860.592	22440
860.725	22542
860.858	22519
860.99	22481
861.123	22344
861.256	22276
861.388	22459
861.521	23056
861.653	22329
861.786	22169
861.918	22154
862.05	22314
862.183	22257
862.315	22337
862.447	22443
862.58	22344
862.712	22063
862.844	22070
862.976	22223
863.108	22303
863.24	22470
863.372	22109
863.504	22162
863.636	22154
863.768	22150
863.9	22116
864.032	22268
864.164	22006
864.296	22246
864.428	22109
864.559	22097
864.691	22226
864.823	22082
864.954	22040
865.086	22101
865.217	21949
865.349	22013
865.48	21987
865.612	22090
865.743	22109
865.875	21953
866.006	22021
866.137	21987
866.269	21979
866.4	21964
866.531	21819
866.662	21816
866.793	21926
866.924	21892
867.055	21926
867.186	21979
867.317	21937
867.448	21804
867.579	21846
867.71	21842
867.841	21728
867.972	21949
868.103	21956
868.233	21915
868.364	21869
868.495	22116
868.625	22162
868.756	22272
868.886	22082
869.017	22207
869.147	22249
869.278	22272
869.408	22215
869.539	22093
869.669	22139
869.799	22299
869.929	22344
870.06	22162
870.19	22546
870.32	22394
870.45	22344
870.58	22523
870.71	22607
870.84	22599
870.97	22527
871.1	22512
871.23	22782
871.36	22774
871.489	22615
871.619	22653
871.749	22691
871.879	22797
872.008	22885
872.138	22759
872.267	22763
872.397	22630
872.526	22592
872.656	22599
872.785	22752
872.915	22896
873.044	22786
873.173	22831
873.303	22877
873.432	22740
873.561	22904
873.69	22687
873.819	22828
873.948	22889
874.077	22812
874.206	22786
874.335	22911
874.464	22862
874.593	23029
874.722	22995
874.851	22949
874.979	22942
875.108	23071
875.237	23010
875.365	22938
875.494	23044
875.623	23037
875.751	22976
875.88	23022
876.008	23159
876.136	23185
876.265	23303
876.393	23410
876.521	23490
876.65	23562
876.778	23376
876.906	23292
877.034	23379
877.162	23406
877.29	23311
877.418	23242
877.546	23398
877.674	23368
877.802	23280
877.93	23326
878.058	23337
878.185	23303
878.313	23204
878.441	23307
878.568	23052
878.696	23280
878.824	23417
878.951	23429
879.079	23387
879.206	23570
879.333	23497
879.461	23562
879.588	23425
879.715	23391
879.842	23665
879.97	23478
880.097	23220
880.224	23261
880.351	23227
880.478	23185
880.605	23151
880.732	23105
880.859	23414
880.986	23003
881.112	23067
881.239	23064
881.366	22927
881.493	22831
881.619	22698
881.746	22847
881.872	22736
881.999	22748
882.125	22634
882.252	22687
882.378	22698
882.505	22759
882.631	22596
882.757	22379
882.883	22440
883.01	22360
883.136	22402
883.262	22261
883.388	22226
883.514	22508
883.64	22314
883.766	22348
883.892	22162
884.018	22147
884.143	22344
884.269	22325
884.395	22021
884.52	21994
884.646	21930
884.772	21964
884.897	22010
885.023	22029
885.148	22101
885.274	22097
885.399	22010
885.524	22006
885.65	22021
885.775	22059
885.9	21915
886.025	22101
886.15	21983
886.275	21983
886.4	21861
886.525	22086
886.65	21915
886.775	21827
886.9	22112
887.025	22200
887.149	21964
887.274	21789
887.399	21728
887.523	21861
887.648	21671
887.773	21648
887.897	21766
888.021	21816
888.146	21637
888.27	21907
888.395	21876
888.519	21865
888.643	21854
888.767	21736
888.891	21625
889.015	21515
889.139	21633
889.263	21610
889.387	21656
889.511	21759
889.635	21743
889.759	21515
889.883	21587
890.006	21500
890.13	21622
890.254	21473
890.377	21424
890.501	21310
890.624	21249
890.748	21351
890.871	21226
890.995	21127
891.118	21100
891.241	21154
891.364	21176
891.488	21294
891.611	21123
891.734	21104
891.857	21093
891.98	21013
892.103	21237
892.226	21047
892.349	21051
892.471	21017
892.594	20956
892.717	20944
892.839	20979
892.962	21032
893.085	21135
893.207	20986
893.33	20918
893.452	20960
893.575	21104
893.697	20880
893.819	21085
893.941	21275
894.064	21165
894.186	21093
894.308	20998
894.43	21074
894.552	21119
894.674	21062
894.796	20960
894.918	21051
895.04	20914
895.161	21203
895.283	21051
895.405	20921
895.526	21066
895.648	20910
895.769	20952
895.891	20902
896.012	21131
896.134	21017
896.255	21001
896.376	20956
896.498	21020
896.619	21020
896.74	20910
896.861	21024
896.982	21351
897.103	21283
897.224	21119
897.345	21150
897.466	21119
897.587	21260
897.708	21439
897.828	21241
897.949	21184
898.07	20971
898.19	21096
898.311	21218
898.431	21051
898.552	21104
898.672	21306
898.792	21192
898.913	21211
899.033	20994
899.153	21001
899.273	20804
899.393	20933
899.513	20868
899.633	20899
899.753	20891
899.873	20876
899.993	20948
900.113	20811
900.232	20891
900.352	20845
900.472	20769
900.591	20613
900.711	20655
900.83	20800
900.95	20697
901.069	20758
901.189	20579
901.308	20351
901.427	20225
901.546	20282
901.665	20275
901.784	20271
901.904	20294
902.023	20012
902.141	19887
902.26	19769
902.379	19856
902.498	19906
902.617	19658
902.735	19833
902.854	19677
902.973	19662
903.091	19499
903.21	19422
903.328	19449
903.446	19343
903.565	19202
903.683	19259
903.801	19179
903.919	19137
904.038	19152
904.156	19034
904.274	19046
904.392	19038
904.51	18962
904.627	19019
904.745	18947
904.863	19050
904.981	18837
905.098	18585
905.216	18791
905.334	18574
905.451	18681
905.569	18730
905.686	18635
905.803	18661
905.921	18517
906.038	18475
906.155	18532
906.272	18414
906.389	18353
906.506	18186
906.623	18213
906.74	18136
906.857	18102
906.974	18053
907.091	18296
907.208	18220
907.324	18247
907.441	18041
907.557	17901
907.674	17904
907.79	17855
907.907	17889
908.023	17946
908.139	17840
908.256	17882
908.372	17821
908.488	17752
908.604	17665
908.72	17600
908.836	17657
908.952	17589
909.068	17680
909.184	17680
909.3	17623
909.415	17699
909.531	17600
909.647	17360
909.762	17269
909.878	17303
909.993	17318
910.108	17265
910.224	17273
910.339	17341
910.454	17128
910.57	17041
910.685	17033
910.8	17292
910.915	17246
911.03	17025
911.145	16976
911.259	16885
911.374	16968
911.489	16809
911.604	16748
911.718	16698
911.833	16603
911.947	16451
912.062	16508
912.176	16683
912.291	16702
912.405	16649
912.519	16835
912.633	16763
912.748	16702
912.862	16577
912.976	16386
913.09	16405
913.204	16382
913.318	16462
913.431	16546
913.545	16527
913.659	16565
913.772	16512
913.886	16295
914	16261
914.113	16242
914.226	16306
914.34	16287
914.453	16131
914.566	16204
914.68	16124
914.793	16025
914.906	15850
915.019	15895
915.132	15831
915.245	15846
915.358	15869
915.47	15804
915.583	15785
915.696	15804
915.809	15911
915.921	15926
916.034	15720
916.146	15743
916.259	15663
916.371	15732
916.483	15774
916.595	15652
916.708	15625
916.82	15648
916.932	15614
917.044	15587
917.156	15530
917.268	15473
917.38	15576
917.491	15485
917.603	15416
917.715	15549
917.826	15545
917.938	15405
918.049	15245
918.161	15378
918.272	15519
918.384	15553
918.495	15351
918.606	15222
918.717	15135
918.828	15184
918.939	15218
919.05	15108
919.161	15176
919.272	14982
919.383	15062
919.494	15150
919.604	15405
919.715	15165
919.826	15028
919.936	15142
920.047	15180
920.157	15226
920.267	15329
920.378	15161
920.488	15081
920.598	15447
920.708	15420
920.818	15256
920.928	15230
921.038	15302
921.148	15374
921.258	15222
921.368	14967
921.477	14933
921.587	14933
921.697	14834
921.806	14868
921.916	14590
922.025	14640
922.134	14568
922.244	14415
922.353	14560
922.462	14385
922.571	14286
922.68	14180
922.789	14183
922.898	14153
923.007	14123
923.116	14096
923.224	14043
923.333	14107
923.442	13940
923.55	13970
923.659	14024
923.767	14043
923.876	13868
923.984	13932
924.092	13765
924.201	13803
924.309	13841
924.417	13860
924.525	13757
924.633	13799
924.741	14575
924.849	13609
924.956	13723
925.064	13628
925.172	13426
925.279	13487
925.387	13567
925.494	13453
925.602	13616
925.709	13537
925.816	13441
925.924	13362
926.031	13483
926.138	13426
926.245	13495
926.352	13335
926.459	13483
926.566	13540
926.673	13362
926.779	13221
926.886	13232
926.993	13088
927.099	13057
927.206	12989
927.312	13088
927.419	13023
927.525	13088
927.631	13114
927.737	12932
927.843	12909
927.95	12741
928.056	12837
928.162	12924
928.267	12863
928.373	13457
928.479	12943
928.585	12582
928.69	12802
928.796	12840
928.901	12715
929.007	12650
929.112	12768
929.218	12787
929.323	12616
929.428	12509
929.533	12734
929.638	12502
929.743	12532
929.848	12604
929.953	12483
930.058	12327
930.163	12209
930.267	12182
930.372	12327
930.477	12224
930.581	12475
930.685	12289
930.79	12136
930.894	12083
930.998	12057
931.103	12194
931.207	11847
931.311	11809
931.415	11756
931.519	11543
931.623	11524
