Data from test_V78500241_1235.txt Node
Date: Fri Mar 25 15:50:21 CST 2022
User: usil
Spectrometer: V785-0024
Trigger mode: 0
Integration Time (sec): 4.000000E-1
Scans to average: 1
Nonlinearity correction enabled: false
Boxcar width: 0
Storing dark spectrum: false
XAxis mode: Wavelengths
Number of Pixels in Spectrum: 1024
>>>>>Begin Spectral Data<<<<<
801.071	28653
801.214	28592
801.356	28474
801.499	28333
801.641	28234
801.783	28223
801.926	28242
802.068	28128
802.211	28143
802.353	28196
802.496	28040
802.638	28074
802.78	27968
802.923	27835
803.065	27747
803.208	27709
803.35	27888
803.492	27983
803.635	28135
803.777	28097
803.919	28124
804.061	28382
804.204	28226
804.346	28128
804.488	28135
804.63	28192
804.773	28063
804.915	28249
805.057	28188
805.199	28086
805.341	28234
805.483	28398
805.626	28192
805.768	28226
805.91	28352
806.052	28497
806.194	28234
806.336	28504
806.478	28268
806.62	28428
806.762	28466
806.904	28641
807.046	28961
807.188	28717
807.33	28736
807.472	28649
807.614	28774
807.756	28790
807.898	28664
808.04	28611
808.182	28470
808.324	28649
808.465	28710
808.607	28877
808.749	29067
808.891	29029
809.033	29322
809.174	29052
809.316	29018
809.458	28995
809.6	28976
809.741	28995
809.883	29159
810.025	29273
810.166	29402
810.308	29261
810.45	29322
810.591	29189
810.733	28991
810.875	29083
811.016	28927
811.158	28984
811.299	29064
811.441	29140
811.582	29197
811.724	29079
811.865	28991
812.007	29121
812.148	29010
812.29	29109
812.431	29143
812.573	29395
812.714	29433
812.855	29577
812.997	29627
813.138	29676
813.279	29676
813.421	29573
813.562	29554
813.703	29421
813.845	29311
813.986	29102
814.127	28793
814.268	28710
814.41	28812
814.551	28710
814.692	28744
814.833	28679
814.974	28713
815.115	28854
815.256	28702
815.397	28675
815.539	28565
815.68	28455
815.821	28565
815.962	28569
816.103	28508
816.244	28443
816.385	28394
816.526	28447
816.666	28230
816.807	28032
816.948	28204
817.089	28158
817.23	28109
817.371	27964
817.512	28082
817.653	28097
817.793	27956
817.934	28048
818.075	28040
818.216	28051
818.356	28131
818.497	27918
818.638	27778
818.778	27854
818.919	27903
819.06	27953
819.2	28120
819.341	28112
819.481	27972
819.622	28295
819.762	28394
819.903	28265
820.043	28272
820.184	28238
820.324	28268
820.465	28265
820.605	28299
820.746	28192
820.886	28124
821.026	28158
821.167	28147
821.307	28173
821.447	28025
821.588	28051
821.728	27804
821.868	27648
822.008	27572
822.149	27439
822.289	27507
822.429	27408
822.569	27184
822.709	27233
822.849	27157
822.99	27131
823.13	26929
823.27	26975
823.41	26948
823.55	26750
823.69	26891
823.83	26788
823.97	26918
824.11	26777
824.25	26705
824.389	26758
824.529	26682
824.669	26819
824.809	26849
824.949	26712
825.089	26838
825.228	26750
825.368	26667
825.508	26518
825.648	26613
825.787	26663
825.927	26575
826.067	26568
826.206	26560
826.346	26556
826.485	26640
826.625	26750
826.765	26613
826.904	26583
827.044	26442
827.183	26332
827.323	26271
827.462	26343
827.601	26385
827.741	26199
827.88	26412
828.02	26191
828.159	26229
828.298	26282
828.437	26320
828.577	26305
828.716	26381
828.855	26134
828.994	26027
829.134	26005
829.273	26092
829.412	25883
829.551	25940
829.69	26008
829.829	26180
829.968	25947
830.107	26138
830.246	25974
830.385	25986
830.524	25898
830.663	25879
830.802	25723
830.941	25506
831.08	25537
831.219	25700
831.357	25643
831.496	25856
831.635	25696
831.774	25597
831.913	25468
832.051	25441
832.19	25343
832.329	25476
832.467	25365
832.606	25114
832.744	25156
832.883	25236
833.022	25289
833.16	25282
833.299	25308
833.437	25464
833.576	25335
833.714	25403
833.852	25392
833.991	25403
834.129	25324
834.267	25350
834.406	25266
834.544	25441
834.682	25247
834.821	25373
834.959	25419
835.097	25278
835.235	25354
835.373	25308
835.511	25377
835.65	25122
835.788	25251
835.926	25069
836.064	24943
836.202	25061
836.34	25171
836.478	25240
836.615	25091
836.753	25152
836.891	25270
837.029	25297
837.167	25099
837.305	24992
837.443	24901
837.58	24951
837.718	25057
837.856	24962
837.993	24924
838.131	25019
838.269	24791
838.406	24970
838.544	24852
838.681	24707
838.819	24498
838.956	24414
839.094	24384
839.231	24509
839.369	24475
839.506	24817
839.643	24738
839.781	24498
839.918	24448
840.055	24490
840.193	24403
840.33	24452
840.467	24369
840.604	24270
840.742	24505
840.879	24292
841.016	24292
841.153	24140
841.29	24498
841.427	24380
841.564	24338
841.701	24338
841.838	24311
841.975	24247
842.112	24380
842.249	24182
842.385	23946
842.522	24319
842.659	24281
842.796	24083
842.933	24186
843.069	24007
843.206	24018
843.343	24155
843.479	24144
843.616	24159
843.752	23855
843.889	23855
844.025	23923
844.162	23836
844.298	23958
844.435	23988
844.571	23813
844.708	23931
844.844	24034
844.98	24076
845.117	23874
845.253	23760
845.389	23722
845.525	23737
845.661	23821
845.798	23649
845.934	23604
846.07	23547
846.206	23657
846.342	23783
846.478	23573
846.614	23490
846.75	23326
846.886	23402
847.022	23471
847.158	23353
847.294	23246
847.429	23299
847.565	23296
847.701	23505
847.837	23037
847.972	22930
848.108	23090
848.244	23022
848.379	22965
848.515	22869
848.65	22999
848.786	22957
848.921	22976
849.057	22984
849.192	22946
849.328	22938
849.463	22965
849.598	22881
849.734	22896
849.869	22744
850.004	22683
850.14	22744
850.275	22733
850.41	22573
850.545	22668
850.68	22630
850.815	22599
850.95	22592
851.085	22942
851.22	22877
851.355	22641
851.49	22573
851.625	22729
851.76	22702
851.895	22611
852.03	22470
852.165	22774
852.299	22637
852.434	22786
852.569	22664
852.703	22611
852.838	22793
852.973	22862
853.107	22797
853.242	22550
853.376	22489
853.511	22371
853.645	22478
853.78	22622
853.914	22603
854.048	22386
854.183	22443
854.317	22546
854.451	22733
854.585	22519
854.72	22451
854.854	22542
854.988	22436
855.122	22474
855.256	22329
855.39	22432
855.524	22580
855.658	22546
855.792	22550
855.926	22459
856.06	22493
856.194	22493
856.327	22363
856.461	22394
856.595	22580
856.729	22428
856.862	22611
856.996	22512
857.13	22596
857.263	22516
857.397	22580
857.53	22512
857.664	22481
857.797	22607
857.931	22554
858.064	22588
858.197	22679
858.331	22405
858.464	22561
858.597	22428
858.731	22356
858.864	22424
858.997	22474
859.13	22428
859.263	22489
859.396	22500
859.529	22451
859.662	22436
859.795	22485
859.928	22371
860.061	22656
860.194	22599
860.327	22512
860.46	22527
860.592	22729
860.725	22561
860.858	22599
860.99	22596
861.123	22527
861.256	22459
861.388	22535
861.521	23273
861.653	22341
861.786	22280
861.918	22318
862.05	22303
862.183	22447
862.315	22470
862.447	22542
862.58	22375
862.712	22200
862.844	22147
862.976	22299
863.108	22238
863.24	22542
863.372	22139
863.504	22154
863.636	22192
863.768	22375
863.9	22139
864.032	22070
864.164	22093
864.296	22116
864.428	22257
864.559	22192
864.691	22306
864.823	22200
864.954	22204
865.086	22131
865.217	22078
865.349	22048
865.48	22124
865.612	22021
865.743	22272
865.875	22185
866.006	22059
866.137	22173
866.269	22048
866.4	22109
866.531	22074
866.662	21949
866.793	21949
866.924	21949
867.055	22124
867.186	22067
867.317	22036
867.448	22040
867.579	21937
867.71	21876
867.841	21899
867.972	22105
868.103	21968
868.233	22135
868.364	22032
868.495	22070
868.625	22200
868.756	22466
868.886	22147
869.017	22238
869.147	22268
869.278	22382
869.408	22287
869.539	22257
869.669	22337
869.799	22234
869.929	22367
870.06	22341
870.19	22702
870.32	22527
870.45	22569
870.58	22630
870.71	22759
870.84	22683
870.97	22725
871.1	22637
871.23	22816
871.36	22957
871.489	22683
871.619	22713
871.749	22877
871.879	22900
872.008	22965
872.138	22782
872.267	22869
872.397	22660
872.526	22664
872.656	22668
872.785	22607
872.915	22843
873.044	22938
873.173	22809
873.303	22965
873.432	22927
873.561	22942
873.69	22927
873.819	22809
873.948	23003
874.077	22755
874.206	22755
874.335	22854
874.464	22938
874.593	22984
874.722	23086
874.851	23162
874.979	23067
875.108	23124
875.237	23041
875.365	22938
875.494	23022
875.623	23060
875.751	23136
875.88	23185
876.008	23246
876.136	23204
876.265	23429
876.393	23463
876.521	23539
876.65	23570
876.778	23585
876.906	23322
877.034	23326
877.162	23520
877.29	23208
877.418	23452
877.546	23379
877.674	23330
877.802	23410
877.93	23387
878.058	23402
878.185	23398
878.313	23395
878.441	23379
878.568	23231
878.696	23421
878.824	23421
878.951	23452
879.079	23547
879.206	23783
879.333	23573
879.461	23455
879.588	23482
879.715	23558
879.842	23722
879.97	23482
880.097	23220
880.224	23208
880.351	23303
880.478	23284
880.605	23147
880.732	23181
880.859	23474
880.986	23277
881.112	23181
881.239	23121
881.366	22953
881.493	22923
881.619	22698
881.746	22831
881.872	22805
881.999	22793
882.125	22679
882.252	22816
882.378	22847
882.505	22889
882.631	22752
882.757	22519
882.883	22607
883.01	22466
883.136	22405
883.262	22291
883.388	22303
883.514	22375
883.64	22424
883.766	22413
883.892	22181
884.018	22200
884.143	22272
884.269	22615
884.395	22150
884.52	22124
884.646	22139
884.772	22021
884.897	21911
885.023	22154
885.148	22078
885.274	22128
885.399	22150
885.524	22063
885.65	22135
885.775	22078
885.9	22124
886.025	22177
886.15	22131
886.275	22063
886.4	21884
886.525	22109
886.65	22025
886.775	21960
886.9	22295
887.025	22386
887.149	22112
887.274	21979
887.399	21869
887.523	21835
887.648	21895
887.773	21804
887.897	21945
888.021	21884
888.146	21892
888.27	21892
888.395	21884
888.519	21915
888.643	21789
888.767	21892
888.891	21728
889.015	21713
889.139	21762
889.263	21500
889.387	21762
889.511	21781
889.635	21614
889.759	21595
889.883	21618
890.006	21549
890.13	21747
890.254	21576
890.377	21568
890.501	21389
890.624	21424
890.748	21439
890.871	21252
890.995	21131
891.118	21085
891.241	21157
891.364	21161
891.488	21192
891.611	21260
891.734	21272
891.857	21184
891.98	21150
892.103	21306
892.226	21112
892.349	21047
892.471	20921
892.594	21112
892.717	21024
892.839	21089
892.962	21036
893.085	21203
893.207	21070
893.33	20948
893.452	21032
893.575	20960
893.697	21066
893.819	21135
893.941	21241
894.064	21268
894.186	21100
894.308	20914
894.43	21165
894.552	21222
894.674	21222
894.796	20960
894.918	21036
895.04	21017
895.161	21096
895.283	21104
895.405	20998
895.526	20998
895.648	21188
895.769	20998
895.891	21055
896.012	21005
896.134	21135
896.255	21085
896.376	21039
896.498	20918
896.619	21020
896.74	20971
896.861	21161
896.982	21462
897.103	21454
897.224	21184
897.345	21249
897.466	21138
897.587	21313
897.708	21386
897.828	21260
897.949	21256
898.07	21001
898.19	21230
898.311	21203
898.431	21116
898.552	21249
898.672	21332
898.792	21420
898.913	21275
899.033	21146
899.153	20948
899.273	20868
899.393	20990
899.513	20956
899.633	20971
899.753	21036
899.873	20868
899.993	21058
900.113	21039
900.232	21017
900.352	20781
900.472	20705
900.591	20731
900.711	20819
900.83	20708
900.95	20842
901.069	20823
901.189	20575
901.308	20317
901.427	20366
901.546	20332
901.665	20393
901.784	20469
901.904	20210
902.023	20077
902.141	19791
902.26	19791
902.379	20012
902.498	19951
902.617	19795
902.735	19780
902.854	19784
902.973	19689
903.091	19518
903.21	19438
903.328	19571
903.446	19388
903.565	19168
903.683	19236
903.801	19103
903.919	19244
904.038	19156
904.156	18966
904.274	19190
904.392	19091
904.51	19042
904.627	19034
904.745	19103
904.863	19141
904.981	18863
905.098	18798
905.216	18665
905.334	18886
905.451	18757
905.569	18677
905.686	18722
905.803	18601
905.921	18536
906.038	18616
906.155	18422
906.272	18422
906.389	18456
906.506	18209
906.623	18281
906.74	18106
906.857	18117
906.974	18159
907.091	18239
907.208	18384
907.324	18201
907.441	18060
907.557	17908
907.674	18015
907.79	17805
907.907	17958
908.023	17885
908.139	17931
908.256	17939
908.372	17870
908.488	17942
908.604	17596
908.72	17665
908.836	17551
908.952	17638
909.068	17672
909.184	17805
909.3	17668
909.415	17611
909.531	17589
909.647	17448
909.762	17433
909.878	17372
909.993	17368
910.108	17292
910.224	17311
910.339	17341
910.454	17216
910.57	17094
910.685	17056
910.8	17341
910.915	17181
911.03	17140
911.145	16915
911.259	16885
911.374	17010
911.489	16854
911.604	16755
911.718	16611
911.833	16733
911.947	16717
912.062	16603
912.176	16805
912.291	16634
912.405	16691
912.519	16908
912.633	16843
912.748	16778
912.862	16634
912.976	16382
913.09	16367
913.204	16382
913.318	16382
913.431	16599
913.545	16607
913.659	16668
913.772	16318
913.886	16322
914	16204
914.113	16280
914.226	16352
914.34	16234
914.453	16128
914.566	16284
914.68	16071
914.793	16086
914.906	15975
915.019	15934
915.132	15865
915.245	15835
915.358	15949
915.47	15854
915.583	15819
915.696	15934
915.809	15956
915.921	15880
916.034	15857
916.146	15743
916.259	15751
916.371	15812
916.483	15793
916.595	15675
916.708	15648
916.82	15724
916.932	15568
917.044	15671
917.156	15519
917.268	15412
917.38	15580
917.491	15477
917.603	15397
917.715	15492
917.826	15545
917.938	15408
918.049	15336
918.161	15454
918.272	15568
918.384	15526
918.495	15447
918.606	15233
918.717	15203
918.828	15241
918.939	15233
919.05	15108
919.161	15283
919.272	14963
919.383	15081
919.494	15233
919.604	15435
919.715	15195
919.826	15085
919.936	15192
920.047	15214
920.157	15203
920.267	15306
920.378	15176
920.488	15138
920.598	15363
920.708	15458
920.818	15249
920.928	15260
921.038	15492
921.148	15405
921.258	15039
921.368	15013
921.477	14963
921.587	14845
921.697	14739
921.806	14823
921.916	14807
922.025	14610
922.134	14495
922.244	14393
922.353	14613
922.462	14400
922.571	14446
922.68	14229
922.789	14149
922.898	14176
923.007	14142
923.116	14187
923.224	14058
923.333	14123
923.442	14062
923.55	14012
923.659	14024
923.767	14058
923.876	13871
923.984	13993
924.092	13875
924.201	13784
924.309	13818
924.417	13871
924.525	13814
924.633	13795
924.741	14708
924.849	13620
924.956	13738
925.064	13537
925.172	13506
925.279	13506
925.387	13559
925.494	13559
925.602	13681
925.709	13499
925.816	13476
925.924	13472
926.031	13533
926.138	13472
926.245	13487
926.352	13324
926.459	13582
926.566	13582
926.673	13533
926.779	13244
926.886	13183
926.993	13133
927.099	13149
927.206	13061
927.312	13076
927.419	13137
927.525	13057
927.631	13114
927.737	12977
927.843	12882
927.95	12833
928.056	12886
928.162	12993
928.267	12947
928.373	13552
928.479	12932
928.585	12741
928.69	12840
928.796	12848
928.901	12745
929.007	12589
929.112	12730
929.218	12696
929.323	12623
929.428	12665
929.533	12768
929.638	12509
929.743	12540
929.848	12684
929.953	12604
930.058	12437
930.163	12228
930.267	12376
930.372	12380
930.477	12194
930.581	12506
930.685	12266
930.79	12194
930.894	12178
930.998	12079
931.103	12258
931.207	11889
931.311	11882
931.415	11790
931.519	11615
931.623	11467
