Data from test_V78500241_2415.txt Node
Date: Fri Mar 25 15:58:31 CST 2022
User: usil
Spectrometer: V785-0024
Trigger mode: 0
Integration Time (sec): 4.000000E-1
Scans to average: 1
Nonlinearity correction enabled: false
Boxcar width: 0
Storing dark spectrum: false
XAxis mode: Wavelengths
Number of Pixels in Spectrum: 1024
>>>>>Begin Spectral Data<<<<<
801.071	28622
801.214	28622
801.356	28443
801.499	28177
801.641	28284
801.783	28147
801.926	28173
802.068	28173
802.211	28116
802.353	28029
802.496	27937
802.638	27914
802.78	27854
802.923	27785
803.065	27804
803.208	27903
803.35	27979
803.492	27991
803.635	28169
803.777	27979
803.919	28177
804.061	28348
804.204	28242
804.346	28086
804.488	28082
804.63	28063
804.773	28059
804.915	28238
805.057	28234
805.199	28181
805.341	28280
805.483	28401
805.626	28306
805.768	28219
805.91	28276
806.052	28234
806.194	28215
806.336	28440
806.478	28299
806.62	28432
806.762	28489
806.904	28672
807.046	28820
807.188	28797
807.33	28733
807.472	28774
807.614	28816
807.756	28717
807.898	28565
808.04	28398
808.182	28592
808.324	28641
808.465	28755
808.607	28873
808.749	28946
808.891	29075
809.033	29166
809.174	28995
809.316	29025
809.458	28934
809.6	28847
809.741	29041
809.883	29204
810.025	29239
810.166	29239
810.308	29318
810.45	29356
810.591	29159
810.733	28942
810.875	29029
811.016	28885
811.158	28873
811.299	29178
811.441	29166
811.582	29079
811.724	28999
811.865	28961
812.007	29006
812.148	29132
812.29	29067
812.431	29136
812.573	29334
812.714	29436
812.855	29433
812.997	29710
813.138	29748
813.279	29710
813.421	29493
813.562	29345
813.703	29231
813.845	29250
813.986	29022
814.127	28866
814.268	28713
814.41	28748
814.551	28630
814.692	28828
814.833	28580
814.974	28626
815.115	28675
815.256	28565
815.397	28618
815.539	28493
815.68	28615
815.821	28504
815.962	28580
816.103	28462
816.244	28299
816.385	28337
816.526	28120
816.666	28177
816.807	27949
816.948	27953
817.089	28135
817.23	27991
817.371	27991
817.512	28074
817.653	28086
817.793	27991
817.934	27914
818.075	28055
818.216	27873
818.356	27956
818.497	27888
818.638	27717
818.778	27736
818.919	27842
819.06	27861
819.2	27888
819.341	27991
819.481	27945
819.622	28086
819.762	28337
819.903	28360
820.043	28162
820.184	27998
820.324	28253
820.465	28139
820.605	28135
820.746	28219
820.886	28158
821.026	28143
821.167	28078
821.307	28204
821.447	28090
821.588	27956
821.728	27804
821.868	27709
822.008	27557
822.149	27405
822.289	27542
822.429	27256
822.569	27081
822.709	27268
822.849	27085
822.99	27043
823.13	26982
823.27	26910
823.41	26899
823.55	26625
823.69	26788
823.83	26781
823.97	26743
824.11	26552
824.25	26708
824.389	26678
824.529	26750
824.669	26636
824.809	26731
824.949	26670
825.089	26819
825.228	26792
825.368	26499
825.508	26492
825.648	26579
825.787	26530
825.927	26705
826.067	26480
826.206	26450
826.346	26629
826.485	26575
826.625	26545
826.765	26602
826.904	26560
827.044	26248
827.183	26271
827.323	26202
827.462	26271
827.601	26362
827.741	26305
827.88	26271
828.02	26138
828.159	26298
828.298	26210
828.437	26225
828.577	26130
828.716	26343
828.855	26138
828.994	26039
829.134	25890
829.273	26020
829.412	25860
829.551	25700
829.69	25753
829.829	26008
829.968	25959
830.107	26001
830.246	25837
830.385	25902
830.524	25852
830.663	25799
830.802	25715
830.941	25552
831.08	25666
831.219	25556
831.357	25525
831.496	25784
831.635	25434
831.774	25426
831.913	25457
832.051	25259
832.19	25194
832.329	25445
832.467	25259
832.606	25137
832.744	25198
832.883	25179
833.022	25232
833.16	25152
833.299	25228
833.437	25118
833.576	25320
833.714	25198
833.852	25263
833.991	25209
834.129	25282
834.267	25346
834.406	25247
834.544	25198
834.682	25396
834.821	25247
834.959	25468
835.097	25122
835.235	25316
835.373	25247
835.511	25255
835.65	25137
835.788	25152
835.926	24989
836.064	24901
836.202	24852
836.34	25209
836.478	25228
836.615	25038
836.753	25187
836.891	25164
837.029	25152
837.167	25137
837.305	24954
837.443	25046
837.58	24795
837.718	24901
837.856	24977
837.993	24840
838.131	24985
838.269	24840
838.406	24924
838.544	24882
838.681	24490
838.819	24589
838.956	24311
839.094	24429
839.231	24391
839.369	24517
839.506	24886
839.643	24684
839.781	24209
839.918	24369
840.055	24437
840.193	24308
840.33	24319
840.467	24296
840.604	24289
840.742	24528
840.879	24117
841.016	24232
841.153	24243
841.29	24422
841.427	24308
841.564	24213
841.701	24232
841.838	24281
841.975	24152
842.112	24262
842.249	24030
842.385	24098
842.522	24270
842.659	24224
842.796	24079
842.933	24045
843.069	24007
843.206	23832
843.343	24114
843.479	24068
843.616	24133
843.752	23809
843.889	23965
844.025	23946
844.162	23832
844.298	23855
844.435	23927
844.571	23851
844.708	23821
844.844	23961
844.98	23893
845.117	23958
845.253	23767
845.389	23786
845.525	23760
845.661	23615
845.798	23478
845.934	23608
846.07	23543
846.206	23577
846.342	23649
846.478	23642
846.614	23398
846.75	23216
846.886	23185
847.022	23258
847.158	23330
847.294	23159
847.429	23349
847.565	23288
847.701	23410
847.837	23037
847.972	22965
848.108	23128
848.244	23140
848.379	23041
848.515	22839
848.65	23018
848.786	22862
848.921	22999
849.057	22881
849.192	22938
849.328	22892
849.463	22866
849.598	22786
849.734	22767
849.869	22763
850.004	22634
850.14	22557
850.275	22599
850.41	22527
850.545	22588
850.68	22508
850.815	22649
850.95	22622
851.085	22786
851.22	22752
851.355	22755
851.49	22607
851.625	22580
851.76	22599
851.895	22573
852.03	22580
852.165	22599
852.299	22763
852.434	22618
852.569	22679
852.703	22637
852.838	22626
852.973	22687
853.107	22774
853.242	22542
853.376	22466
853.511	22291
853.645	22436
853.78	22436
853.914	22455
854.048	22478
854.183	22363
854.317	22535
854.451	22649
854.585	22417
854.72	22523
854.854	22645
854.988	22352
855.122	22341
855.256	22424
855.39	22382
855.524	22596
855.658	22489
855.792	22333
855.926	22443
856.06	22538
856.194	22481
856.327	22367
856.461	22375
856.595	22436
856.729	22341
856.862	22481
856.996	22466
857.13	22607
857.263	22641
857.397	22542
857.53	22402
857.664	22504
857.797	22504
857.931	22573
858.064	22504
858.197	22622
858.331	22405
858.464	22337
858.597	22421
858.731	22421
858.864	22493
858.997	22382
859.13	22432
859.263	22382
859.396	22440
859.529	22382
859.662	22337
859.795	22379
859.928	22535
860.061	22637
860.194	22588
860.327	22542
860.46	22413
860.592	22485
860.725	22698
860.858	22577
860.99	22405
861.123	22470
861.256	22447
861.388	22500
861.521	23010
861.653	22249
861.786	22139
861.918	22356
862.05	22451
862.183	22363
862.315	22322
862.447	22428
862.58	22382
862.712	22124
862.844	22093
862.976	22249
863.108	22234
863.24	22641
863.372	22082
863.504	22131
863.636	22124
863.768	22246
863.9	22131
864.032	22101
864.164	22310
864.296	22348
864.428	22249
864.559	22234
864.691	22192
864.823	22105
864.954	22070
865.086	22219
865.217	22128
865.349	21968
865.48	21998
865.612	22169
865.743	22109
865.875	22017
866.006	22090
866.137	22101
866.269	22090
866.4	21930
866.531	21941
866.662	21937
866.793	21846
866.924	21949
867.055	21930
867.186	22067
867.317	22010
867.448	21918
867.579	22002
867.71	21911
867.841	21778
867.972	21968
868.103	21941
868.233	22006
868.364	22002
868.495	22128
868.625	22230
868.756	22173
868.886	22063
869.017	22082
869.147	22333
869.278	22249
869.408	22230
869.539	22230
869.669	22162
869.799	22261
869.929	22177
870.06	22322
870.19	22512
870.32	22443
870.45	22603
870.58	22546
870.71	22584
870.84	22702
870.97	22542
871.1	22611
871.23	22828
871.36	22782
871.489	22721
871.619	22820
871.749	22805
871.879	22778
872.008	22824
872.138	22809
872.267	22911
872.397	22801
872.526	22736
872.656	22687
872.785	22645
872.915	22820
873.044	22767
873.173	22778
873.303	22892
873.432	22786
873.561	22877
873.69	22835
873.819	22843
873.948	22965
874.077	22748
874.206	22812
874.335	22733
874.464	22934
874.593	23124
874.722	22889
874.851	23216
874.979	23048
875.108	23181
875.237	22972
875.365	22965
875.494	23109
875.623	22991
875.751	22987
875.88	23014
876.008	23189
876.136	23147
876.265	23497
876.393	23531
876.521	23474
876.65	23474
876.778	23440
876.906	23379
877.034	23398
877.162	23459
877.29	23353
877.418	23284
877.546	23414
877.674	23467
877.802	23345
877.93	23395
878.058	23337
878.185	23307
878.313	23444
878.441	23345
878.568	23311
878.696	23372
878.824	23410
878.951	23630
879.079	23417
879.206	23646
879.333	23516
879.461	23486
879.588	23608
879.715	23653
879.842	23627
879.97	23421
880.097	23220
880.224	23280
880.351	23162
880.478	23113
880.605	23109
880.732	23185
880.859	23463
880.986	23174
881.112	23204
881.239	23090
881.366	22866
881.493	22740
881.619	22759
881.746	22691
881.872	22702
881.999	22752
882.125	22774
882.252	22736
882.378	22527
882.505	22729
882.631	22603
882.757	22379
882.883	22546
883.01	22402
883.136	22455
883.262	22341
883.388	22322
883.514	22504
883.64	22382
883.766	22291
883.892	22196
884.018	22371
884.143	22325
884.269	22318
884.395	22116
884.52	22192
884.646	22051
884.772	22040
884.897	21983
885.023	22112
885.148	22120
885.274	22211
885.399	22185
885.524	22074
885.65	22063
885.775	22093
885.9	22036
886.025	22112
886.15	22051
886.275	21983
886.4	22025
886.525	22150
886.65	22063
886.775	21907
886.9	22261
887.025	22261
887.149	21968
887.274	21926
887.399	21774
887.523	21945
887.648	21819
887.773	21816
887.897	21918
888.021	21778
888.146	21778
888.27	21899
888.395	21918
888.519	21926
888.643	21857
888.767	21884
888.891	21800
889.015	21690
889.139	21739
889.263	21724
889.387	21667
889.511	21956
889.635	21682
889.759	21667
889.883	21553
890.006	21549
890.13	21743
890.254	21549
890.377	21473
890.501	21340
890.624	21378
890.748	21397
890.871	21249
890.995	21104
891.118	21074
891.241	21146
891.364	21264
891.488	21351
891.611	21157
891.734	21169
891.857	21241
891.98	21233
892.103	21260
892.226	21306
892.349	21138
892.471	21009
892.594	21074
892.717	21150
892.839	21180
892.962	21096
893.085	21157
893.207	20971
893.33	20971
893.452	21009
893.575	21233
893.697	21119
893.819	21245
893.941	21226
894.064	21127
894.186	21001
894.308	21001
894.43	21138
894.552	21226
894.674	21230
894.796	20918
894.918	21043
895.04	21020
895.161	21135
895.283	21116
895.405	21017
895.526	21032
895.648	21108
895.769	21150
895.891	21089
896.012	21252
896.134	21131
896.255	21032
896.376	20952
896.498	21074
896.619	21100
896.74	20986
896.861	21096
896.982	21412
897.103	21564
897.224	21264
897.345	21195
897.466	21184
897.587	21275
897.708	21405
897.828	21367
897.949	21329
898.07	21123
898.19	21237
898.311	21287
898.431	21119
898.552	21283
898.672	21416
898.792	21397
898.913	21199
899.033	21165
899.153	21116
899.273	20891
899.393	20941
899.513	20994
899.633	20963
899.753	20960
899.873	20834
899.993	20944
900.113	20956
900.232	20944
900.352	20941
900.472	20834
900.591	20716
900.711	20815
900.83	20686
900.95	20872
901.069	20883
901.189	20598
901.308	20450
901.427	20347
901.546	20404
901.665	20412
901.784	20465
901.904	20107
902.023	20115
902.141	19989
902.26	19814
902.379	20005
902.498	19868
902.617	19860
902.735	19868
902.854	19715
902.973	19761
903.091	19499
903.21	19434
903.328	19495
903.446	19548
903.565	19407
903.683	19225
903.801	19244
903.919	19266
904.038	19198
904.156	19027
904.274	19057
904.392	19015
904.51	19008
904.627	19061
904.745	19072
904.863	19084
904.981	18817
905.098	18776
905.216	18650
905.334	18798
905.451	18703
905.569	18707
905.686	18764
905.803	18627
905.921	18544
906.038	18635
906.155	18528
906.272	18418
906.389	18445
906.506	18182
906.623	18201
906.74	18216
906.857	18182
906.974	18159
907.091	18315
907.208	18323
907.324	18262
907.441	18091
907.557	18076
907.674	17961
907.79	17870
907.907	17889
908.023	17965
908.139	17942
908.256	17920
908.372	17836
908.488	17843
908.604	17745
908.72	17573
908.836	17665
908.952	17634
909.068	17737
909.184	17741
909.3	17684
909.415	17653
909.531	17642
909.647	17467
909.762	17284
909.878	17417
909.993	17349
910.108	17372
910.224	17364
910.339	17326
910.454	17254
910.57	17185
910.685	17159
910.8	17417
910.915	17299
911.03	17124
911.145	17003
911.259	16919
911.374	16908
911.489	16816
911.604	16885
911.718	16668
911.833	16683
911.947	16421
912.062	16546
912.176	16713
912.291	16744
912.405	16752
912.519	16820
912.633	16854
912.748	16759
912.862	16744
912.976	16599
913.09	16390
913.204	16417
913.318	16466
913.431	16656
913.545	16531
913.659	16535
913.772	16481
913.886	16329
914	16287
914.113	16344
914.226	16413
914.34	16333
914.453	16082
914.566	16314
914.68	16162
914.793	16185
914.906	15854
915.019	15823
915.132	15835
915.245	15797
915.358	15895
915.47	15812
915.583	15823
915.696	15956
915.809	15915
915.921	15907
916.034	15854
916.146	15785
916.259	15797
916.371	15865
916.483	15846
916.595	15648
916.708	15682
916.82	15713
916.932	15610
917.044	15595
917.156	15625
917.268	15561
917.38	15526
917.491	15485
917.603	15435
917.715	15603
917.826	15675
917.938	15447
918.049	15332
918.161	15378
918.272	15485
918.384	15511
918.495	15412
918.606	15264
918.717	15226
918.828	15222
918.939	15176
919.05	15074
919.161	15230
919.272	15017
919.383	15142
919.494	15332
919.604	15393
919.715	15161
919.826	15192
919.936	15116
920.047	15275
920.157	15230
920.267	15340
920.378	15279
920.488	15157
920.598	15298
920.708	15408
920.818	15291
920.928	15386
921.038	15500
921.148	15340
921.258	15058
921.368	14990
921.477	14800
921.587	14925
921.697	14815
921.806	14967
921.916	14777
922.025	14541
922.134	14530
922.244	14396
922.353	14507
922.462	14389
922.571	14419
922.68	14153
922.789	14092
922.898	14210
923.007	14084
923.116	14218
923.224	14115
923.333	14180
923.442	14111
923.55	14012
923.659	14081
923.767	14088
923.876	13822
923.984	13947
924.092	13871
924.201	13936
924.309	13932
924.417	13906
924.525	13814
924.633	13738
924.741	14670
924.849	13685
924.956	13738
925.064	13518
925.172	13632
925.279	13525
925.387	13548
925.494	13521
925.602	13700
925.709	13677
925.816	13445
925.924	13552
926.031	13586
926.138	13499
926.245	13438
926.352	13384
926.459	13586
926.566	13521
926.673	13415
926.779	13301
926.886	13285
926.993	13179
927.099	13088
927.206	13107
927.312	13076
927.419	13095
927.525	13080
927.631	13156
927.737	13038
927.843	12886
927.95	12894
928.056	12928
928.162	12875
928.267	12924
928.373	13636
928.479	12947
928.585	12715
928.69	12878
928.796	12951
928.901	12749
929.007	12585
929.112	12734
929.218	12749
929.323	12578
929.428	12654
929.533	12730
929.638	12517
929.743	12540
929.848	12536
929.953	12555
930.058	12384
930.163	12273
930.267	12372
930.372	12388
930.477	12270
930.581	12475
930.685	12388
930.79	12201
930.894	12178
930.998	12171
931.103	12224
931.207	11912
931.311	11889
931.415	11733
931.519	11528
931.623	11482
