Data from test_V78500241_2441.txt Node
Date: Fri Mar 25 15:58:42 CST 2022
User: usil
Spectrometer: V785-0024
Trigger mode: 0
Integration Time (sec): 4.000000E-1
Scans to average: 1
Nonlinearity correction enabled: false
Boxcar width: 0
Storing dark spectrum: false
XAxis mode: Wavelengths
Number of Pixels in Spectrum: 1024
>>>>>Begin Spectral Data<<<<<
801.071	28854
801.214	28622
801.356	28466
801.499	28371
801.641	28447
801.783	28265
801.926	28303
802.068	28432
802.211	28147
802.353	28367
802.496	28158
802.638	28093
802.78	28010
802.923	28032
803.065	27918
803.208	28036
803.35	27945
803.492	28173
803.635	28306
803.777	28128
803.919	28421
804.061	28607
804.204	28341
804.346	28154
804.488	28287
804.63	28291
804.773	28147
804.915	28329
805.057	28470
805.199	28169
805.341	28375
805.483	28432
805.626	28462
805.768	28314
805.91	28348
806.052	28489
806.194	28356
806.336	28596
806.478	28409
806.62	28405
806.762	28519
806.904	28538
807.046	29044
807.188	28881
807.33	28885
807.472	29094
807.614	28748
807.756	28721
807.898	28744
808.04	28687
808.182	28755
808.324	28843
808.465	28790
808.607	29113
808.749	29018
808.891	29216
809.033	29200
809.174	29113
809.316	28877
809.458	29105
809.6	29113
809.741	29227
809.883	29261
810.025	29356
810.166	29486
810.308	29417
810.45	29402
810.591	29273
810.733	29185
810.875	28987
811.016	28938
811.158	29044
811.299	29235
811.441	29261
811.582	29307
811.724	29155
811.865	29102
812.007	29303
812.148	29181
812.29	29166
812.431	29227
812.573	29391
812.714	29528
812.855	29642
812.997	29722
813.138	29813
813.279	29707
813.421	29653
813.562	29630
813.703	29463
813.845	29490
813.986	29121
814.127	28984
814.268	28976
814.41	28911
814.551	28805
814.692	29029
814.833	28908
814.974	28801
815.115	28949
815.256	28752
815.397	28618
815.539	28733
815.68	28675
815.821	28474
815.962	28565
816.103	28664
816.244	28508
816.385	28440
816.526	28310
816.666	28082
816.807	28086
816.948	28135
817.089	28329
817.23	28196
817.371	28207
817.512	28162
817.653	28059
817.793	28207
817.934	28090
818.075	28200
818.216	28272
818.356	27926
818.497	28013
818.638	27800
818.778	27819
818.919	27895
819.06	27949
819.2	27994
819.341	28082
819.481	28226
819.622	28367
819.762	28512
819.903	28390
820.043	28497
820.184	28363
820.324	28318
820.465	28398
820.605	28295
820.746	28226
820.886	28272
821.026	28234
821.167	28306
821.307	28261
821.447	28169
821.588	28070
821.728	27922
821.868	27911
822.008	27606
822.149	27583
822.289	27591
822.429	27477
822.569	27279
822.709	27427
822.849	27245
822.99	27150
823.13	27104
823.27	27218
823.41	26982
823.55	26830
823.69	26960
823.83	27009
823.97	26838
824.11	26727
824.25	26731
824.389	26807
824.529	26811
824.669	26724
824.809	26902
824.949	26944
825.089	26940
825.228	26872
825.368	26621
825.508	26602
825.648	26655
825.787	26724
825.927	26762
826.067	26571
826.206	26651
826.346	26708
826.485	26826
826.625	26678
826.765	26769
826.904	26727
827.044	26571
827.183	26594
827.323	26419
827.462	26526
827.601	26309
827.741	26560
827.88	26423
828.02	26294
828.159	26305
828.298	26419
828.437	26514
828.577	26423
828.716	26431
828.855	26263
828.994	26240
829.134	26145
829.273	26145
829.412	26130
829.551	26005
829.69	26081
829.829	26153
829.968	26180
830.107	26054
830.246	26111
830.385	25833
830.524	25974
830.663	25902
830.802	25814
830.941	25890
831.08	25647
831.219	25715
831.357	25795
831.496	26043
831.635	25780
831.774	25746
831.913	25616
832.051	25460
832.19	25430
832.329	25476
832.467	25464
832.606	25358
832.744	25304
832.883	25403
833.022	25285
833.16	25312
833.299	25324
833.437	25419
833.576	25339
833.714	25407
833.852	25415
833.991	25320
834.129	25605
834.267	25525
834.406	25449
834.544	25582
834.682	25415
834.821	25445
834.959	25518
835.097	25301
835.235	25487
835.373	25407
835.511	25483
835.65	25381
835.788	25179
835.926	25038
836.064	24966
836.202	25251
836.34	25247
836.478	25304
836.615	25312
836.753	25228
836.891	25289
837.029	25282
837.167	25137
837.305	25065
837.443	25202
837.58	25031
837.718	25050
837.856	25183
837.993	25031
838.131	25168
838.269	24928
838.406	25069
838.544	24943
838.681	24837
838.819	24722
838.956	24658
839.094	24441
839.231	24578
839.369	24711
839.506	24859
839.643	24798
839.781	24566
839.918	24540
840.055	24593
840.193	24513
840.33	24407
840.467	24361
840.604	24471
840.742	24798
840.879	24350
841.016	24445
841.153	24361
841.29	24585
841.427	24407
841.564	24483
841.701	24380
841.838	24357
841.975	24418
842.112	24372
842.249	24270
842.385	24167
842.522	24494
842.659	24281
842.796	24148
842.933	24311
843.069	24171
843.206	24159
843.343	24300
843.479	24190
843.616	24190
843.752	23893
843.889	24060
844.025	24098
844.162	24079
844.298	24068
844.435	24011
844.571	24076
844.708	23904
844.844	24091
844.98	24072
845.117	24026
845.253	23904
845.389	23756
845.525	23851
845.661	23767
845.798	23539
845.934	23703
846.07	23600
846.206	23798
846.342	23813
846.478	23695
846.614	23543
846.75	23341
846.886	23395
847.022	23455
847.158	23440
847.294	23379
847.429	23497
847.565	23341
847.701	23596
847.837	23277
847.972	23109
848.108	23246
848.244	23151
848.379	23083
848.515	23071
848.65	23006
848.786	22908
848.921	23071
849.057	23132
849.192	22999
849.328	23086
849.463	23067
849.598	22824
849.734	22847
849.869	22885
850.004	22831
850.14	22744
850.275	22824
850.41	22664
850.545	22740
850.68	22713
850.815	22786
850.95	22908
851.085	22862
851.22	22938
851.355	22824
851.49	22805
851.625	22869
851.76	22691
851.895	22626
852.03	22687
852.165	22755
852.299	22653
852.434	22873
852.569	22835
852.703	22698
852.838	22725
852.973	22953
853.107	22843
853.242	22809
853.376	22668
853.511	22538
853.645	22675
853.78	22778
853.914	22592
854.048	22584
854.183	22493
854.317	22603
854.451	22805
854.585	22656
854.72	22599
854.854	22679
854.988	22512
855.122	22481
855.256	22459
855.39	22554
855.524	22592
855.658	22664
855.792	22607
855.926	22641
856.06	22645
856.194	22672
856.327	22607
856.461	22398
856.595	22489
856.729	22538
856.862	22577
856.996	22641
857.13	22698
857.263	22622
857.397	22626
857.53	22561
857.664	22759
857.797	22725
857.931	22641
858.064	22584
858.197	22694
858.331	22538
858.464	22478
858.597	22443
858.731	22683
858.864	22519
858.997	22474
859.13	22459
859.263	22493
859.396	22672
859.529	22630
859.662	22303
859.795	22470
859.928	22535
860.061	22850
860.194	22782
860.327	22641
860.46	22618
860.592	22717
860.725	22858
860.858	22721
860.99	22664
861.123	22455
861.256	22519
861.388	22580
861.521	23448
861.653	22402
861.786	22394
861.918	22371
862.05	22493
862.183	22527
862.315	22554
862.447	22519
862.58	22432
862.712	22253
862.844	22299
862.976	22280
863.108	22322
863.24	22611
863.372	22303
863.504	22303
863.636	22249
863.768	22284
863.9	22367
864.032	22223
864.164	22272
864.296	22344
864.428	22402
864.559	22303
864.691	22306
864.823	22276
864.954	22261
865.086	22188
865.217	22188
865.349	22139
865.48	22143
865.612	22185
865.743	22299
865.875	22147
866.006	22192
866.137	22196
866.269	22169
866.4	22268
866.531	21998
866.662	22067
866.793	21991
866.924	22082
867.055	22143
867.186	22109
867.317	22044
867.448	21960
867.579	22128
867.71	22112
867.841	22010
867.972	22131
868.103	22032
868.233	22215
868.364	22002
868.495	22185
868.625	22211
868.756	22287
868.886	22234
869.017	22299
869.147	22314
869.278	22333
869.408	22318
869.539	22306
869.669	22440
869.799	22474
869.929	22432
870.06	22478
870.19	22588
870.32	22554
870.45	22710
870.58	22717
870.71	22862
870.84	22847
870.97	22653
871.1	22626
871.23	22934
871.36	22881
871.489	22744
871.619	22885
871.749	22850
871.879	22953
872.008	22831
872.138	22976
872.267	22892
872.397	22877
872.526	22736
872.656	22630
872.785	22687
872.915	23105
873.044	23151
873.173	22965
873.303	22991
873.432	23003
873.561	23048
873.69	22965
873.819	22942
873.948	22930
874.077	22889
874.206	22809
874.335	22972
874.464	23136
874.593	23250
874.722	23155
874.851	23117
874.979	23258
875.108	23105
875.237	23193
875.365	23128
875.494	23170
875.623	23223
875.751	23022
875.88	23166
876.008	23299
876.136	23334
876.265	23570
876.393	23604
876.521	23684
876.65	23726
876.778	23486
876.906	23520
877.034	23558
877.162	23528
877.29	23417
877.418	23501
877.546	23539
877.674	23452
877.802	23497
877.93	23512
878.058	23554
878.185	23265
878.313	23433
878.441	23402
878.568	23322
878.696	23280
878.824	23505
878.951	23512
879.079	23668
879.206	23634
879.333	23680
879.461	23535
879.588	23604
879.715	23562
879.842	23771
879.97	23585
880.097	23395
880.224	23212
880.351	23425
880.478	23273
880.605	23170
880.732	23398
880.859	23551
880.986	23280
881.112	23326
881.239	23227
881.366	23109
881.493	23075
881.619	22934
881.746	22915
881.872	23052
881.999	22889
882.125	22786
882.252	22824
882.378	22835
882.505	22862
882.631	22573
882.757	22599
882.883	22573
883.01	22516
883.136	22599
883.262	22405
883.388	22394
883.514	22588
883.64	22497
883.766	22485
883.892	22344
884.018	22382
884.143	22535
884.269	22683
884.395	22219
884.52	22291
884.646	22257
884.772	22246
884.897	22143
885.023	22188
885.148	22207
885.274	22272
885.399	22280
885.524	22265
885.65	22306
885.775	22139
885.9	22101
886.025	22284
886.15	22219
886.275	22032
886.4	22150
886.525	22131
886.65	22188
886.775	22200
886.9	22284
887.025	22295
887.149	22109
887.274	21991
887.399	21945
887.523	21892
887.648	21827
887.773	21892
887.897	21960
888.021	21899
888.146	21888
888.27	21956
888.395	22040
888.519	21869
888.643	21911
888.767	21991
888.891	21994
889.015	21857
889.139	21739
889.263	21686
889.387	21888
889.511	22010
889.635	21895
889.759	21701
889.883	21591
890.006	21614
890.13	21728
890.254	21591
890.377	21587
890.501	21435
890.624	21336
890.748	21576
890.871	21363
890.995	21382
891.118	21252
891.241	21329
891.364	21218
891.488	21420
891.611	21214
891.734	21237
891.857	21367
891.98	21157
892.103	21344
892.226	21199
892.349	21260
892.471	21017
892.594	21096
892.717	21252
892.839	21199
892.962	21112
893.085	21245
893.207	21245
893.33	20986
893.452	21032
893.575	21188
893.697	21112
893.819	21287
893.941	21332
894.064	21351
894.186	21199
894.308	21066
894.43	21138
894.552	21279
894.674	21188
894.796	21024
894.918	21096
895.04	21207
895.161	21329
895.283	21138
895.405	21272
895.526	21135
895.648	21081
895.769	21176
895.891	21146
896.012	21340
896.134	21233
896.255	21176
896.376	21017
896.498	21108
896.619	21142
896.74	21283
896.861	21093
896.982	21462
897.103	21553
897.224	21306
897.345	21405
897.466	21355
897.587	21355
897.708	21359
897.828	21485
897.949	21325
898.07	21062
898.19	21169
898.311	21443
898.431	21363
898.552	21382
898.672	21386
898.792	21424
898.913	21275
899.033	21249
899.153	21051
899.273	20960
899.393	21096
899.513	21131
899.633	21036
899.753	21001
899.873	21013
899.993	21062
900.113	20975
900.232	21017
900.352	21058
900.472	20765
900.591	20705
900.711	20902
900.83	20815
900.95	20963
901.069	20895
901.189	20663
901.308	20556
901.427	20431
901.546	20499
901.665	20347
901.784	20454
901.904	20267
902.023	20077
902.141	19993
902.26	20043
902.379	20008
902.498	19909
902.617	19921
902.735	19875
902.854	19833
902.973	19784
903.091	19594
903.21	19590
903.328	19571
903.446	19453
903.565	19362
903.683	19407
903.801	19198
903.919	19335
904.038	19320
904.156	19069
904.274	19206
904.392	19107
904.51	19110
904.627	18989
904.745	19088
904.863	19171
904.981	18901
905.098	18791
905.216	18829
905.334	18856
905.451	18897
905.569	18837
905.686	18749
905.803	18707
905.921	18479
906.038	18715
906.155	18608
906.272	18490
906.389	18445
906.506	18376
906.623	18357
906.74	18323
906.857	18289
906.974	18095
907.091	18361
907.208	18391
907.324	18247
907.441	18304
907.557	17999
907.674	17996
907.79	17878
907.907	18015
908.023	17977
908.139	17969
908.256	17935
908.372	17939
908.488	17824
908.604	17741
908.72	17767
908.836	17729
908.952	17672
909.068	17832
909.184	17779
909.3	17699
909.415	17699
909.531	17630
909.647	17478
909.762	17436
909.878	17379
909.993	17471
910.108	17372
910.224	17288
910.339	17360
910.454	17414
910.57	17223
910.685	17109
910.8	17429
910.915	17376
911.03	17151
911.145	17067
911.259	17003
911.374	16877
911.489	16965
911.604	16972
911.718	16774
911.833	16801
911.947	16675
912.062	16683
912.176	16790
912.291	16725
912.405	16733
912.519	16961
912.633	16889
912.748	16873
912.862	16675
912.976	16615
913.09	16451
913.204	16493
913.318	16497
913.431	16622
913.545	16664
913.659	16615
913.772	16588
913.886	16421
914	16344
914.113	16417
914.226	16348
914.34	16424
914.453	16265
914.566	16504
914.68	16280
914.793	16147
914.906	15987
915.019	15922
915.132	15823
915.245	15926
915.358	15892
915.47	15918
915.583	15880
915.696	15949
915.809	16010
915.921	15972
916.034	15876
916.146	15797
916.259	15823
916.371	15827
916.483	15865
916.595	15774
916.708	15614
916.82	15686
916.932	15785
917.044	15701
917.156	15698
917.268	15641
917.38	15572
917.491	15507
917.603	15542
917.715	15557
917.826	15656
917.938	15447
918.049	15359
918.161	15473
918.272	15599
918.384	15545
918.495	15488
918.606	15298
918.717	15279
918.828	15298
918.939	15374
919.05	15211
919.161	15302
919.272	15142
919.383	15131
919.494	15313
919.604	15408
919.715	15241
919.826	15093
919.936	15226
920.047	15306
920.157	15291
920.267	15473
920.378	15237
920.488	15211
920.598	15348
920.708	15485
920.818	15336
920.928	15332
921.038	15496
921.148	15443
921.258	15192
921.368	15104
921.477	14895
921.587	14975
921.697	14754
921.806	14956
921.916	14765
922.025	14587
922.134	14598
922.244	14579
922.353	14579
922.462	14393
922.571	14438
922.68	14305
922.789	14237
922.898	14290
923.007	14278
923.116	14221
923.224	14259
923.333	14210
923.442	14088
923.55	14001
923.659	14027
923.767	13982
923.876	13967
923.984	14027
924.092	13951
924.201	14016
924.309	13967
924.417	13940
924.525	13890
924.633	13818
924.741	14598
924.849	13681
924.956	13742
925.064	13540
925.172	13552
925.279	13590
925.387	13628
925.494	13601
925.602	13708
925.709	13540
925.816	13518
925.924	13552
926.031	13613
926.138	13438
926.245	13563
926.352	13457
926.459	13529
926.566	13578
926.673	13438
926.779	13324
926.886	13320
926.993	13095
927.099	13187
927.206	13046
927.312	13038
927.419	13110
927.525	13046
927.631	13099
927.737	12970
927.843	13015
927.95	12890
928.056	12981
928.162	12943
928.267	12928
928.373	13620
928.479	12996
928.585	12837
928.69	12863
928.796	13019
928.901	12825
929.007	12715
929.112	12798
929.218	12700
929.323	12665
929.428	12726
929.533	12760
929.638	12597
929.743	12635
929.848	12665
929.953	12589
930.058	12506
930.163	12300
930.267	12407
930.372	12407
930.477	12323
930.581	12460
930.685	12296
930.79	12205
930.894	12254
930.998	12155
931.103	12311
931.207	11958
931.311	11805
931.415	11760
931.519	11649
931.623	11573
