Data from test_V78500241_2630.txt Node
Date: Fri Mar 25 16:00:01 CST 2022
User: usil
Spectrometer: V785-0024
Trigger mode: 0
Integration Time (sec): 4.000000E-1
Scans to average: 1
Nonlinearity correction enabled: false
Boxcar width: 0
Storing dark spectrum: false
XAxis mode: Wavelengths
Number of Pixels in Spectrum: 1024
>>>>>Begin Spectral Data<<<<<
801.071	28953
801.214	28797
801.356	28516
801.499	28569
801.641	28337
801.783	28462
801.926	28481
802.068	28451
802.211	28413
802.353	28295
802.496	28181
802.638	28215
802.78	28086
802.923	28048
803.065	28147
803.208	28204
803.35	28249
803.492	28215
803.635	28401
803.777	28284
803.919	28474
804.061	28584
804.204	28451
804.346	28196
804.488	28268
804.63	28474
804.773	28272
804.915	28455
805.057	28584
805.199	28287
805.341	28508
805.483	28607
805.626	28713
805.768	28428
805.91	28550
806.052	28546
806.194	28565
806.336	28740
806.478	28622
806.62	28565
806.762	28774
806.904	28752
807.046	29003
807.188	29052
807.33	28976
807.472	29083
807.614	28984
807.756	28976
807.898	28843
808.04	29029
808.182	28664
808.324	28755
808.465	28961
808.607	29090
808.749	29311
808.891	29436
809.033	29474
809.174	29360
809.316	29261
809.458	29311
809.6	29162
809.741	29330
809.883	29387
810.025	29566
810.166	29661
810.308	29539
810.45	29474
810.591	29471
810.733	29356
810.875	29170
811.016	29239
811.158	29235
811.299	29296
811.441	29433
811.582	29467
811.724	29303
811.865	29151
812.007	29318
812.148	29353
812.29	29417
812.431	29493
812.573	29596
812.714	29657
812.855	29638
812.997	29889
813.138	29999
813.279	29855
813.421	29779
813.562	29589
813.703	29680
813.845	29589
813.986	29250
814.127	28995
814.268	29003
814.41	28999
814.551	28915
814.692	28942
814.833	28896
814.974	28938
815.115	28980
815.256	28942
815.397	28782
815.539	28790
815.68	28885
815.821	28778
815.962	28805
816.103	28717
816.244	28679
816.385	28622
816.526	28618
816.666	28432
816.807	28223
816.948	28314
817.089	28325
817.23	28242
817.371	28253
817.512	28276
817.653	28356
817.793	28223
817.934	28253
818.075	28322
818.216	28303
818.356	28223
818.497	28177
818.638	28112
818.778	28154
818.919	28192
819.06	28112
819.2	28306
819.341	28303
819.481	28352
819.622	28371
819.762	28713
819.903	28611
820.043	28459
820.184	28531
820.324	28485
820.465	28493
820.605	28348
820.746	28588
820.886	28310
821.026	28447
821.167	28360
821.307	28512
821.447	28341
821.588	28253
821.728	28200
821.868	27998
822.008	27838
822.149	27850
822.289	27717
822.429	27580
822.569	27515
822.709	27443
822.849	27340
822.99	27272
823.13	27249
823.27	27340
823.41	27074
823.55	27017
823.69	27020
823.83	27154
823.97	27135
824.11	26845
824.25	26823
824.389	26880
824.529	27017
824.669	27032
824.809	27062
824.949	27055
825.089	26960
825.228	27085
825.368	26952
825.508	26735
825.648	26990
825.787	26857
825.927	26842
826.067	26804
826.206	26762
826.346	26845
826.485	26861
826.625	26918
826.765	27028
826.904	26887
827.044	26746
827.183	26560
827.323	26651
827.462	26640
827.601	26617
827.741	26644
827.88	26522
828.02	26374
828.159	26579
828.298	26602
828.437	26606
828.577	26389
828.716	26473
828.855	26393
828.994	26259
829.134	26473
829.273	26248
829.412	26199
829.551	26153
829.69	26119
829.829	26195
829.968	26149
830.107	26294
830.246	26332
830.385	26065
830.524	26191
830.663	26031
830.802	26039
830.941	25753
831.08	25890
831.219	25997
831.357	25879
831.496	26077
831.635	25909
831.774	25833
831.913	25742
832.051	25651
832.19	25544
832.329	25578
832.467	25662
832.606	25529
832.744	25499
832.883	25468
833.022	25365
833.16	25460
833.299	25506
833.437	25518
833.576	25628
833.714	25571
833.852	25616
833.991	25563
834.129	25719
834.267	25731
834.406	25529
834.544	25567
834.682	25639
834.821	25639
834.959	25833
835.097	25518
835.235	25655
835.373	25540
835.511	25677
835.65	25464
835.788	25365
835.926	25251
836.064	25171
836.202	25255
836.34	25373
836.478	25567
836.615	25293
836.753	25476
836.891	25445
837.029	25453
837.167	25228
837.305	25297
837.443	25247
837.58	25148
837.718	25331
837.856	25228
837.993	25297
838.131	25194
838.269	25038
838.406	25301
838.544	24989
838.681	24897
838.819	24821
838.956	24749
839.094	24692
839.231	24753
839.369	24871
839.506	25080
839.643	24897
839.781	24681
839.918	24681
840.055	24779
840.193	24593
840.33	24464
840.467	24525
840.604	24608
840.742	24875
840.879	24502
841.016	24490
841.153	24479
841.29	24551
841.427	24623
841.564	24631
841.701	24486
841.838	24559
841.975	24612
842.112	24517
842.249	24429
842.385	24376
842.522	24745
842.659	24441
842.796	24319
842.933	24388
843.069	24235
843.206	24311
843.343	24372
843.479	24308
843.616	24289
843.752	24163
843.889	23980
844.025	24213
844.162	24064
844.298	24289
844.435	24194
844.571	24167
844.708	24068
844.844	24361
844.98	24129
845.117	24235
845.253	24136
845.389	23965
845.525	23912
845.661	24121
845.798	23859
845.934	23832
846.07	23855
846.206	23889
846.342	24053
846.478	23817
846.614	23554
846.75	23520
846.886	23376
847.022	23703
847.158	23589
847.294	23577
847.429	23615
847.565	23474
847.701	23703
847.837	23280
847.972	23326
848.108	23433
848.244	23239
848.379	23193
848.515	23083
848.65	23216
848.786	23269
848.921	23204
849.057	23311
849.192	23376
849.328	23117
849.463	23193
849.598	23178
849.734	23075
849.869	23075
850.004	23003
850.14	22957
850.275	22869
850.41	22881
850.545	22889
850.68	22930
850.815	23018
850.95	22843
851.085	23041
851.22	22991
851.355	22927
851.49	22930
851.625	22915
851.76	22991
851.895	22957
852.03	22820
852.165	22961
852.299	22949
852.434	22904
852.569	22961
852.703	22889
852.838	22854
852.973	23037
853.107	22991
853.242	22892
853.376	22778
853.511	22615
853.645	22679
853.78	22873
853.914	22740
854.048	22740
854.183	22733
854.317	22854
854.451	23003
854.585	22820
854.72	22641
854.854	22691
854.988	22736
855.122	22744
855.256	22588
855.39	22634
855.524	22930
855.658	22835
855.792	22816
855.926	22812
856.06	22786
856.194	22908
856.327	22839
856.461	22561
856.595	22596
856.729	22771
856.862	22843
856.996	22831
857.13	22763
857.263	22805
857.397	22908
857.53	22778
857.664	22702
857.797	22812
857.931	22850
858.064	22889
858.197	22869
858.331	22740
858.464	22733
858.597	22542
858.731	22653
858.864	22626
858.997	22603
859.13	22603
859.263	22858
859.396	22858
859.529	22717
859.662	22752
859.795	22736
859.928	22752
860.061	22847
860.194	22972
860.327	22733
860.46	22790
860.592	22927
860.725	22911
860.858	22923
860.99	22790
861.123	22679
861.256	22626
861.388	22797
861.521	23467
861.653	22634
861.786	22508
861.918	22550
862.05	22691
862.183	22649
862.315	22611
862.447	22801
862.58	22660
862.712	22417
862.844	22462
862.976	22523
863.108	22569
863.24	22835
863.372	22436
863.504	22379
863.636	22485
863.768	22561
863.9	22390
864.032	22436
864.164	22489
864.296	22417
864.428	22512
864.559	22584
864.691	22485
864.823	22440
864.954	22459
865.086	22417
865.217	22379
865.349	22188
865.48	22280
865.612	22344
865.743	22489
865.875	22314
866.006	22299
866.137	22367
866.269	22287
866.4	22295
866.531	22166
866.662	22185
866.793	22261
866.924	22169
867.055	22291
867.186	22341
867.317	22268
867.448	22150
867.579	22249
867.71	22173
867.841	22177
867.972	22344
868.103	22265
868.233	22207
868.364	22162
868.495	22398
868.625	22474
868.756	22603
868.886	22367
869.017	22523
869.147	22596
869.278	22584
869.408	22432
869.539	22504
869.669	22485
869.799	22546
869.929	22767
870.06	22618
870.19	22710
870.32	22672
870.45	22782
870.58	22896
870.71	22972
870.84	22919
870.97	22987
871.1	22866
871.23	23064
871.36	23155
871.489	22850
871.619	23041
871.749	23010
871.879	23166
872.008	23200
872.138	22972
872.267	23090
872.397	22919
872.526	22934
872.656	22850
872.785	22968
872.915	23147
873.044	23018
873.173	23090
873.303	23166
873.432	23193
873.561	23200
873.69	23090
873.819	23090
873.948	23220
874.077	23235
874.206	22965
874.335	23010
874.464	23204
874.593	23292
874.722	23265
874.851	23341
874.979	23349
875.108	23239
875.237	23246
875.365	23200
875.494	23280
875.623	23315
875.751	23299
875.88	23436
876.008	23429
876.136	23611
876.265	23771
876.393	23771
876.521	23840
876.65	23813
876.778	23707
876.906	23687
877.034	23615
877.162	23771
877.29	23585
877.418	23611
877.546	23752
877.674	23718
877.802	23585
877.93	23714
878.058	23695
878.185	23596
878.313	23562
878.441	23657
878.568	23592
878.696	23592
878.824	23764
878.951	23653
879.079	23923
879.206	23961
879.333	23805
879.461	23748
879.588	23729
879.715	23859
879.842	24022
879.97	23726
880.097	23448
880.224	23482
880.351	23528
880.478	23459
880.605	23414
880.732	23440
880.859	23638
880.986	23539
881.112	23505
881.239	23334
881.366	23121
881.493	23132
881.619	23079
881.746	23136
881.872	23010
881.999	23041
882.125	22953
882.252	23071
882.378	23014
882.505	22976
882.631	22862
882.757	22752
882.883	22828
883.01	22778
883.136	22668
883.262	22637
883.388	22554
883.514	22725
883.64	22778
883.766	22615
883.892	22508
884.018	22386
884.143	22725
884.269	22752
884.395	22485
884.52	22356
884.646	22447
884.772	22261
884.897	22181
885.023	22257
885.148	22363
885.274	22504
885.399	22413
885.524	22337
885.65	22436
885.775	22322
885.9	22223
886.025	22352
886.15	22409
886.275	22207
886.4	22207
886.525	22284
886.65	22154
886.775	22238
886.9	22451
887.025	22512
887.149	22287
887.274	22181
887.399	22128
887.523	22044
887.648	22147
887.773	21972
887.897	22173
888.021	22143
888.146	22029
888.27	22265
888.395	22200
888.519	22188
888.643	22116
888.767	22166
888.891	21972
889.015	21873
889.139	22002
889.263	21915
889.387	21964
889.511	22154
889.635	22036
889.759	21846
889.883	21804
890.006	21903
890.13	21907
890.254	21732
890.377	21675
890.501	21618
890.624	21545
890.748	21583
890.871	21637
890.995	21435
891.118	21431
891.241	21488
891.364	21458
891.488	21564
891.611	21428
891.734	21599
891.857	21428
891.98	21435
892.103	21370
892.226	21405
892.349	21450
892.471	21260
892.594	21283
892.717	21424
892.839	21237
892.962	21294
893.085	21355
893.207	21294
893.33	21157
893.452	21325
893.575	21279
893.697	21351
893.819	21420
893.941	21591
894.064	21450
894.186	21222
894.308	21195
894.43	21363
894.552	21374
894.674	21370
894.796	21249
894.918	21306
895.04	21310
895.161	21302
895.283	21405
895.405	21359
895.526	21340
895.648	21264
895.769	21275
895.891	21313
896.012	21450
896.134	21382
896.255	21291
896.376	21192
896.498	21363
896.619	21332
896.74	21199
896.861	21123
896.982	21622
897.103	21717
897.224	21549
897.345	21523
897.466	21469
897.587	21454
897.708	21675
897.828	21397
897.949	21382
898.07	21264
898.19	21294
898.311	21496
898.431	21363
898.552	21458
898.672	21454
898.792	21469
898.913	21405
899.033	21249
899.153	21249
899.273	21317
899.393	21268
899.513	21180
899.633	21176
899.753	21211
899.873	21108
899.993	21184
900.113	21150
900.232	21123
900.352	21161
900.472	20979
900.591	20807
900.711	20952
900.83	20925
900.95	21077
901.069	21108
901.189	20750
901.308	20644
901.427	20594
901.546	20568
901.665	20499
901.784	20541
901.904	20347
902.023	20286
902.141	20199
902.26	20008
902.379	20115
902.498	20008
902.617	20005
902.735	20088
902.854	19871
902.973	20020
903.091	19704
903.21	19799
903.328	19712
903.446	19723
903.565	19537
903.683	19468
903.801	19369
903.919	19533
904.038	19407
904.156	19179
904.274	19377
904.392	19324
904.51	19202
904.627	19114
904.745	19316
904.863	19430
904.981	19027
905.098	18977
905.216	18966
905.334	18939
905.451	18814
905.569	18859
905.686	18916
905.803	18913
905.921	18658
906.038	18772
906.155	18703
906.272	18604
906.389	18631
906.506	18532
906.623	18525
906.74	18414
906.857	18296
906.974	18399
907.091	18582
907.208	18498
907.324	18429
907.441	18292
907.557	18251
907.674	17969
907.79	18045
907.907	18072
908.023	18194
908.139	18125
908.256	18167
908.372	18102
908.488	17996
908.604	17836
908.72	17805
908.836	17916
908.952	17802
909.068	17870
909.184	17973
909.3	17946
909.415	17836
909.531	17783
909.647	17642
909.762	17558
909.878	17497
909.993	17493
910.108	17535
910.224	17554
910.339	17391
910.454	17452
910.57	17341
910.685	17239
910.8	17486
910.915	17463
911.03	17356
911.145	17174
911.259	16991
911.374	17056
911.489	17079
911.604	16927
911.718	16900
911.833	16915
911.947	16816
912.062	16774
912.176	16771
912.291	16919
912.405	16805
912.519	17045
912.633	17113
912.748	16934
912.862	16881
912.976	16668
913.09	16649
913.204	16626
913.318	16740
913.431	16828
913.545	16736
913.659	16706
913.772	16679
913.886	16531
914	16409
914.113	16577
914.226	16554
914.34	16550
914.453	16325
914.566	16504
914.68	16497
914.793	16318
914.906	16097
915.019	16021
915.132	16029
915.245	16150
915.358	16078
915.47	16036
915.583	15964
915.696	16036
915.809	16147
915.921	16192
916.034	16021
916.146	15907
916.259	15865
916.371	16082
916.483	16032
916.595	15895
916.708	15736
916.82	15800
916.932	15804
917.044	15804
917.156	15785
917.268	15694
917.38	15629
917.491	15614
917.603	15732
917.715	15728
917.826	15720
917.938	15629
918.049	15504
918.161	15580
918.272	15732
918.384	15724
918.495	15625
918.606	15359
918.717	15401
918.828	15488
918.939	15485
919.05	15245
919.161	15374
919.272	15222
919.383	15222
919.494	15416
919.604	15549
919.715	15393
919.826	15306
919.936	15355
920.047	15500
920.157	15279
920.267	15447
920.378	15306
920.488	15226
920.598	15389
920.708	15644
920.818	15477
920.928	15355
921.038	15610
921.148	15584
921.258	15211
921.368	15195
921.477	15089
921.587	15085
921.697	14918
921.806	15032
921.916	14937
922.025	14724
922.134	14735
922.244	14617
922.353	14720
922.462	14587
922.571	14488
922.68	14431
922.789	14286
922.898	14358
923.007	14370
923.116	14358
923.224	14343
923.333	14294
923.442	14172
923.55	14096
923.659	14183
923.767	14191
923.876	14115
923.984	14107
924.092	13997
924.201	14142
924.309	14111
924.417	14039
924.525	13959
924.633	14008
924.741	14842
924.849	13727
924.956	13856
925.064	13814
925.172	13674
925.279	13632
925.387	13727
925.494	13693
925.602	13814
925.709	13715
925.816	13636
925.924	13666
926.031	13776
926.138	13582
926.245	13750
926.352	13548
926.459	13693
926.566	13761
926.673	13556
926.779	13419
926.886	13445
926.993	13312
927.099	13198
927.206	13129
927.312	13141
927.419	13190
927.525	13255
927.631	13187
927.737	13107
927.843	13061
927.95	12989
928.056	13065
928.162	13080
928.267	13076
928.373	13601
928.479	13088
928.585	12890
928.69	12947
928.796	13069
928.901	12909
929.007	12688
929.112	12924
929.218	12738
929.323	12829
929.428	12642
929.533	12951
929.638	12707
929.743	12681
929.848	12783
929.953	12658
930.058	12532
930.163	12464
930.267	12369
930.372	12456
930.477	12353
930.581	12585
930.685	12536
930.79	12251
930.894	12380
930.998	12220
931.103	12357
931.207	12060
931.311	12003
931.415	11874
931.519	11684
931.623	11695
