Data from test_V78500241_489.txt Node
Date: Fri Mar 25 15:45:11 CST 2022
User: usil
Spectrometer: V785-0024
Trigger mode: 0
Integration Time (sec): 4.000000E-1
Scans to average: 1
Nonlinearity correction enabled: false
Boxcar width: 0
Storing dark spectrum: false
XAxis mode: Wavelengths
Number of Pixels in Spectrum: 1024
>>>>>Begin Spectral Data<<<<<
801.071	27412
801.214	27344
801.356	27131
801.499	27093
801.641	26963
801.783	26735
801.926	26914
802.068	26910
802.211	26902
802.353	26762
802.496	26564
802.638	26609
802.78	26686
802.923	26473
803.065	26545
803.208	26609
803.35	26545
803.492	26629
803.635	26807
803.777	26488
803.919	26785
804.061	26921
804.204	26636
804.346	26693
804.488	26629
804.63	26617
804.773	26522
804.915	26655
805.057	26948
805.199	26693
805.341	26651
805.483	26956
805.626	26670
805.768	26651
805.91	26777
806.052	26811
806.194	26731
806.336	26944
806.478	26857
806.62	26834
806.762	26895
806.904	27112
807.046	27287
807.188	27173
807.33	27252
807.472	27283
807.614	27173
807.756	27207
807.898	27123
808.04	27074
808.182	26895
808.324	27020
808.465	27020
808.607	27237
808.749	27447
808.891	27542
809.033	27492
809.174	27610
809.316	27458
809.458	27363
809.6	27469
809.741	27431
809.883	27469
810.025	27561
810.166	27637
810.308	27690
810.45	27781
810.591	27614
810.733	27382
810.875	27329
811.016	27325
811.158	27363
811.299	27412
811.441	27618
811.582	27481
811.724	27443
811.865	27488
812.007	27378
812.148	27389
812.29	27447
812.431	27618
812.573	27789
812.714	27949
812.855	27991
812.997	27972
813.138	28162
813.279	28059
813.421	27854
813.562	27903
813.703	27766
813.845	27614
813.986	27302
814.127	27157
814.268	27138
814.41	27146
814.551	27131
814.692	27173
814.833	26921
814.974	26902
815.115	26944
815.256	27032
815.397	26906
815.539	27020
815.68	26834
815.821	26861
815.962	26785
816.103	26948
816.244	26651
816.385	26667
816.526	26636
816.666	26389
816.807	26259
816.948	26271
817.089	26434
817.23	26298
817.371	26381
817.512	26415
817.653	26282
817.793	26199
817.934	26427
818.075	26465
818.216	26286
818.356	26278
818.497	26153
818.638	25978
818.778	25970
818.919	26122
819.06	26134
819.2	26237
819.341	26237
819.481	26332
819.622	26442
819.762	26693
819.903	26575
820.043	26503
820.184	26336
820.324	26381
820.465	26332
820.605	26556
820.746	26313
820.886	26248
821.026	26355
821.167	26469
821.307	26545
821.447	26305
821.588	26286
821.728	26130
821.868	25974
822.008	25807
822.149	25715
822.289	25856
822.429	25632
822.569	25559
822.709	25510
822.849	25209
822.99	25339
823.13	25354
823.27	25240
823.41	25061
823.55	24863
823.69	25160
823.83	25019
823.97	25038
824.11	24871
824.25	24875
824.389	25053
824.529	24996
824.669	24996
824.809	25103
824.949	24989
825.089	25019
825.228	25012
825.368	24821
825.508	24878
825.648	24840
825.787	24719
825.927	24764
826.067	24692
826.206	24852
826.346	24886
826.485	24833
826.625	24863
826.765	24916
826.904	24719
827.044	24521
827.183	24513
827.323	24418
827.462	24551
827.601	24509
827.741	24395
827.88	24452
828.02	24369
828.159	24513
828.298	24505
828.437	24505
828.577	24388
828.716	24464
828.855	24486
828.994	24159
829.134	24186
829.273	24369
829.412	24251
829.551	24239
829.69	24186
829.829	24258
829.968	24254
830.107	24178
830.246	24239
830.385	24133
830.524	24140
830.663	23889
830.802	23961
830.941	23726
831.08	23707
831.219	23840
831.357	23882
831.496	24178
831.635	23851
831.774	23745
831.913	23467
832.051	23657
832.19	23436
832.329	23657
832.467	23486
832.606	23391
832.744	23398
832.883	23524
833.022	23391
833.16	23516
833.299	23360
833.437	23497
833.576	23486
833.714	23433
833.852	23528
833.991	23558
834.129	23668
834.267	23638
834.406	23638
834.544	23566
834.682	23414
834.821	23520
834.959	23699
835.097	23501
835.235	23505
835.373	23444
835.511	23425
835.65	23478
835.788	23345
835.926	23303
836.064	23064
836.202	23147
836.34	23402
836.478	23398
836.615	23356
836.753	23387
836.891	23505
837.029	23318
837.167	23189
837.305	23113
837.443	23341
837.58	23242
837.718	23250
837.856	23136
837.993	23124
838.131	23128
838.269	23071
838.406	23003
838.544	22999
838.681	22927
838.819	22778
838.956	22565
839.094	22618
839.231	22653
839.369	22862
839.506	23041
839.643	22953
839.781	22664
839.918	22694
840.055	22607
840.193	22603
840.33	22554
840.467	22573
840.604	22550
840.742	22873
840.879	22550
841.016	22557
841.153	22432
841.29	22713
841.427	22603
841.564	22634
841.701	22542
841.838	22542
841.975	22421
842.112	22485
842.249	22478
842.385	22405
842.522	22535
842.659	22386
842.796	22360
842.933	22344
843.069	22207
843.206	22337
843.343	22371
843.479	22249
843.616	22325
843.752	22082
843.889	22086
844.025	22204
844.162	22093
844.298	22257
844.435	22188
844.571	22078
844.708	22101
844.844	22211
844.98	22219
845.117	22067
845.253	21972
845.389	21892
845.525	21892
845.661	21903
845.798	21724
845.934	21884
846.07	21816
846.206	21953
846.342	21964
846.478	21778
846.614	21599
846.75	21583
846.886	21656
847.022	21530
847.158	21622
847.294	21614
847.429	21603
847.565	21515
847.701	21884
847.837	21313
847.972	21367
848.108	21302
848.244	21424
848.379	21192
848.515	21199
848.65	21142
848.786	21131
848.921	21165
849.057	21237
849.192	21222
849.328	21237
849.463	21142
849.598	21146
849.734	21119
849.869	21028
850.004	21017
850.14	20921
850.275	20906
850.41	20796
850.545	20651
850.68	20788
850.815	20933
850.95	20952
851.085	21085
851.22	21013
851.355	21024
851.49	20956
851.625	20998
851.76	20925
851.895	20800
852.03	20823
852.165	20921
852.299	20925
852.434	21028
852.569	21001
852.703	20838
852.838	20872
852.973	21100
853.107	21028
853.242	20834
853.376	20693
853.511	20670
853.645	20636
853.78	20838
853.914	20849
854.048	20758
854.183	20762
854.317	20762
854.451	21001
854.585	20788
854.72	20769
854.854	20743
854.988	20701
855.122	20838
855.256	20571
855.39	20823
855.524	20914
855.658	20640
855.792	20815
855.926	20811
856.06	20872
856.194	20773
856.327	20655
856.461	20777
856.595	20640
856.729	20697
856.862	20857
856.996	20842
857.13	20724
857.263	20941
857.397	20861
857.53	20739
857.664	20659
857.797	20804
857.931	20845
858.064	20777
858.197	20796
858.331	20819
858.464	20655
858.597	20609
858.731	20807
858.864	20796
858.997	20663
859.13	20769
859.263	20686
859.396	20895
859.529	20594
859.662	20754
859.795	20750
859.928	20754
860.061	20883
860.194	20975
860.327	20963
860.46	20758
860.592	20883
860.725	20876
860.858	20773
860.99	20765
861.123	20613
861.256	20819
861.388	20712
861.521	21363
861.653	20625
861.786	20514
861.918	20537
862.05	20552
862.183	20651
862.315	20724
862.447	20678
862.58	20613
862.712	20537
862.844	20499
862.976	20590
863.108	20480
863.24	20963
863.372	20355
863.504	20313
863.636	20495
863.768	20415
863.9	20503
864.032	20214
864.164	20400
864.296	20571
864.428	20632
864.559	20526
864.691	20461
864.823	20438
864.954	20484
865.086	20457
865.217	20313
865.349	20275
865.48	20278
865.612	20442
865.743	20495
865.875	20305
866.006	20328
866.137	20328
866.269	20351
866.4	20374
866.531	20313
866.662	20218
866.793	20320
866.924	20256
867.055	20412
867.186	20332
867.317	20229
867.448	20210
867.579	20298
867.71	20305
867.841	20145
867.972	20282
868.103	20278
868.233	20225
868.364	20317
868.495	20347
868.625	20568
868.756	20640
868.886	20431
869.017	20533
869.147	20651
869.278	20701
869.408	20625
869.539	20541
869.669	20693
869.799	20590
869.929	20701
870.06	20564
870.19	20880
870.32	20883
870.45	20902
870.58	20960
870.71	21081
870.84	21104
870.97	20929
871.1	20971
871.23	21104
871.36	21077
871.489	21062
871.619	20941
871.749	21135
871.879	21203
872.008	21222
872.138	21199
872.267	21085
872.397	21009
872.526	20971
872.656	20914
872.785	20967
872.915	21233
873.044	21165
873.173	21077
873.303	21230
873.432	21214
873.561	21283
873.69	21294
873.819	21074
873.948	21336
874.077	21146
874.206	21112
874.335	21218
874.464	21340
874.593	21523
874.722	21408
874.851	21344
874.979	21477
875.108	21462
875.237	21431
875.365	21401
875.494	21454
875.623	21500
875.751	21424
875.88	21519
876.008	21488
876.136	21583
876.265	21762
876.393	21880
876.521	21800
876.65	21934
876.778	21690
876.906	21831
877.034	21709
877.162	21717
877.29	21759
877.418	21751
877.546	21766
877.674	21827
877.802	21770
877.93	21675
878.058	21713
878.185	21583
878.313	21698
878.441	21698
878.568	21637
878.696	21663
878.824	21713
878.951	21895
879.079	21998
879.206	22067
879.333	21873
879.461	21739
879.588	21793
879.715	21953
879.842	22032
879.97	21816
880.097	21606
880.224	21549
880.351	21572
880.478	21504
880.605	21599
880.732	21488
880.859	21778
880.986	21580
881.112	21614
881.239	21485
881.366	21287
881.493	21268
881.619	21283
881.746	21207
881.872	21131
881.999	21138
882.125	21127
882.252	21119
882.378	21077
882.505	21298
882.631	21032
882.757	20918
882.883	20963
883.01	20994
883.136	20819
883.262	20853
883.388	20769
883.514	20857
883.64	20758
883.766	20804
883.892	20594
884.018	20659
884.143	20857
884.269	20883
884.395	20575
884.52	20587
884.646	20602
884.772	20396
884.897	20355
885.023	20480
885.148	20602
885.274	20724
885.399	20587
885.524	20415
885.65	20571
885.775	20594
885.9	20480
886.025	20625
886.15	20606
886.275	20434
886.4	20317
886.525	20533
886.65	20415
886.775	20370
886.9	20636
887.025	20800
887.149	20431
887.274	20336
887.399	20252
887.523	20305
887.648	20252
887.773	20199
887.897	20370
888.021	20278
888.146	20252
888.27	20404
888.395	20385
888.519	20362
888.643	20320
888.767	20301
888.891	20233
889.015	20073
889.139	20168
889.263	20012
889.387	20145
889.511	20275
889.635	20294
889.759	20054
889.883	20183
890.006	20126
890.13	20119
890.254	20107
890.377	20100
890.501	19860
890.624	19814
890.748	19906
890.871	19723
890.995	19632
891.118	19651
891.241	19624
891.364	19655
891.488	19685
891.611	19712
891.734	19647
891.857	19689
891.98	19624
892.103	19666
892.226	19662
892.349	19635
892.471	19537
892.594	19521
892.717	19723
892.839	19594
892.962	19575
893.085	19647
893.207	19605
893.33	19495
893.452	19529
893.575	19571
893.697	19510
893.819	19616
893.941	19788
894.064	19780
894.186	19586
894.308	19426
894.43	19677
894.552	19708
894.674	19742
894.796	19460
894.918	19559
895.04	19552
895.161	19609
895.283	19491
895.405	19468
895.526	19616
895.648	19559
895.769	19616
895.891	19651
896.012	19616
896.134	19616
896.255	19643
896.376	19544
896.498	19552
896.619	19655
896.74	19533
896.861	19784
896.982	19928
897.103	20122
897.224	19894
897.345	19696
897.466	19765
897.587	19852
897.708	19947
897.828	19769
897.949	19833
898.07	19704
898.19	19776
898.311	19898
898.431	19795
898.552	19860
898.672	19963
898.792	19890
898.913	19856
899.033	19784
899.153	19696
899.273	19582
899.393	19594
899.513	19582
899.633	19643
899.753	19514
899.873	19563
899.993	19639
900.113	19548
900.232	19616
900.352	19502
900.472	19491
900.591	19411
900.711	19369
900.83	19365
900.95	19491
901.069	19449
901.189	19171
901.308	19080
901.427	19015
901.546	19057
901.665	18970
901.784	19015
901.904	18787
902.023	18798
902.141	18631
902.26	18494
902.379	18570
902.498	18517
902.617	18407
902.735	18498
902.854	18479
902.973	18376
903.091	18186
903.21	18110
903.328	18235
903.446	18041
903.565	18022
903.683	17984
903.801	17912
903.919	17832
904.038	17939
904.156	17798
904.274	17790
904.392	17684
904.51	17786
904.627	17737
904.745	17863
904.863	17794
904.981	17532
905.098	17395
905.216	17356
905.334	17429
905.451	17463
905.569	17414
905.686	17486
905.803	17486
905.921	17235
906.038	17349
906.155	17239
906.272	17079
906.389	17094
906.506	16877
906.623	17022
906.74	16949
906.857	16774
906.974	16908
907.091	16987
907.208	17033
907.324	16911
907.441	16854
907.557	16786
907.674	16641
907.79	16637
907.907	16615
908.023	16577
908.139	16679
908.256	16660
908.372	16656
908.488	16538
908.604	16417
908.72	16409
908.836	16394
908.952	16363
909.068	16341
909.184	16512
909.3	16367
909.415	16455
909.531	16413
909.647	16131
909.762	16063
909.878	16074
909.993	16181
910.108	16078
910.224	16010
910.339	16120
910.454	16029
910.57	15854
910.685	15793
910.8	16192
910.915	16078
911.03	15755
911.145	15717
911.259	15698
911.374	15800
911.489	15587
911.604	15580
911.718	15545
911.833	15595
911.947	15321
912.062	15329
912.176	15507
912.291	15542
912.405	15458
912.519	15614
912.633	15629
912.748	15416
912.862	15405
912.976	15378
913.09	15226
913.204	15207
913.318	15291
913.431	15332
913.545	15211
913.659	15420
913.772	15199
913.886	15017
914	15241
914.113	15157
914.226	15233
914.34	15150
914.453	14982
914.566	15169
914.68	15032
914.793	14941
914.906	14830
915.019	14606
915.132	14667
915.245	14659
915.358	14819
915.47	14705
915.583	14720
915.696	14678
915.809	14739
915.921	14720
916.034	14606
916.146	14590
916.259	14587
916.371	14792
916.483	14613
916.595	14522
916.708	14571
916.82	14606
916.932	14530
917.044	14476
917.156	14484
917.268	14313
917.38	14488
917.491	14271
917.603	14446
917.715	14389
917.826	14465
917.938	14320
918.049	14240
918.161	14298
918.272	14412
918.384	14423
918.495	14336
918.606	14145
918.717	14142
918.828	14202
918.939	14157
919.05	14050
919.161	14161
919.272	13807
919.383	13947
919.494	14202
919.604	14309
919.715	14088
919.826	14039
919.936	14100
920.047	14191
920.157	14100
920.267	14320
920.378	14058
920.488	14084
920.598	14313
920.708	14423
920.818	14286
920.928	14275
921.038	14423
921.148	14324
921.258	14138
921.368	14027
921.477	13833
921.587	13811
921.697	13689
921.806	13890
921.916	13715
922.025	13578
922.134	13407
922.244	13510
922.353	13582
922.462	13369
922.571	13358
922.68	13088
922.789	13217
922.898	13179
923.007	13118
923.116	13228
923.224	13129
923.333	13034
923.442	13069
923.55	13015
923.659	12973
923.767	13053
923.876	12916
923.984	12996
924.092	12935
924.201	12897
924.309	12806
924.417	12954
924.525	12795
924.633	12897
924.741	13636
924.849	12654
924.956	12821
925.064	12703
925.172	12532
925.279	12593
925.387	12703
925.494	12563
925.602	12749
925.709	12669
925.816	12547
925.924	12601
926.031	12650
926.138	12551
926.245	12528
926.352	12437
926.459	12623
926.566	12654
926.673	12460
926.779	12445
926.886	12391
926.993	12201
927.099	12213
927.206	12194
927.312	12152
927.419	12209
927.525	12213
927.631	12254
927.737	12030
927.843	12034
927.95	11824
928.056	12015
928.162	12026
928.267	12049
928.373	12627
928.479	12068
928.585	11897
928.69	11961
928.796	11996
928.901	11859
929.007	11783
929.112	11840
929.218	11851
929.323	11741
929.428	11798
929.533	11863
929.638	11695
929.743	11691
929.848	11676
929.953	11771
930.058	11512
930.163	11429
930.267	11448
930.372	11516
930.477	11425
930.581	11592
930.685	11490
930.79	11242
930.894	11402
930.998	11326
931.103	11440
931.207	11105
931.311	10961
931.415	10847
931.519	10740
931.623	10740
