Data from test_V78500241_928.txt Node
Date: Fri Mar 25 15:48:13 CST 2022
User: usil
Spectrometer: V785-0024
Trigger mode: 0
Integration Time (sec): 4.000000E-1
Scans to average: 1
Nonlinearity correction enabled: false
Boxcar width: 0
Storing dark spectrum: false
XAxis mode: Wavelengths
Number of Pixels in Spectrum: 1024
>>>>>Begin Spectral Data<<<<<
801.071	28356
801.214	28192
801.356	28044
801.499	27975
801.641	27892
801.783	27884
801.926	27987
802.068	27937
802.211	27739
802.353	27713
802.496	27500
802.638	27504
802.78	27496
802.923	27427
803.065	27462
803.208	27549
803.35	27587
803.492	27675
803.635	27781
803.777	27724
803.919	27808
804.061	28124
804.204	27800
804.346	27610
804.488	27526
804.63	27713
804.773	27694
804.915	27816
805.057	27789
805.199	27781
805.341	27922
805.483	27994
805.626	27816
805.768	27850
805.91	27876
806.052	27850
806.194	27827
806.336	28063
806.478	28055
806.62	27876
806.762	28029
806.904	28078
807.046	28436
807.188	28405
807.33	28390
807.472	28436
807.614	28299
807.756	28306
807.898	28242
808.04	28109
808.182	28162
808.324	28363
808.465	28299
808.607	28455
808.749	28516
808.891	28763
809.033	28854
809.174	28675
809.316	28531
809.458	28634
809.6	28733
809.741	28740
809.883	28896
810.025	28812
810.166	28987
810.308	28953
810.45	28934
810.591	28862
810.733	28615
810.875	28580
811.016	28550
811.158	28493
811.299	28698
811.441	28824
811.582	28831
811.724	28694
811.865	28611
812.007	28622
812.148	28622
812.29	28531
812.431	28858
812.573	29025
812.714	29010
812.855	29140
812.997	29269
813.138	29345
813.279	29105
813.421	29216
813.562	29033
813.703	29014
813.845	28812
813.986	28550
814.127	28546
814.268	28337
814.41	28306
814.551	28188
814.692	28405
814.833	28234
814.974	28303
815.115	28284
815.256	28253
815.397	28230
815.539	28276
815.68	28185
815.821	28002
815.962	28105
816.103	28070
816.244	28010
816.385	27880
816.526	28029
816.666	27854
816.807	27652
816.948	27736
817.089	27671
817.23	27561
817.371	27698
817.512	27641
817.653	27561
817.793	27443
817.934	27641
818.075	27599
818.216	27622
818.356	27526
818.497	27564
818.638	27355
818.778	27401
818.919	27393
819.06	27450
819.2	27488
819.341	27739
819.481	27637
819.622	27728
819.762	27914
819.903	27884
820.043	27789
820.184	27694
820.324	27701
820.465	27724
820.605	27751
820.746	27705
820.886	27610
821.026	27690
821.167	27755
821.307	27793
821.447	27690
821.588	27633
821.728	27405
821.868	27317
822.008	26994
822.149	27005
822.289	27066
822.429	27077
822.569	26853
822.709	26773
822.849	26682
822.99	26655
823.13	26613
823.27	26537
823.41	26400
823.55	26343
823.69	26492
823.83	26457
823.97	26282
824.11	26233
824.25	26298
824.389	26282
824.529	26214
824.669	26278
824.809	26389
824.949	26473
825.089	26271
825.228	26374
825.368	26130
825.508	26008
825.648	26149
825.787	26248
825.927	26320
826.067	26046
826.206	26081
826.346	26153
826.485	26115
826.625	26096
826.765	26180
826.904	26180
827.044	26092
827.183	25928
827.323	25715
827.462	25879
827.601	25776
827.741	25883
827.88	25795
828.02	25727
828.159	25799
828.298	25894
828.437	25913
828.577	25818
828.716	25989
828.855	25883
828.994	25647
829.134	25772
829.273	25666
829.412	25403
829.551	25521
829.69	25609
829.829	25491
829.968	25559
830.107	25651
830.246	25521
830.385	25411
830.524	25312
830.663	25411
830.802	25312
830.941	25232
831.08	25095
831.219	25209
831.357	25259
831.496	25312
831.635	25129
831.774	25019
831.913	25042
832.051	24886
832.19	25031
832.329	24954
832.467	24840
832.606	24852
832.744	24688
832.883	24821
833.022	24871
833.16	24886
833.299	24886
833.437	24806
833.576	24894
833.714	24962
833.852	24977
833.991	25027
834.129	25023
834.267	25069
834.406	24943
834.544	24935
834.682	25012
834.821	24817
834.959	25046
835.097	24848
835.235	25004
835.373	24848
835.511	24977
835.65	24719
835.788	24757
835.926	24681
836.064	24604
836.202	24574
836.34	24768
836.478	24863
836.615	24631
836.753	24757
836.891	24722
837.029	24696
837.167	24692
837.305	24646
837.443	24601
837.58	24566
837.718	24601
837.856	24608
837.993	24582
838.131	24559
838.269	24365
838.406	24452
838.544	24330
838.681	24121
838.819	24026
838.956	24049
839.094	24133
839.231	24003
839.369	24239
839.506	24452
839.643	24460
839.781	24015
839.918	24095
840.055	24034
840.193	24129
840.33	23961
840.467	24049
840.604	23965
840.742	24270
840.879	23851
841.016	23824
841.153	23958
841.29	24034
841.427	23897
841.564	23999
841.701	23942
841.838	24007
841.975	23821
842.112	23965
842.249	23676
842.385	23764
842.522	23984
842.659	23707
842.796	23653
842.933	23851
843.069	23691
843.206	23642
843.343	23786
843.479	23577
843.616	23543
843.752	23543
843.889	23512
844.025	23589
844.162	23497
844.298	23619
844.435	23414
844.571	23440
844.708	23436
844.844	23539
844.98	23623
845.117	23589
845.253	23406
845.389	23280
845.525	23261
845.661	23368
845.798	23155
845.934	23178
846.07	23200
846.206	23242
846.342	23410
846.478	23159
846.614	22930
846.75	22877
846.886	22915
847.022	23025
847.158	23041
847.294	22908
847.429	22972
847.565	22927
847.701	23162
847.837	22645
847.972	22656
848.108	22812
848.244	22755
848.379	22577
848.515	22519
848.65	22557
848.786	22481
848.921	22497
849.057	22721
849.192	22596
849.328	22565
849.463	22535
849.598	22440
849.734	22462
849.869	22367
850.004	22246
850.14	22226
850.275	22242
850.41	22253
850.545	22257
850.68	22196
850.815	22291
850.95	22166
851.085	22466
851.22	22333
851.355	22348
851.49	22390
851.625	22093
851.76	22306
851.895	22112
852.03	22158
852.165	22329
852.299	22306
852.434	22291
852.569	22310
852.703	22272
852.838	22348
852.973	22363
853.107	22337
853.242	22230
853.376	22200
853.511	22010
853.645	22131
853.78	22169
853.914	22063
854.048	21994
854.183	22177
854.317	21964
854.451	22265
854.585	22074
854.72	22105
854.854	22143
854.988	21968
855.122	22021
855.256	21968
855.39	22135
855.524	22177
855.658	22090
855.792	22097
855.926	22082
856.06	22166
856.194	22200
856.327	22082
856.461	22044
856.595	22032
856.729	22055
856.862	22284
856.996	22120
857.13	22109
857.263	22230
857.397	22101
857.53	22063
857.664	22166
857.797	22169
857.931	22154
858.064	22166
858.197	22219
858.331	22021
858.464	22048
858.597	21915
858.731	22006
858.864	22067
858.997	22044
859.13	22128
859.263	22086
859.396	22204
859.529	22063
859.662	21991
859.795	22017
859.928	22074
860.061	22249
860.194	22341
860.327	22139
860.46	22074
860.592	22204
860.725	22314
860.858	22192
860.99	22219
861.123	22131
861.256	22059
861.388	22112
861.521	22843
861.653	21994
861.786	21850
861.918	21964
862.05	22101
862.183	22128
862.315	21987
862.447	22120
862.58	21911
862.712	21827
862.844	21854
862.976	21892
863.108	21892
863.24	22154
863.372	21717
863.504	21831
863.636	21873
863.768	21869
863.9	21747
864.032	21781
864.164	21778
864.296	21926
864.428	21876
864.559	21892
864.691	21873
864.823	21903
864.954	21728
865.086	21762
865.217	21656
865.349	21504
865.48	21652
865.612	21717
865.743	21686
865.875	21785
866.006	21690
866.137	21625
866.269	21823
866.4	21736
866.531	21618
866.662	21496
866.793	21644
866.924	21587
867.055	21644
867.186	21629
867.317	21561
867.448	21492
867.579	21641
867.71	21458
867.841	21447
867.972	21504
868.103	21526
868.233	21603
868.364	21576
868.495	21625
868.625	21804
868.756	21880
868.886	21812
869.017	21876
869.147	21953
869.278	22055
869.408	21922
869.539	21838
869.669	21899
869.799	21911
869.929	21937
870.06	21892
870.19	22242
870.32	22185
870.45	22177
870.58	22318
870.71	22318
870.84	22428
870.97	22188
871.1	22253
871.23	22413
871.36	22516
871.489	22306
871.619	22421
871.749	22379
871.879	22462
872.008	22466
872.138	22527
872.267	22394
872.397	22276
872.526	22287
872.656	22211
872.785	22230
872.915	22523
873.044	22561
873.173	22356
873.303	22417
873.432	22519
873.561	22710
873.69	22402
873.819	22478
873.948	22535
874.077	22535
874.206	22489
874.335	22424
874.464	22592
874.593	22759
874.722	22630
874.851	22664
874.979	22634
875.108	22774
875.237	22767
875.365	22493
875.494	22603
875.623	22660
875.751	22702
875.88	22668
876.008	22786
876.136	22862
876.265	23102
876.393	23299
876.521	23090
876.65	23181
876.778	23109
876.906	22995
877.034	23052
877.162	22995
877.29	22927
877.418	23025
877.546	23132
877.674	22961
877.802	22991
877.93	23071
878.058	22961
878.185	22843
878.313	23041
878.441	22911
878.568	22877
878.696	22896
878.824	23094
878.951	23064
879.079	23060
879.206	23368
879.333	23200
879.461	23113
879.588	23067
879.715	23193
879.842	23322
879.97	23025
880.097	22854
880.224	22755
880.351	22892
880.478	22744
880.605	22965
880.732	22752
880.859	23025
880.986	22877
881.112	22908
881.239	22683
881.366	22550
881.493	22546
881.619	22512
881.746	22432
881.872	22443
881.999	22428
882.125	22322
882.252	22402
882.378	22291
882.505	22523
882.631	22181
882.757	22188
882.883	22128
883.01	22067
883.136	22006
883.262	21991
883.388	21918
883.514	22002
883.64	22204
883.766	22002
883.892	21778
884.018	21899
884.143	21953
884.269	22116
884.395	21739
884.52	21705
884.646	21736
884.772	21473
884.897	21599
885.023	21762
885.148	21755
885.274	21865
885.399	21656
885.524	21667
885.65	21808
885.775	21679
885.9	21694
886.025	21880
886.15	21743
886.275	21656
886.4	21675
886.525	21743
886.65	21698
886.775	21526
886.9	21953
887.025	21808
887.149	21572
887.274	21599
887.399	21545
887.523	21420
887.648	21538
887.773	21393
887.897	21526
888.021	21515
888.146	21336
888.27	21595
888.395	21599
888.519	21606
888.643	21542
888.767	21504
888.891	21302
889.015	21249
889.139	21454
889.263	21298
889.387	21431
889.511	21462
889.635	21492
889.759	21344
889.883	21211
890.006	21226
890.13	21367
890.254	21199
890.377	21150
890.501	21039
890.624	21032
890.748	21043
890.871	20876
890.995	20815
891.118	20758
891.241	20838
891.364	20944
891.488	21024
891.611	20727
891.734	20906
891.857	20925
891.98	20785
892.103	20864
892.226	20796
892.349	20838
892.471	20667
892.594	20777
892.717	20769
892.839	20724
892.962	20754
893.085	20765
893.207	20731
893.33	20621
893.452	20621
893.575	20834
893.697	20739
893.819	20777
893.941	20880
894.064	20864
894.186	20648
894.308	20663
894.43	20910
894.552	20826
894.674	20735
894.796	20693
894.918	20701
895.04	20724
895.161	20743
895.283	20701
895.405	20651
895.526	20670
895.648	20754
895.769	20720
895.891	20746
896.012	20739
896.134	20864
896.255	20834
896.376	20613
896.498	20632
896.619	20769
896.74	20640
896.861	20735
896.982	20967
897.103	21108
897.224	20948
897.345	20956
897.466	20967
897.587	20868
897.708	21013
897.828	21104
897.949	20849
898.07	20701
898.19	20769
898.311	20982
898.431	20834
898.552	20842
898.672	20914
898.792	21001
898.913	20880
899.033	20792
899.153	20720
899.273	20701
899.393	20590
899.513	20724
899.633	20701
899.753	20708
899.873	20632
899.993	20594
900.113	20583
900.232	20663
900.352	20583
900.472	20408
900.591	20431
900.711	20431
900.83	20408
900.95	20454
901.069	20492
901.189	20294
901.308	20058
901.427	19993
901.546	20012
901.665	19989
901.784	19974
901.904	19849
902.023	19814
902.141	19495
902.26	19624
902.379	19529
902.498	19457
902.617	19491
902.735	19563
902.854	19426
902.973	19362
903.091	19183
903.21	19156
903.328	19194
903.446	19190
903.565	18951
903.683	18962
903.801	18817
903.919	18848
904.038	18951
904.156	18806
904.274	18760
904.392	18783
904.51	18722
904.627	18730
904.745	18848
904.863	18787
904.981	18661
905.098	18422
905.216	18448
905.334	18426
905.451	18437
905.569	18410
905.686	18486
905.803	18376
905.921	18152
906.038	18273
906.155	18289
906.272	18125
906.389	18041
906.506	17942
906.623	18026
906.74	17973
906.857	17923
906.974	17893
907.091	17988
907.208	18079
907.324	17882
907.441	17775
907.557	17657
907.674	17676
907.79	17638
907.907	17596
908.023	17661
908.139	17615
908.256	17543
908.372	17589
908.488	17493
908.604	17421
908.72	17315
908.836	17402
908.952	17402
909.068	17383
909.184	17497
909.3	17284
909.415	17360
909.531	17292
909.647	17109
909.762	17105
909.878	17045
909.993	17151
910.108	17140
910.224	16911
910.339	17086
910.454	16854
910.57	16919
910.685	16797
910.8	17105
910.915	16995
911.03	16892
911.145	16630
911.259	16634
911.374	16558
911.489	16668
911.604	16424
911.718	16413
911.833	16390
911.947	16287
912.062	16215
912.176	16352
912.291	16276
912.405	16504
912.519	16603
912.633	16538
912.748	16474
912.862	16360
912.976	16249
913.09	16059
913.204	16150
913.318	16219
913.431	16276
913.545	16192
913.659	16276
913.772	16188
913.886	15968
914	15987
914.113	16162
914.226	16154
914.34	16093
914.453	15949
914.566	16029
914.68	15880
914.793	15789
914.906	15724
915.019	15610
915.132	15526
915.245	15561
915.358	15644
915.47	15584
915.583	15591
915.696	15580
915.809	15637
915.921	15732
916.034	15545
916.146	15454
916.259	15492
916.371	15496
916.483	15389
916.595	15397
916.708	15397
916.82	15412
916.932	15374
917.044	15336
917.156	15359
917.268	15218
917.38	15192
917.491	15310
917.603	15169
917.715	15268
917.826	15233
917.938	15184
918.049	15085
918.161	15138
918.272	15302
918.384	15287
918.495	15127
918.606	15036
918.717	14937
918.828	14956
918.939	15074
919.05	14788
919.161	15001
919.272	14792
919.383	14872
919.494	14963
919.604	15154
919.715	14971
919.826	14811
919.936	14933
920.047	14921
920.157	14788
920.267	15070
920.378	14944
920.488	14800
920.598	14994
920.708	15146
920.818	15074
920.928	15036
921.038	15287
921.148	15252
921.258	14918
921.368	14819
921.477	14678
921.587	14579
921.697	14526
921.806	14648
921.916	14469
922.025	14332
922.134	14385
922.244	14259
922.353	14351
922.462	14199
922.571	14092
922.68	13967
922.789	13906
922.898	13978
923.007	13963
923.116	13947
923.224	13921
923.333	13776
923.442	13811
923.55	13681
923.659	13887
923.767	13807
923.876	13700
923.984	13742
924.092	13670
924.201	13784
924.309	13609
924.417	13624
924.525	13601
924.633	13662
924.741	14507
924.849	13365
924.956	13502
925.064	13438
925.172	13312
925.279	13259
925.387	13388
925.494	13308
925.602	13434
925.709	13388
925.816	13240
925.924	13240
926.031	13339
926.138	13320
926.245	13228
926.352	13183
926.459	13255
926.566	13320
926.673	13209
926.779	13061
926.886	12951
926.993	12924
927.099	12905
927.206	12886
927.312	12802
927.419	12905
927.525	12837
927.631	12913
927.737	12787
927.843	12700
927.95	12627
928.056	12623
928.162	12696
928.267	12726
928.373	13255
928.479	12760
928.585	12506
928.69	12601
928.796	12829
928.901	12566
929.007	12410
929.112	12414
929.218	12486
929.323	12532
929.428	12490
929.533	12570
929.638	12357
929.743	12407
929.848	12460
929.953	12266
930.058	12239
930.163	12079
930.267	12068
930.372	12171
930.477	12041
930.581	12311
930.685	12175
930.79	11973
930.894	11977
930.998	11942
931.103	12095
931.207	11710
931.311	11608
931.415	11554
931.519	11395
931.623	11334
