Data from test_V78500241_1841.txt Node
Date: Fri Mar 25 15:54:33 CST 2022
User: usil
Spectrometer: V785-0024
Trigger mode: 0
Integration Time (sec): 4.000000E-1
Scans to average: 1
Nonlinearity correction enabled: false
Boxcar width: 0
Storing dark spectrum: false
XAxis mode: Wavelengths
Number of Pixels in Spectrum: 1024
>>>>>Begin Spectral Data<<<<<
801.071	28489
801.214	28466
801.356	28223
801.499	28223
801.641	27884
801.783	28040
801.926	28044
802.068	27968
802.211	27861
802.353	27865
802.496	27648
802.638	27667
802.78	27583
802.923	27580
803.065	27530
803.208	27481
803.35	27766
803.492	27724
803.635	27835
803.777	27755
803.919	28025
804.061	28215
804.204	27953
804.346	27842
804.488	27766
804.63	27880
804.773	27789
804.915	27987
805.057	27953
805.199	27747
805.341	27972
805.483	28158
805.626	27854
805.768	27968
805.91	28093
806.052	28128
806.194	27899
806.336	28306
806.478	27945
806.62	28070
806.762	28226
806.904	28253
807.046	28523
807.188	28516
807.33	28504
807.472	28615
807.614	28443
807.756	28421
807.898	28314
808.04	28253
808.182	28265
808.324	28557
808.465	28481
808.607	28535
808.749	28710
808.891	28755
809.033	28835
809.174	28828
809.316	28679
809.458	28592
809.6	28641
809.741	28733
809.883	28854
810.025	29006
810.166	29064
810.308	29018
810.45	28923
810.591	28839
810.733	28816
810.875	28805
811.016	28626
811.158	28626
811.299	28831
811.441	29041
811.582	28942
811.724	28622
811.865	28767
812.007	28679
812.148	28744
812.29	28763
812.431	28812
812.573	28949
812.714	29060
812.855	29204
812.997	29200
813.138	29444
813.279	29322
813.421	29269
813.562	29208
813.703	28888
813.845	28927
813.986	28729
814.127	28618
814.268	28424
814.41	28398
814.551	28459
814.692	28474
814.833	28348
814.974	28455
815.115	28318
815.256	28299
815.397	28318
815.539	28188
815.68	28162
815.821	28158
815.962	28101
816.103	28215
816.244	28044
816.385	27937
816.526	28070
816.666	27842
816.807	27781
816.948	27675
817.089	27865
817.23	27698
817.371	27641
817.512	27652
817.653	27686
817.793	27656
817.934	27724
818.075	27561
818.216	27690
818.356	27572
818.497	27656
818.638	27431
818.778	27488
818.919	27496
819.06	27473
819.2	27679
819.341	27599
819.481	27576
819.622	27865
819.762	28048
819.903	27960
820.043	27941
820.184	27850
820.324	27850
820.465	27808
820.605	27800
820.746	27728
820.886	27667
821.026	27720
821.167	27743
821.307	27865
821.447	27644
821.588	27812
821.728	27580
821.868	27298
822.008	27104
822.149	27047
822.289	27074
822.429	26902
822.569	26895
822.709	26785
822.849	26594
822.99	26769
823.13	26678
823.27	26670
823.41	26575
823.55	26412
823.69	26522
823.83	26492
823.97	26461
824.11	26324
824.25	26355
824.389	26317
824.529	26434
824.669	26415
824.809	26423
824.949	26484
825.089	26393
825.228	26465
825.368	26138
825.508	26107
825.648	26320
825.787	26256
825.927	26240
826.067	26313
826.206	26062
826.346	26218
826.485	26233
826.625	26191
826.765	26206
826.904	26191
827.044	25944
827.183	26039
827.323	25966
827.462	25887
827.601	25799
827.741	25947
827.88	26058
828.02	25921
828.159	25871
828.298	25955
828.437	26088
828.577	25795
828.716	26043
828.855	25909
828.994	25791
829.134	25613
829.273	25609
829.412	25613
829.551	25533
829.69	25590
829.829	25677
829.968	25772
830.107	25731
830.246	25635
830.385	25521
830.524	25552
830.663	25377
830.802	25320
830.941	25168
831.08	25118
831.219	25194
831.357	25400
831.496	25396
831.635	25209
831.774	25080
831.913	25308
832.051	25050
832.19	24966
832.329	25088
832.467	24935
832.606	24856
832.744	24890
832.883	24837
833.022	24852
833.16	24890
833.299	24867
833.437	24977
833.576	24905
833.714	24954
833.852	24966
833.991	24973
834.129	24985
834.267	25023
834.406	25038
834.544	25015
834.682	24973
834.821	24878
834.959	25187
835.097	24825
835.235	25031
835.373	24928
835.511	24806
835.65	24719
835.788	24962
835.926	24665
836.064	24509
836.202	24585
836.34	24798
836.478	24772
836.615	24692
836.753	24798
836.891	25034
837.029	24684
837.167	24642
837.305	24681
837.443	24448
837.58	24635
837.718	24547
837.856	24684
837.993	24505
838.131	24700
838.269	24525
838.406	24582
838.544	24350
838.681	24266
838.819	24311
838.956	23999
839.094	24148
839.231	24163
839.369	24220
839.506	24578
839.643	24300
839.781	24083
839.918	23916
840.055	24076
840.193	23965
840.33	23931
840.467	23935
840.604	23980
840.742	24285
840.879	23920
841.016	23897
841.153	23965
841.29	24159
841.427	24171
841.564	23847
841.701	23969
841.838	23916
841.975	23828
842.112	23809
842.249	23790
842.385	23748
842.522	24011
842.659	23790
842.796	23745
842.933	23722
843.069	23653
843.206	23798
843.343	23775
843.479	23703
843.616	23817
843.752	23570
843.889	23501
844.025	23592
844.162	23360
844.298	23547
844.435	23452
844.571	23459
844.708	23531
844.844	23646
844.98	23790
845.117	23619
845.253	23429
845.389	23334
845.525	23429
845.661	23353
845.798	23311
845.934	23159
846.07	23162
846.206	23322
846.342	23364
846.478	23166
846.614	23014
846.75	22831
846.886	22972
847.022	23124
847.158	22995
847.294	23041
847.429	22984
847.565	22999
847.701	23189
847.837	22622
847.972	22611
848.108	22759
848.244	22778
848.379	22519
848.515	22580
848.65	22584
848.786	22611
848.921	22516
849.057	22592
849.192	22554
849.328	22626
849.463	22626
849.598	22538
849.734	22504
849.869	22451
850.004	22329
850.14	22386
850.275	22436
850.41	22291
850.545	22306
850.68	22375
850.815	22375
850.95	22291
851.085	22531
851.22	22402
851.355	22352
851.49	22329
851.625	22303
851.76	22272
851.895	22192
852.03	22246
852.165	22348
852.299	22386
852.434	22333
852.569	22356
852.703	22230
852.838	22417
852.973	22428
853.107	22519
853.242	22276
853.376	22219
853.511	22021
853.645	22166
853.78	22200
853.914	22105
854.048	22017
854.183	22101
854.317	22215
854.451	22272
854.585	22192
854.72	22272
854.854	22192
854.988	22074
855.122	22112
855.256	22010
855.39	22010
855.524	22230
855.658	22207
855.792	22181
855.926	22128
856.06	22261
856.194	22295
856.327	22082
856.461	21949
856.595	22128
856.729	22044
856.862	22348
856.996	22082
857.13	22188
857.263	22207
857.397	22154
857.53	22211
857.664	22265
857.797	22192
857.931	22181
858.064	22192
858.197	22268
858.331	22078
858.464	22093
858.597	22021
858.731	22093
858.864	22063
858.997	22177
859.13	22295
859.263	22204
859.396	22215
859.529	22215
859.662	22139
859.795	22097
859.928	22215
860.061	22181
860.194	22394
860.327	22196
860.46	22162
860.592	22325
860.725	22356
860.858	22173
860.99	22207
861.123	22029
861.256	22120
861.388	22192
861.521	22877
861.653	21960
861.786	21861
861.918	21953
862.05	22082
862.183	22120
862.315	22101
862.447	22063
862.58	21918
862.712	21861
862.844	21770
862.976	22051
863.108	21880
863.24	22265
863.372	21736
863.504	21781
863.636	21797
863.768	21930
863.9	21751
864.032	21770
864.164	21785
864.296	21876
864.428	21949
864.559	21956
864.691	21873
864.823	21903
864.954	21850
865.086	21876
865.217	21835
865.349	21671
865.48	21644
865.612	21755
865.743	21892
865.875	21861
866.006	21614
866.137	21732
866.269	21614
866.4	21709
866.531	21686
866.662	21717
866.793	21629
866.924	21591
867.055	21637
867.186	21736
867.317	21622
867.448	21439
867.579	21614
867.71	21595
867.841	21523
867.972	21694
868.103	21629
868.233	21698
868.364	21732
868.495	21667
868.625	21915
868.756	21964
868.886	21850
869.017	21895
869.147	21915
869.278	21994
869.408	21960
869.539	21857
869.669	22013
869.799	21991
869.929	22021
870.06	22059
870.19	22204
870.32	22219
870.45	22386
870.58	22325
870.71	22314
870.84	22341
870.97	22169
871.1	22394
871.23	22268
871.36	22382
871.489	22390
871.619	22459
871.749	22497
871.879	22466
872.008	22546
872.138	22481
872.267	22489
872.397	22402
872.526	22337
872.656	22299
872.785	22348
872.915	22557
873.044	22489
873.173	22466
873.303	22440
873.432	22607
873.561	22599
873.69	22474
873.819	22447
873.948	22603
874.077	22569
874.206	22489
874.335	22516
874.464	22596
874.593	22793
874.722	22687
874.851	22615
874.979	22869
875.108	22809
875.237	22778
875.365	22626
875.494	22759
875.623	22809
875.751	22645
875.88	22717
876.008	22797
876.136	22915
876.265	23037
876.393	23212
876.521	23185
876.65	23155
876.778	23155
876.906	22984
877.034	23109
877.162	23109
877.29	22991
877.418	23094
877.546	23098
877.674	23197
877.802	22991
877.93	23086
878.058	23018
878.185	22923
878.313	23128
878.441	23014
878.568	22984
878.696	22991
878.824	23056
878.951	23128
879.079	23277
879.206	23356
879.333	23170
879.461	23060
879.588	23208
879.715	23250
879.842	23341
879.97	23079
880.097	22968
880.224	22778
880.351	22927
880.478	22858
880.605	22930
880.732	22805
880.859	23075
880.986	22850
881.112	22968
881.239	22793
881.366	22653
881.493	22577
881.619	22367
881.746	22455
881.872	22352
881.999	22516
882.125	22352
882.252	22542
882.378	22451
882.505	22542
882.631	22303
882.757	22063
882.883	22291
883.01	22219
883.136	22162
883.262	22010
883.388	21979
883.514	22257
883.64	22211
883.766	22112
883.892	21903
884.018	21907
884.143	22177
884.269	22185
884.395	21911
884.52	21789
884.646	21899
884.772	21759
884.897	21663
885.023	21781
885.148	21808
885.274	21926
885.399	21823
885.524	21838
885.65	21701
885.775	21682
885.9	21762
886.025	21857
886.15	21835
886.275	21690
886.4	21720
886.525	21770
886.65	21682
886.775	21709
886.9	21827
887.025	22048
887.149	21743
887.274	21572
887.399	21717
887.523	21504
887.648	21507
887.773	21374
887.897	21690
888.021	21507
888.146	21447
888.27	21633
888.395	21682
888.519	21473
888.643	21568
888.767	21496
888.891	21416
889.015	21431
889.139	21340
889.263	21367
889.387	21435
889.511	21545
889.635	21481
889.759	21374
889.883	21310
890.006	21226
890.13	21428
890.254	21165
890.377	21344
890.501	21032
890.624	20986
890.748	21161
890.871	20941
890.995	20811
891.118	20830
891.241	21009
891.364	20937
891.488	20937
891.611	20853
891.734	20861
891.857	20853
891.98	20906
892.103	20933
892.226	20849
892.349	20876
892.471	20697
892.594	20826
892.717	20785
892.839	20788
892.962	20796
893.085	20979
893.207	20830
893.33	20724
893.452	20815
893.575	20712
893.697	20754
893.819	20887
893.941	21039
894.064	20906
894.186	20758
894.308	20678
894.43	20826
894.552	20952
894.674	20838
894.796	20568
894.918	20689
895.04	20720
895.161	20746
895.283	20853
895.405	20769
895.526	20777
895.648	20625
895.769	20769
895.891	20872
896.012	20857
896.134	20815
896.255	20785
896.376	20796
896.498	20788
896.619	20777
896.74	20758
896.861	20921
896.982	21058
897.103	21154
897.224	21009
897.345	20963
897.466	20910
897.587	21043
897.708	21112
897.828	20979
897.949	20967
898.07	20853
898.19	20906
898.311	21173
898.431	20861
898.552	21017
898.672	21066
898.792	20979
898.913	20971
899.033	20857
899.153	20686
899.273	20678
899.393	20746
899.513	20731
899.633	20765
899.753	20663
899.873	20606
899.993	20750
900.113	20724
900.232	20632
900.352	20750
900.472	20575
900.591	20511
900.711	20526
900.83	20450
900.95	20606
901.069	20552
901.189	20317
901.308	20229
901.427	20134
901.546	20050
901.665	20062
901.784	20153
901.904	19963
902.023	19803
902.141	19578
902.26	19518
902.379	19632
902.498	19540
902.617	19575
902.735	19639
902.854	19483
902.973	19453
903.091	19240
903.21	19129
903.328	19244
903.446	19152
903.565	19133
903.683	19008
903.801	18863
903.919	18916
904.038	18886
904.156	18795
904.274	18810
904.392	18711
904.51	18795
904.627	18745
904.745	18829
904.863	18768
904.981	18608
905.098	18429
905.216	18410
905.334	18414
905.451	18441
905.569	18426
905.686	18490
905.803	18513
905.921	18311
906.038	18445
906.155	18277
906.272	18163
906.389	18167
906.506	18022
906.623	17958
906.74	17996
906.857	17855
906.974	17897
907.091	17942
907.208	18057
907.324	17999
907.441	17946
907.557	17824
907.674	17676
907.79	17657
907.907	17726
908.023	17687
908.139	17760
908.256	17592
908.372	17638
908.488	17539
908.604	17482
908.72	17440
908.836	17387
908.952	17341
909.068	17353
909.184	17501
909.3	17433
909.415	17459
909.531	17349
909.647	17181
909.762	17147
909.878	17060
909.993	17143
910.108	17189
910.224	17045
910.339	17147
910.454	16972
910.57	16991
910.685	16877
910.8	17086
910.915	17060
911.03	17025
911.145	16736
911.259	16736
911.374	16599
911.489	16683
911.604	16599
911.718	16386
911.833	16432
911.947	16318
912.062	16242
912.176	16462
912.291	16413
912.405	16417
912.519	16626
912.633	16599
912.748	16440
912.862	16310
912.976	16257
913.09	16090
913.204	16215
913.318	16314
913.431	16367
913.545	16284
913.659	16249
913.772	16131
913.886	16078
914	16029
914.113	16150
914.226	16154
914.34	16013
914.453	16010
914.566	16055
914.68	15876
914.793	15926
914.906	15846
915.019	15591
915.132	15572
915.245	15610
915.358	15622
915.47	15614
915.583	15587
915.696	15663
915.809	15732
915.921	15698
916.034	15606
916.146	15458
916.259	15587
916.371	15591
916.483	15519
916.595	15523
916.708	15458
916.82	15439
916.932	15359
917.044	15526
917.156	15382
917.268	15195
917.38	15283
917.491	15203
917.603	15199
917.715	15306
917.826	15336
917.938	15195
918.049	15127
918.161	15180
918.272	15291
918.384	15233
918.495	15176
918.606	15013
918.717	14956
918.828	15001
918.939	15001
919.05	15005
919.161	15081
919.272	14746
919.383	14872
919.494	15074
919.604	15211
919.715	15047
919.826	14868
919.936	15051
920.047	15005
920.157	14994
920.267	15169
920.378	14944
920.488	14910
920.598	15131
920.708	15260
920.818	15104
920.928	15070
921.038	15260
921.148	15192
921.258	14849
921.368	14815
921.477	14689
921.587	14727
921.697	14533
921.806	14758
921.916	14602
922.025	14461
922.134	14313
922.244	14431
922.353	14419
922.462	14168
922.571	14119
922.68	14027
922.789	13871
922.898	13989
923.007	13871
923.116	13921
923.224	13890
923.333	13951
923.442	13780
923.55	13803
923.659	13765
923.767	13894
923.876	13677
923.984	13769
924.092	13590
924.201	13734
924.309	13757
924.417	13677
924.525	13537
924.633	13632
924.741	14434
924.849	13476
924.956	13521
925.064	13407
925.172	13331
925.279	13362
925.387	13411
925.494	13388
925.602	13495
925.709	13464
925.816	13335
925.924	13320
926.031	13392
926.138	13221
926.245	13236
926.352	13190
926.459	13346
926.566	13289
926.673	13240
926.779	13156
926.886	13069
926.993	12947
927.099	12958
927.206	12867
927.312	12939
927.419	12932
927.525	12825
927.631	13012
927.737	12867
927.843	12738
927.95	12623
928.056	12665
928.162	12749
928.267	12692
928.373	13316
928.479	12821
928.585	12589
928.69	12662
928.796	12692
928.901	12540
929.007	12353
929.112	12623
929.218	12555
929.323	12437
929.428	12426
929.533	12456
929.638	12395
929.743	12388
929.848	12433
929.953	12315
930.058	12319
930.163	12049
930.267	12136
930.372	12323
930.477	12136
930.581	12330
930.685	12175
930.79	11942
930.894	12003
930.998	12076
931.103	12133
931.207	11672
931.311	11642
931.415	11630
931.519	11402
931.623	11353
