Data from test_V78500241_1004.txt Node
Date: Fri Mar 25 15:48:45 CST 2022
User: usil
Spectrometer: V785-0024
Trigger mode: 0
Integration Time (sec): 4.000000E-1
Scans to average: 1
Nonlinearity correction enabled: false
Boxcar width: 0
Storing dark spectrum: false
XAxis mode: Wavelengths
Number of Pixels in Spectrum: 1024
>>>>>Begin Spectral Data<<<<<
801.071	28379
801.214	28436
801.356	28029
801.499	27869
801.641	27816
801.783	28006
801.926	27861
802.068	27838
802.211	27869
802.353	27637
802.496	27557
802.638	27538
802.78	27507
802.923	27557
803.065	27542
803.208	27549
803.35	27591
803.492	27682
803.635	27751
803.777	27637
803.919	27838
804.061	28070
804.204	27884
804.346	27686
804.488	27713
804.63	27759
804.773	27606
804.915	27724
805.057	27956
805.199	27701
805.341	27892
805.483	28051
805.626	27960
805.768	27793
805.91	27854
806.052	28013
806.194	27797
806.336	28162
806.478	27888
806.62	27937
806.762	28029
806.904	28276
807.046	28485
807.188	28325
807.33	28367
807.472	28428
807.614	28318
807.756	28405
807.898	28268
808.04	28242
808.182	28173
808.324	28363
808.465	28394
808.607	28516
808.749	28630
808.891	28782
809.033	28835
809.174	28569
809.316	28531
809.458	28508
809.6	28584
809.741	28679
809.883	28691
810.025	28790
810.166	28942
810.308	28923
810.45	28866
810.591	28801
810.733	28565
810.875	28706
811.016	28584
811.158	28584
811.299	28809
811.441	28869
811.582	28812
811.724	28656
811.865	28725
812.007	28653
812.148	28599
812.29	28797
812.431	28976
812.573	28938
812.714	28972
812.855	29322
812.997	29239
813.138	29250
813.279	29322
813.421	29303
813.562	29124
813.703	29048
813.845	28965
813.986	28668
814.127	28538
814.268	28382
814.41	28379
814.551	28329
814.692	28417
814.833	28295
814.974	28413
815.115	28367
815.256	28207
815.397	28166
815.539	28059
815.68	28105
815.821	28021
815.962	27998
816.103	28093
816.244	27918
816.385	27857
816.526	27914
816.666	27724
816.807	27591
816.948	27667
817.089	27755
817.23	27633
817.371	27671
817.512	27724
817.653	27507
817.793	27610
817.934	27701
818.075	27747
818.216	27713
818.356	27637
818.497	27485
818.638	27370
818.778	27492
818.919	27401
819.06	27439
819.2	27500
819.341	27553
819.481	27793
819.622	27797
819.762	27956
819.903	27679
820.043	27869
820.184	27869
820.324	27743
820.465	27972
820.605	27701
820.746	27747
820.886	27686
821.026	27850
821.167	27759
821.307	27766
821.447	27705
821.588	27545
821.728	27481
821.868	27367
822.008	27116
822.149	27085
822.289	27039
822.429	26948
822.569	26807
822.709	26731
822.849	26708
822.99	26659
823.13	26655
823.27	26697
823.41	26568
823.55	26305
823.69	26336
823.83	26495
823.97	26526
824.11	26309
824.25	26168
824.389	26351
824.529	26290
824.669	26317
824.809	26431
824.949	26366
825.089	26438
825.228	26473
825.368	26130
825.508	26073
825.648	26210
825.787	26305
825.927	26336
826.067	26157
826.206	26107
826.346	26172
826.485	26309
826.625	26111
826.765	26267
826.904	26206
827.044	26020
827.183	25894
827.323	25830
827.462	26024
827.601	25909
827.741	25712
827.88	25879
828.02	25731
828.159	25788
828.298	25852
828.437	26050
828.577	25803
828.716	26069
828.855	25909
828.994	25548
829.134	25586
829.273	25677
829.412	25597
829.551	25491
829.69	25377
829.829	25765
829.968	25708
830.107	25518
830.246	25643
830.385	25571
830.524	25506
830.663	25491
830.802	25247
830.941	25213
831.08	25088
831.219	25384
831.357	25266
831.496	25343
831.635	25278
831.774	25031
831.913	25008
832.051	25042
832.19	24981
832.329	24829
832.467	24821
832.606	24764
832.744	24795
832.883	24867
833.022	24772
833.16	24890
833.299	24856
833.437	24844
833.576	24825
833.714	24996
833.852	25038
833.991	25019
834.129	24992
834.267	24852
834.406	25015
834.544	24943
834.682	24821
834.821	24859
834.959	25019
835.097	24840
835.235	24897
835.373	24817
835.511	24939
835.65	24741
835.788	24856
835.926	24707
836.064	24597
836.202	24570
836.34	24760
836.478	24886
836.615	24661
836.753	24661
836.891	24779
837.029	24852
837.167	24620
837.305	24764
837.443	24532
837.58	24498
837.718	24654
837.856	24559
837.993	24498
838.131	24578
838.269	24448
838.406	24426
838.544	24220
838.681	24155
838.819	24224
838.956	24087
839.094	23935
839.231	24095
839.369	24159
839.506	24437
839.643	24247
839.781	24038
839.918	23973
840.055	24011
840.193	24049
840.33	23916
840.467	23980
840.604	24068
840.742	24213
840.879	23855
841.016	23851
841.153	23878
841.29	24057
841.427	23813
841.564	24007
841.701	23958
841.838	23851
841.975	23783
842.112	23885
842.249	23767
842.385	23684
842.522	23836
842.659	23855
842.796	23638
842.933	23707
843.069	23695
843.206	23691
843.343	23733
843.479	23737
843.616	23745
843.752	23497
843.889	23406
844.025	23509
844.162	23467
844.298	23433
844.435	23520
844.571	23337
844.708	23322
844.844	23710
844.98	23566
845.117	23562
845.253	23486
845.389	23349
845.525	23303
845.661	23345
845.798	23136
845.934	23231
846.07	23056
846.206	23159
846.342	23353
846.478	23200
846.614	22957
846.75	22946
846.886	22858
847.022	22968
847.158	22987
847.294	22908
847.429	22976
847.565	22877
847.701	23121
847.837	22771
847.972	22584
848.108	22809
848.244	22763
848.379	22592
848.515	22462
848.65	22424
848.786	22599
848.921	22603
849.057	22588
849.192	22634
849.328	22557
849.463	22481
849.598	22474
849.734	22379
849.869	22466
850.004	22249
850.14	22268
850.275	22200
850.41	22166
850.545	22230
850.68	22173
850.815	22276
850.95	22379
851.085	22363
851.22	22291
851.355	22265
851.49	22287
851.625	22158
851.76	22238
851.895	22116
852.03	22112
852.165	22196
852.299	22246
852.434	22291
852.569	22337
852.703	22253
852.838	22367
852.973	22417
853.107	22352
853.242	22284
853.376	22196
853.511	21998
853.645	22013
853.78	22253
853.914	21949
854.048	22086
854.183	22032
854.317	22082
854.451	22215
854.585	22036
854.72	22059
854.854	22143
854.988	22021
855.122	22036
855.256	21953
855.39	21991
855.524	22070
855.658	22116
855.792	22109
855.926	22093
856.06	22200
856.194	22185
856.327	22070
856.461	22051
856.595	22116
856.729	22063
856.862	22143
856.996	22128
857.13	22204
857.263	22135
857.397	22257
857.53	21953
857.664	22280
857.797	22135
857.931	22173
858.064	22097
858.197	22185
858.331	22093
858.464	22074
858.597	22025
858.731	22029
858.864	22097
858.997	22040
859.13	22044
859.263	22063
859.396	22246
859.529	22036
859.662	22051
859.795	21953
859.928	22147
860.061	22261
860.194	22314
860.327	22185
860.46	22230
860.592	22192
860.725	22379
860.858	22116
860.99	22090
861.123	22128
861.256	22040
861.388	22048
861.521	22850
861.653	21994
861.786	21994
861.918	21968
862.05	22029
862.183	22158
862.315	22109
862.447	22139
862.58	21960
862.712	21789
862.844	21751
862.976	21911
863.108	21854
863.24	22196
863.372	21835
863.504	21694
863.636	21770
863.768	21739
863.9	21899
864.032	21660
864.164	21720
864.296	21819
864.428	21899
864.559	21743
864.691	21793
864.823	21755
864.954	21743
865.086	21846
865.217	21667
865.349	21686
865.48	21568
865.612	21857
865.743	21743
865.875	21701
866.006	21644
866.137	21644
866.269	21686
866.4	21622
866.531	21614
866.662	21641
866.793	21625
866.924	21610
867.055	21679
867.186	21576
867.317	21603
867.448	21481
867.579	21717
867.71	21507
867.841	21435
867.972	21583
868.103	21538
868.233	21610
868.364	21656
868.495	21675
868.625	21778
868.756	21983
868.886	21930
869.017	21953
869.147	22040
869.278	21972
869.408	21873
869.539	21850
869.669	21941
869.799	21895
869.929	21945
870.06	22013
870.19	22112
870.32	21964
870.45	22181
870.58	22242
870.71	22314
870.84	22348
870.97	22341
871.1	22169
871.23	22443
871.36	22565
871.489	22352
871.619	22413
871.749	22607
871.879	22432
872.008	22500
872.138	22417
872.267	22440
872.397	22261
872.526	22261
872.656	22356
872.785	22280
872.915	22497
873.044	22607
873.173	22474
873.303	22512
873.432	22413
873.561	22580
873.69	22386
873.819	22489
873.948	22527
874.077	22379
874.206	22455
874.335	22417
874.464	22481
874.593	22615
874.722	22668
874.851	22691
874.979	22691
875.108	22812
875.237	22797
875.365	22580
875.494	22733
875.623	22641
875.751	22580
875.88	22577
876.008	22824
876.136	22778
876.265	23014
876.393	23235
876.521	23113
876.65	23223
876.778	23105
876.906	23064
877.034	23121
877.162	22942
877.29	22885
877.418	23033
877.546	22946
877.674	23060
877.802	23079
877.93	23075
878.058	22972
878.185	22820
878.313	23006
878.441	23041
878.568	22790
878.696	23143
878.824	23071
878.951	23159
879.079	23052
879.206	23242
879.333	23121
879.461	23105
879.588	23025
879.715	23181
879.842	23231
879.97	23022
880.097	22877
880.224	22942
880.351	22927
880.478	22805
880.605	22801
880.732	22816
880.859	23083
880.986	22755
881.112	22733
881.239	22797
881.366	22538
881.493	22470
881.619	22603
881.746	22535
881.872	22413
881.999	22382
882.125	22363
882.252	22516
882.378	22447
882.505	22497
882.631	22253
882.757	22040
882.883	22078
883.01	22086
883.136	22120
883.262	21930
883.388	21994
883.514	22120
883.64	22143
883.766	22139
883.892	21903
884.018	21888
884.143	22036
884.269	22120
884.395	21797
884.52	21747
884.646	21911
884.772	21698
884.897	21603
885.023	21823
885.148	21934
885.274	21895
885.399	21759
885.524	21724
885.65	21831
885.775	21781
885.9	21614
886.025	21823
886.15	21804
886.275	21511
886.4	21648
886.525	21606
886.65	21614
886.775	21599
886.9	21895
887.025	21831
887.149	21759
887.274	21561
887.399	21652
887.523	21447
887.648	21367
887.773	21481
887.897	21663
888.021	21530
888.146	21511
888.27	21564
888.395	21622
888.519	21583
888.643	21492
888.767	21564
888.891	21321
889.015	21230
889.139	21218
889.263	21291
889.387	21359
889.511	21488
889.635	21386
889.759	21135
889.883	21214
890.006	21321
890.13	21344
890.254	21214
890.377	21154
890.501	21047
890.624	21116
890.748	21127
890.871	20899
890.995	20864
891.118	20743
891.241	20838
891.364	20891
891.488	20876
891.611	20807
891.734	20891
891.857	20910
891.98	20777
892.103	20769
892.226	20834
892.349	20773
892.471	20659
892.594	20769
892.717	20849
892.839	20746
892.962	20826
893.085	20864
893.207	20739
893.33	20682
893.452	20689
893.575	20659
893.697	20689
893.819	20929
893.941	20929
894.064	20906
894.186	20670
894.308	20712
894.43	20750
894.552	20880
894.674	20804
894.796	20579
894.918	20743
895.04	20625
895.161	20811
895.283	20826
895.405	20720
895.526	20731
895.648	20807
895.769	20739
895.891	20826
896.012	20891
896.134	20861
896.255	20701
896.376	20670
896.498	20743
896.619	20765
896.74	20697
896.861	20796
896.982	21108
897.103	21241
897.224	21009
897.345	20982
897.466	20902
897.587	20971
897.708	21112
897.828	21028
897.949	20963
898.07	20830
898.19	20811
898.311	21013
898.431	20910
898.552	20864
898.672	21017
898.792	21051
898.913	20929
899.033	20891
899.153	20674
899.273	20617
899.393	20693
899.513	20788
899.633	20667
899.753	20659
899.873	20659
899.993	20689
900.113	20670
900.232	20674
900.352	20655
900.472	20560
900.591	20419
900.711	20484
900.83	20381
900.95	20533
901.069	20587
901.189	20370
901.308	20142
901.427	19989
901.546	19944
901.665	19906
901.784	20005
901.904	19849
902.023	19833
902.141	19518
902.26	19639
902.379	19597
902.498	19499
902.617	19499
902.735	19544
902.854	19518
902.973	19529
903.091	19259
903.21	19202
903.328	19065
903.446	19137
903.565	19114
903.683	19061
903.801	18920
903.919	18886
904.038	19012
904.156	18741
904.274	18856
904.392	18749
904.51	18574
904.627	18726
904.745	18871
904.863	18802
904.981	18509
905.098	18601
905.216	18426
905.334	18448
905.451	18410
905.569	18403
905.686	18376
905.803	18410
905.921	18186
906.038	18292
906.155	18190
906.272	18114
906.389	18323
906.506	17977
906.623	18076
906.74	17927
906.857	17897
906.974	17878
907.091	17859
907.208	17958
907.324	17870
907.441	17893
907.557	17741
907.674	17707
907.79	17630
907.907	17680
908.023	17699
908.139	17535
908.256	17600
908.372	17528
908.488	17562
908.604	17387
908.72	17334
908.836	17334
908.952	17455
909.068	17376
909.184	17414
909.3	17360
909.415	17463
909.531	17341
909.647	17143
909.762	17117
909.878	17090
909.993	17181
910.108	17060
910.224	17079
910.339	17064
910.454	16866
910.57	16767
910.685	16790
910.8	16976
910.915	17014
911.03	16900
911.145	16668
911.259	16694
911.374	16660
911.489	16565
911.604	16630
911.718	16417
911.833	16436
911.947	16375
912.062	16246
912.176	16417
912.291	16497
912.405	16481
912.519	16558
912.633	16554
912.748	16344
912.862	16344
912.976	16219
913.09	16101
913.204	16166
913.318	16169
913.431	16261
913.545	16333
913.659	16310
913.772	16105
913.886	16086
914	16063
914.113	15975
914.226	16078
914.34	16192
914.453	15876
914.566	16059
914.68	15892
914.793	15816
914.906	15542
915.019	15595
915.132	15599
915.245	15561
915.358	15606
915.47	15637
915.583	15679
915.696	15637
915.809	15755
915.921	15739
916.034	15606
916.146	15462
916.259	15561
916.371	15561
916.483	15515
916.595	15431
916.708	15462
916.82	15462
916.932	15332
917.044	15408
917.156	15416
917.268	15142
917.38	15188
917.491	15283
917.603	15214
917.715	15173
917.826	15321
917.938	15157
918.049	15009
918.161	15203
918.272	15310
918.384	15294
918.495	15146
918.606	14956
918.717	14895
918.828	14948
918.939	14990
919.05	14910
919.161	14956
919.272	14804
919.383	14735
919.494	15001
919.604	15169
919.715	14834
919.826	14883
919.936	14921
920.047	15062
920.157	14910
920.267	15047
920.378	14956
920.488	14982
920.598	15123
920.708	15218
920.818	15180
920.928	15005
921.038	15199
921.148	15169
921.258	14823
921.368	14765
921.477	14708
921.587	14693
921.697	14446
921.806	14670
921.916	14503
922.025	14317
922.134	14256
922.244	14286
922.353	14393
922.462	14168
922.571	14058
922.68	13993
922.789	13951
922.898	13947
923.007	13852
923.116	13925
923.224	13917
923.333	13978
923.442	13772
923.55	13704
923.659	13731
923.767	13883
923.876	13715
923.984	13803
924.092	13677
924.201	13655
924.309	13636
924.417	13651
924.525	13559
924.633	13529
924.741	14568
924.849	13369
924.956	13681
925.064	13384
925.172	13297
925.279	13316
925.387	13434
925.494	13335
925.602	13396
925.709	13369
925.816	13213
925.924	13270
926.031	13369
926.138	13346
926.245	13190
926.352	13168
926.459	13187
926.566	13297
926.673	13175
926.779	13084
926.886	13080
926.993	12897
927.099	12939
927.206	12764
927.312	12844
927.419	12897
927.525	12882
927.631	12909
927.737	12817
927.843	12711
927.95	12578
928.056	12620
928.162	12734
928.267	12852
928.373	13232
928.479	12707
928.585	12513
928.69	12658
928.796	12726
928.901	12582
929.007	12369
929.112	12460
929.218	12418
929.323	12414
929.428	12403
929.533	12601
929.638	12289
929.743	12319
929.848	12407
929.953	12437
930.058	12140
930.163	12072
930.267	12076
930.372	12228
930.477	12034
930.581	12338
930.685	12152
930.79	11931
930.894	11980
930.998	11992
931.103	12068
931.207	11771
931.311	11649
931.415	11566
931.519	11410
931.623	11280
