Data from test_V78500241_2297.txt Node
Date: Fri Mar 25 15:57:42 CST 2022
User: usil
Spectrometer: V785-0024
Trigger mode: 0
Integration Time (sec): 4.000000E-1
Scans to average: 1
Nonlinearity correction enabled: false
Boxcar width: 0
Storing dark spectrum: false
XAxis mode: Wavelengths
Number of Pixels in Spectrum: 1024
>>>>>Begin Spectral Data<<<<<
801.071	29143
801.214	29060
801.356	28805
801.499	28752
801.641	28634
801.783	28577
801.926	28687
802.068	28702
802.211	28668
802.353	28531
802.496	28352
802.638	28318
802.78	28481
802.923	28329
803.065	28143
803.208	28329
803.35	28428
803.492	28485
803.635	28656
803.777	28344
803.919	28580
804.061	28919
804.204	28721
804.346	28630
804.488	28599
804.63	28565
804.773	28565
804.915	28668
805.057	28664
805.199	28584
805.341	28675
805.483	28797
805.626	28736
805.768	28771
805.91	28755
806.052	28866
806.194	28649
806.336	28961
806.478	28801
806.62	28869
806.762	28896
806.904	29105
807.046	29159
807.188	29258
807.33	29303
807.472	29421
807.614	29208
807.756	29132
807.898	29094
808.04	29265
808.182	29193
808.324	29345
808.465	29288
808.607	29284
808.749	29471
808.891	29668
809.033	29615
809.174	29551
809.316	29547
809.458	29463
809.6	29402
809.741	29551
809.883	29611
810.025	29733
810.166	29809
810.308	29786
810.45	29760
810.591	29714
810.733	29573
810.875	29566
811.016	29398
811.158	29216
811.299	29551
811.441	29733
811.582	29608
811.724	29566
811.865	29562
812.007	29516
812.148	29646
812.29	29668
812.431	29703
812.573	29923
812.714	29897
812.855	30144
812.997	30167
813.138	30182
813.279	30125
813.421	30129
813.562	30015
813.703	29916
813.845	29676
813.986	29570
814.127	29482
814.268	29296
814.41	29284
814.551	29113
814.692	29318
814.833	29159
814.974	29223
815.115	29246
815.256	29113
815.397	29071
815.539	29079
815.68	28999
815.821	29071
815.962	29098
816.103	29147
816.244	28927
816.385	29025
816.526	28816
816.666	28649
816.807	28626
816.948	28660
817.089	28664
817.23	28550
817.371	28599
817.512	28565
817.653	28538
817.793	28637
817.934	28717
818.075	28637
818.216	28519
818.356	28546
818.497	28497
818.638	28398
818.778	28341
818.919	28455
819.06	28333
819.2	28390
819.341	28683
819.481	28656
819.622	28630
819.762	28911
819.903	28927
820.043	28725
820.184	28736
820.324	28664
820.465	28824
820.605	28850
820.746	28641
820.886	28691
821.026	28683
821.167	28649
821.307	28717
821.447	28656
821.588	28504
821.728	28421
821.868	28322
822.008	28246
822.149	28021
822.289	28063
822.429	27930
822.569	27842
822.709	27766
822.849	27572
822.99	27507
823.13	27564
823.27	27492
823.41	27268
823.55	27256
823.69	27401
823.83	27336
823.97	27256
824.11	27218
824.25	27123
824.389	27203
824.529	27252
824.669	27260
824.809	27310
824.949	27291
825.089	27367
825.228	27275
825.368	27062
825.508	27138
825.648	27108
825.787	27093
825.927	27146
826.067	27036
826.206	27127
826.346	27131
826.485	27112
826.625	27085
826.765	27036
826.904	27127
827.044	26800
827.183	26773
827.323	26902
827.462	26902
827.601	26944
827.741	26842
827.88	26811
828.02	26724
828.159	26853
828.298	26883
828.437	26902
828.577	26804
828.716	26883
828.855	26670
828.994	26457
829.134	26514
829.273	26568
829.412	26537
829.551	26556
829.69	26442
829.829	26609
829.968	26507
830.107	26670
830.246	26495
830.385	26427
830.524	26290
830.663	26415
830.802	26191
830.941	26016
831.08	26119
831.219	26210
831.357	26142
831.496	26366
831.635	26267
831.774	26035
831.913	25966
832.051	25989
832.19	25955
832.329	25921
832.467	25753
832.606	25620
832.744	25685
832.883	25826
833.022	25681
833.16	25784
833.299	25814
833.437	25750
833.576	25951
833.714	25993
833.852	25830
833.991	25989
834.129	25970
834.267	25993
834.406	25822
834.544	25681
834.682	25928
834.821	25784
834.959	26008
835.097	25837
835.235	25932
835.373	25868
835.511	25761
835.65	25746
835.788	25715
835.926	25586
836.064	25506
836.202	25449
836.34	25715
836.478	25712
836.615	25533
836.753	25704
836.891	25776
837.029	25643
837.167	25605
837.305	25449
837.443	25457
837.58	25453
837.718	25468
837.856	25605
837.993	25403
838.131	25578
838.269	25350
838.406	25304
838.544	25282
838.681	25091
838.819	25110
838.956	24954
839.094	25000
839.231	24878
839.369	25080
839.506	25426
839.643	25263
839.781	24909
839.918	24973
840.055	25050
840.193	24951
840.33	24890
840.467	24992
840.604	24913
840.742	25110
840.879	24772
841.016	24863
841.153	24840
841.29	24856
841.427	24795
841.564	24867
841.701	24947
841.838	24715
841.975	24726
842.112	24608
842.249	24707
842.385	24639
842.522	24920
842.659	24608
842.796	24566
842.933	24582
843.069	24528
843.206	24528
843.343	24730
843.479	24589
843.616	24669
843.752	24456
843.889	24418
844.025	24544
844.162	24456
844.298	24445
844.435	24273
844.571	24357
844.708	24365
844.844	24563
844.98	24486
845.117	24448
845.253	24251
845.389	24281
845.525	24220
845.661	24365
845.798	24125
845.934	23939
846.07	23965
846.206	24220
846.342	24197
846.478	24117
846.614	24018
846.75	23786
846.886	23893
847.022	24007
847.158	23901
847.294	23775
847.429	23874
847.565	23840
847.701	24197
847.837	23615
847.972	23516
848.108	23547
848.244	23638
848.379	23368
848.515	23391
848.65	23474
848.786	23353
848.921	23490
849.057	23528
849.192	23505
849.328	23543
849.463	23436
849.598	23383
849.734	23250
849.869	23208
850.004	23200
850.14	23273
850.275	23200
850.41	23136
850.545	23162
850.68	23064
850.815	23155
850.95	23239
851.085	23334
851.22	23330
851.355	23140
851.49	23223
851.625	23109
851.76	23102
851.895	22991
852.03	22987
852.165	23216
852.299	23204
852.434	23292
852.569	23261
852.703	23151
852.838	23132
852.973	23239
853.107	23288
853.242	23098
853.376	23025
853.511	22869
853.645	22972
853.78	23102
853.914	23094
854.048	22858
854.183	22873
854.317	23102
854.451	23075
854.585	22953
854.72	23029
854.854	23147
854.988	22904
855.122	22949
855.256	22877
855.39	22976
855.524	22984
855.658	23003
855.792	22965
855.926	23010
856.06	22999
856.194	23025
856.327	23033
856.461	22885
856.595	23006
856.729	22923
856.862	23132
856.996	23025
857.13	23052
857.263	23128
857.397	23102
857.53	22991
857.664	22900
857.797	23102
857.931	23151
858.064	23029
858.197	23113
858.331	22900
858.464	22927
858.597	22763
858.731	22892
858.864	23018
858.997	22927
859.13	23071
859.263	22877
859.396	23117
859.529	22904
859.662	23014
859.795	22915
859.928	22908
860.061	23003
860.194	23166
860.327	23025
860.46	22889
860.592	23185
860.725	23345
860.858	23071
860.99	23037
861.123	22881
861.256	22991
861.388	22976
861.521	23714
861.653	22843
861.786	22885
861.918	22843
862.05	22911
862.183	22835
862.315	22991
862.447	23067
862.58	22889
862.712	22694
862.844	22710
862.976	22847
863.108	22755
863.24	23155
863.372	22630
863.504	22740
863.636	22653
863.768	22664
863.9	22729
864.032	22721
864.164	22664
864.296	22580
864.428	22850
864.559	22778
864.691	22698
864.823	22645
864.954	22668
865.086	22664
865.217	22554
865.349	22367
865.48	22546
865.612	22557
865.743	22660
865.875	22664
866.006	22550
866.137	22508
866.269	22504
866.4	22535
866.531	22592
866.662	22405
866.793	22535
866.924	22497
867.055	22538
867.186	22535
867.317	22569
867.448	22402
867.579	22375
867.71	22405
867.841	22405
867.972	22500
868.103	22500
868.233	22402
868.364	22440
868.495	22527
868.625	22668
868.756	22786
868.886	22637
869.017	22831
869.147	22778
869.278	22847
869.408	22778
869.539	22725
869.669	22862
869.799	22904
869.929	22904
870.06	22683
870.19	22972
870.32	22957
870.45	23155
870.58	23003
870.71	23121
870.84	23239
870.97	23075
871.1	23109
871.23	23235
871.36	23269
871.489	23227
871.619	23322
871.749	23330
871.879	23356
872.008	23410
872.138	23307
872.267	23322
872.397	23098
872.526	23136
872.656	23143
872.785	23067
872.915	23330
873.044	23417
873.173	23372
873.303	23410
873.432	23212
873.561	23398
873.69	23387
873.819	23269
873.948	23387
874.077	23349
874.206	23326
874.335	23273
874.464	23482
874.593	23493
874.722	23585
874.851	23585
874.979	23710
875.108	23551
875.237	23535
875.365	23444
875.494	23448
875.623	23471
875.751	23497
875.88	23497
876.008	23619
876.136	23684
876.265	23939
876.393	24026
876.521	23950
876.65	24076
876.778	23980
876.906	23859
877.034	23847
877.162	23920
877.29	23916
877.418	23897
877.546	23847
877.674	23939
877.802	23870
877.93	23809
878.058	23798
878.185	23790
878.313	23821
878.441	23832
878.568	23710
878.696	23802
878.824	23809
878.951	23935
879.079	24003
879.206	24045
879.333	24007
879.461	23897
879.588	24007
879.715	24091
879.842	24201
879.97	23904
880.097	23703
880.224	23646
880.351	23707
880.478	23817
880.605	23684
880.732	23710
880.859	23999
880.986	23653
881.112	23710
881.239	23649
881.366	23417
881.493	23360
881.619	23254
881.746	23250
881.872	23216
881.999	23086
882.125	23105
882.252	23425
882.378	23204
882.505	23330
882.631	23056
882.757	23041
882.883	22980
883.01	22923
883.136	22820
883.262	22740
883.388	22786
883.514	22961
883.64	22850
883.766	22820
883.892	22702
884.018	22713
884.143	22904
884.269	22942
884.395	22653
884.52	22550
884.646	22508
884.772	22557
884.897	22451
885.023	22607
885.148	22630
885.274	22721
885.399	22660
885.524	22459
885.65	22493
885.775	22618
885.9	22481
886.025	22668
886.15	22535
886.275	22542
886.4	22375
886.525	22478
886.65	22443
886.775	22451
886.9	22622
887.025	22816
887.149	22436
887.274	22352
887.399	22207
887.523	22284
887.648	22238
887.773	22204
887.897	22329
888.021	22246
888.146	22196
888.27	22428
888.395	22466
888.519	22284
888.643	22344
888.767	22280
888.891	22090
889.015	22051
889.139	22143
889.263	22093
889.387	22162
889.511	22356
889.635	22086
889.759	22135
889.883	22070
890.006	22109
890.13	22128
890.254	22040
890.377	22036
890.501	21918
890.624	21751
890.748	21827
890.871	21671
890.995	21648
891.118	21542
891.241	21652
891.364	21625
891.488	21690
891.611	21698
891.734	21682
891.857	21667
891.98	21633
892.103	21663
892.226	21690
892.349	21519
892.471	21359
892.594	21538
892.717	21538
892.839	21477
892.962	21492
893.085	21580
893.207	21538
893.33	21310
893.452	21458
893.575	21599
893.697	21435
893.819	21545
893.941	21686
894.064	21614
894.186	21515
894.308	21287
894.43	21504
894.552	21587
894.674	21660
894.796	21386
894.918	21530
895.04	21325
895.161	21466
895.283	21500
895.405	21420
895.526	21431
895.648	21435
895.769	21553
895.891	21473
896.012	21587
896.134	21439
896.255	21576
896.376	21469
896.498	21504
896.619	21477
896.74	21568
896.861	21450
896.982	21759
897.103	21869
897.224	21679
897.345	21622
897.466	21507
897.587	21667
897.708	21789
897.828	21698
897.949	21633
898.07	21488
898.19	21629
898.311	21755
898.431	21538
898.552	21713
898.672	21709
898.792	21732
898.913	21633
899.033	21534
899.153	21519
899.273	21412
899.393	21435
899.513	21420
899.633	21351
899.753	21485
899.873	21496
899.993	21462
900.113	21317
900.232	21405
900.352	21199
900.472	21211
900.591	21123
900.711	21195
900.83	21169
900.95	21211
901.069	21283
901.189	21074
901.308	20785
901.427	20606
901.546	20746
901.665	20716
901.784	20705
901.904	20674
902.023	20518
902.141	20233
902.26	20221
902.379	20423
902.498	20168
902.617	20271
902.735	20153
902.854	20259
902.973	20119
903.091	19894
903.21	19887
903.328	19856
903.446	19780
903.565	19575
903.683	19635
903.801	19468
903.919	19529
904.038	19628
904.156	19464
904.274	19457
904.392	19468
904.51	19358
904.627	19324
904.745	19373
904.863	19510
904.981	19152
905.098	19099
905.216	19091
905.334	19122
905.451	19152
905.569	19061
905.686	19206
905.803	19004
905.921	18776
906.038	18993
906.155	18859
906.272	18741
906.389	18738
906.506	18631
906.623	18612
906.74	18563
906.857	18578
906.974	18536
907.091	18707
907.208	18669
907.324	18707
907.441	18384
907.557	18323
907.674	18296
907.79	18247
907.907	18243
908.023	18304
908.139	18319
908.256	18304
908.372	18201
908.488	18152
908.604	18049
908.72	18030
908.836	18091
908.952	17984
909.068	18003
909.184	17992
909.3	18034
909.415	17984
909.531	17931
909.647	17680
909.762	17741
909.878	17668
909.993	17707
910.108	17600
910.224	17714
910.339	17718
910.454	17570
910.57	17471
910.685	17440
910.8	17634
910.915	17604
911.03	17474
911.145	17330
911.259	17360
911.374	17288
911.489	17258
911.604	17197
911.718	17010
911.833	16949
911.947	16873
912.062	16835
912.176	16984
912.291	17003
912.405	17029
912.519	17185
912.633	17140
912.748	17006
912.862	16965
912.976	16809
913.09	16698
913.204	16744
913.318	16820
913.431	16957
913.545	16911
913.659	16835
913.772	16733
913.886	16687
914	16694
914.113	16755
914.226	16759
914.34	16725
914.453	16531
914.566	16622
914.68	16565
914.793	16428
914.906	16291
915.019	16162
915.132	16116
915.245	16204
915.358	16257
915.47	16204
915.583	16139
915.696	16409
915.809	16352
915.921	16257
916.034	16154
916.146	16013
916.259	16074
916.371	16181
916.483	16131
916.595	16044
916.708	16055
916.82	15998
916.932	15983
917.044	15895
917.156	15968
917.268	15911
917.38	15774
917.491	15743
917.603	15812
917.715	15934
917.826	15899
917.938	15724
918.049	15717
918.161	15705
918.272	15903
918.384	15846
918.495	15713
918.606	15564
918.717	15462
918.828	15500
918.939	15564
919.05	15378
919.161	15507
919.272	15298
919.383	15268
919.494	15595
919.604	15591
919.715	15473
919.826	15393
919.936	15416
920.047	15462
920.157	15405
920.267	15629
920.378	15572
920.488	15507
920.598	15644
920.708	15679
920.818	15572
920.928	15542
921.038	15812
921.148	15644
921.258	15367
921.368	15287
921.477	15192
921.587	15192
921.697	14982
921.806	15291
921.916	15138
922.025	14823
922.134	14845
922.244	14811
922.353	14834
922.462	14674
922.571	14625
922.68	14495
922.789	14541
922.898	14556
923.007	14370
923.116	14457
923.224	14442
923.333	14423
923.442	14248
923.55	14172
923.659	14317
923.767	14336
923.876	14115
923.984	14252
924.092	14115
924.201	14187
924.309	14202
924.417	14081
924.525	14157
924.633	14100
924.741	14941
924.849	13814
924.956	14031
925.064	14008
925.172	13799
925.279	13811
925.387	13879
925.494	13883
925.602	13852
925.709	13856
925.816	13765
925.924	13636
926.031	13841
926.138	13727
926.245	13811
926.352	13670
926.459	13750
926.566	13860
926.673	13700
926.779	13548
926.886	13559
926.993	13362
927.099	13384
927.206	13343
927.312	13266
927.419	13343
927.525	13373
927.631	13403
927.737	13232
927.843	13129
927.95	13069
928.056	13156
928.162	13164
928.267	13171
928.373	13811
928.479	13240
928.585	12913
928.69	13050
928.796	13187
928.901	13076
929.007	12817
929.112	13027
929.218	12935
929.323	12916
929.428	12966
929.533	13008
929.638	12829
929.743	12817
929.848	12840
929.953	12738
930.058	12703
930.163	12547
930.267	12490
930.372	12635
930.477	12525
930.581	12703
930.685	12528
930.79	12433
930.894	12452
930.998	12361
931.103	12544
931.207	12114
931.311	12072
931.415	11984
931.519	11733
931.623	11752
