Data from test_V78500241_507.txt Node
Date: Fri Mar 25 15:45:18 CST 2022
User: usil
Spectrometer: V785-0024
Trigger mode: 0
Integration Time (sec): 4.000000E-1
Scans to average: 1
Nonlinearity correction enabled: false
Boxcar width: 0
Storing dark spectrum: false
XAxis mode: Wavelengths
Number of Pixels in Spectrum: 1024
>>>>>Begin Spectral Data<<<<<
801.071	27580
801.214	27439
801.356	27351
801.499	27344
801.641	27192
801.783	27058
801.926	27028
802.068	27077
802.211	26952
802.353	27039
802.496	26785
802.638	26880
802.78	26731
802.923	26644
803.065	26594
803.208	26781
803.35	26796
803.492	26834
803.635	26823
803.777	26762
803.919	26720
804.061	27180
804.204	26853
804.346	26857
804.488	26651
804.63	26769
804.773	26701
804.915	26940
805.057	26975
805.199	26956
805.341	26895
805.483	26990
805.626	26868
805.768	26838
805.91	27009
806.052	26967
806.194	26807
806.336	27119
806.478	27005
806.62	26910
806.762	27013
806.904	27348
807.046	27595
807.188	27306
807.33	27405
807.472	27580
807.614	27344
807.756	27233
807.898	27226
808.04	27074
808.182	27226
808.324	27268
808.465	27173
808.607	27374
808.749	27538
808.891	27625
809.033	27812
809.174	27880
809.316	27622
809.458	27739
809.6	27667
809.741	27690
809.883	27759
810.025	27778
810.166	27888
810.308	27930
810.45	27793
810.591	27857
810.733	27576
810.875	27572
811.016	27530
811.158	27561
811.299	27720
811.441	27732
811.582	27618
811.724	27603
811.865	27618
812.007	27568
812.148	27466
812.29	27682
812.431	27663
812.573	27968
812.714	27937
812.855	28048
812.997	28196
813.138	28303
813.279	28276
813.421	28196
813.562	28036
813.703	27975
813.845	27701
813.986	27519
814.127	27416
814.268	27359
814.41	27321
814.551	27192
814.692	27317
814.833	27226
814.974	27165
815.115	27195
815.256	27199
815.397	27138
815.539	27150
815.68	27085
815.821	27017
815.962	27055
816.103	26925
816.244	27005
816.385	26971
816.526	26906
816.666	26678
816.807	26526
816.948	26655
817.089	26609
817.23	26625
817.371	26556
817.512	26514
817.653	26606
817.793	26469
817.934	26571
818.075	26552
818.216	26522
818.356	26457
818.497	26317
818.638	26313
818.778	26358
818.919	26237
819.06	26301
819.2	26499
819.341	26427
819.481	26473
819.622	26587
819.762	26830
819.903	26807
820.043	26648
820.184	26545
820.324	26636
820.465	26781
820.605	26640
820.746	26560
820.886	26526
821.026	26625
821.167	26708
821.307	26792
821.447	26598
821.588	26511
821.728	26396
821.868	26058
822.008	25955
822.149	26134
822.289	26046
822.429	25830
822.569	25742
822.709	25700
822.849	25525
822.99	25578
823.13	25430
823.27	25438
823.41	25293
823.55	25251
823.69	25255
823.83	25114
823.97	25232
824.11	25141
824.25	25133
824.389	25053
824.529	25133
824.669	25046
824.809	25316
824.949	25187
825.089	25304
825.228	25225
825.368	25004
825.508	24996
825.648	25012
825.787	25019
825.927	25042
826.067	24958
826.206	25046
826.346	25065
826.485	25027
826.625	24989
826.765	25076
826.904	24928
827.044	24719
827.183	24715
827.323	24650
827.462	24768
827.601	24688
827.741	24730
827.88	24741
828.02	24730
828.159	24620
828.298	24787
828.437	24631
828.577	24639
828.716	24783
828.855	24582
828.994	24498
829.134	24475
829.273	24323
829.412	24243
829.551	24338
829.69	24323
829.829	24391
829.968	24498
830.107	24525
830.246	24429
830.385	24292
830.524	24277
830.663	24186
830.802	24178
830.941	23992
831.08	24053
831.219	24121
831.357	24068
831.496	24205
831.635	24053
831.774	24038
831.913	23824
832.051	23756
832.19	23676
832.329	23783
832.467	23745
832.606	23668
832.744	23604
832.883	23634
833.022	23581
833.16	23665
833.299	23646
833.437	23798
833.576	23836
833.714	23737
833.852	23805
833.991	23893
834.129	23855
834.267	23870
834.406	23741
834.544	23733
834.682	23767
834.821	23665
834.959	23878
835.097	23611
835.235	23661
835.373	23707
835.511	23684
835.65	23478
835.788	23680
835.926	23414
836.064	23349
836.202	23414
836.34	23623
836.478	23809
836.615	23573
836.753	23615
836.891	23562
837.029	23596
837.167	23467
837.305	23414
837.443	23417
837.58	23414
837.718	23478
837.856	23391
837.993	23280
838.131	23360
838.269	23273
838.406	23433
838.544	23204
838.681	23010
838.819	23018
838.956	22771
839.094	22850
839.231	22900
839.369	23022
839.506	23223
839.643	22953
839.781	22881
839.918	22908
840.055	22797
840.193	22847
840.33	22748
840.467	22854
840.604	22850
840.742	23071
840.879	22653
841.016	22687
841.153	22710
841.29	22896
841.427	22763
841.564	22771
841.701	22725
841.838	22713
841.975	22736
842.112	22618
842.249	22771
842.385	22691
842.522	22786
842.659	22675
842.796	22531
842.933	22519
843.069	22569
843.206	22531
843.343	22691
843.479	22569
843.616	22626
843.752	22367
843.889	22405
844.025	22432
844.162	22303
844.298	22356
844.435	22348
844.571	22322
844.708	22371
844.844	22424
844.98	22417
845.117	22360
845.253	22188
845.389	22215
845.525	22188
845.661	22143
845.798	22109
845.934	22124
846.07	22029
846.206	22188
846.342	22230
846.478	22162
846.614	21907
846.75	21857
846.886	21892
847.022	21869
847.158	21846
847.294	21682
847.429	21876
847.565	21751
847.701	22040
847.837	21629
847.972	21488
848.108	21606
848.244	21629
848.379	21466
848.515	21348
848.65	21431
848.786	21321
848.921	21526
849.057	21667
849.192	21416
849.328	21443
849.463	21370
849.598	21374
849.734	21256
849.869	21135
850.004	21184
850.14	21119
850.275	21275
850.41	21085
850.545	21112
850.68	21211
850.815	21154
850.95	21131
851.085	21256
851.22	21226
851.355	21192
851.49	21108
851.625	21207
851.76	21123
851.895	21032
852.03	21036
852.165	21203
852.299	21184
852.434	21184
852.569	21256
852.703	21104
852.838	21214
852.973	21264
853.107	21245
853.242	21043
853.376	20948
853.511	20830
853.645	20891
853.78	21005
853.914	20982
854.048	20891
854.183	20963
854.317	20994
854.451	21157
854.585	21001
854.72	20948
854.854	20994
854.988	20883
855.122	21001
855.256	20948
855.39	21013
855.524	20944
855.658	21051
855.792	21055
855.926	21009
856.06	21036
856.194	21009
856.327	21009
856.461	20811
856.595	20956
856.729	20948
856.862	20975
856.996	21024
857.13	21028
857.263	21077
857.397	21135
857.53	21001
857.664	21009
857.797	21089
857.931	21051
858.064	21123
858.197	21154
858.331	20960
858.464	20868
858.597	20891
858.731	20891
858.864	20887
858.997	20918
859.13	20963
859.263	20895
859.396	21123
859.529	20960
859.662	20853
859.795	20986
859.928	20807
860.061	21127
860.194	21096
860.327	20967
860.46	21036
860.592	21032
860.725	21100
860.858	21055
860.99	20948
861.123	20842
861.256	20891
861.388	20975
861.521	21728
861.653	20906
861.786	20781
861.918	20743
862.05	20975
862.183	20864
862.315	20986
862.447	21100
862.58	20842
862.712	20720
862.844	20727
862.976	20804
863.108	20819
863.24	21100
863.372	20716
863.504	20625
863.636	20815
863.768	20765
863.9	20693
864.032	20720
864.164	20648
864.296	20663
864.428	20849
864.559	20910
864.691	20807
864.823	20606
864.954	20621
865.086	20693
865.217	20674
865.349	20571
865.48	20609
865.612	20571
865.743	20727
865.875	20587
866.006	20537
866.137	20636
866.269	20625
866.4	20568
866.531	20503
866.662	20427
866.793	20629
866.924	20480
867.055	20541
867.186	20446
867.317	20598
867.448	20507
867.579	20457
867.71	20396
867.841	20461
867.972	20446
868.103	20648
868.233	20560
868.364	20583
868.495	20552
868.625	20754
868.756	20838
868.886	20640
869.017	20811
869.147	20842
869.278	20899
869.408	20826
869.539	20708
869.669	20895
869.799	20845
869.929	20887
870.06	20838
870.19	21085
870.32	21043
870.45	21192
870.58	21131
870.71	21298
870.84	21294
870.97	21237
871.1	21230
871.23	21313
871.36	21386
871.489	21249
871.619	21340
871.749	21450
871.879	21298
872.008	21496
872.138	21348
872.267	21336
872.397	21291
872.526	21291
872.656	21291
872.785	21135
872.915	21435
873.044	21408
873.173	21401
873.303	21454
873.432	21507
873.561	21572
873.69	21313
873.819	21351
873.948	21553
874.077	21466
874.206	21302
874.335	21424
874.464	21564
874.593	21507
874.722	21534
874.851	21523
874.979	21732
875.108	21652
875.237	21557
875.365	21606
875.494	21644
875.623	21701
875.751	21728
875.88	21557
876.008	21739
876.136	21797
876.265	22006
876.393	22013
876.521	22006
876.65	22070
876.778	22048
876.906	22017
877.034	21880
877.162	21926
877.29	21812
877.418	22006
877.546	22067
877.674	21960
877.802	22006
877.93	21880
878.058	21972
878.185	21892
878.313	22025
878.441	21956
878.568	21675
878.696	21899
878.824	21979
878.951	22090
879.079	22063
879.206	22375
879.333	22124
879.461	22139
879.588	22169
879.715	22059
879.842	22200
879.97	22086
880.097	21827
880.224	21770
880.351	21876
880.478	21770
880.605	21705
880.732	21724
880.859	22078
880.986	21823
881.112	21873
881.239	21720
881.366	21545
881.493	21576
881.619	21355
881.746	21386
881.872	21370
881.999	21317
882.125	21367
882.252	21530
882.378	21325
882.505	21458
882.631	21275
882.757	21074
882.883	21150
883.01	21081
883.136	21024
883.262	20925
883.388	20948
883.514	21150
883.64	21066
883.766	20967
883.892	20750
884.018	20819
884.143	21017
884.269	21184
884.395	20792
884.52	20689
884.646	20629
884.772	20583
884.897	20606
885.023	20739
885.148	20830
885.274	20899
885.399	20712
885.524	20663
885.65	20674
885.775	20678
885.9	20739
886.025	20834
886.15	20853
886.275	20781
886.4	20511
886.525	20731
886.65	20621
886.775	20739
886.9	20743
887.025	20952
887.149	20644
887.274	20518
887.399	20511
887.523	20404
887.648	20473
887.773	20461
887.897	20537
888.021	20564
888.146	20434
888.27	20670
888.395	20724
888.519	20533
888.643	20511
888.767	20457
888.891	20362
889.015	20343
889.139	20336
889.263	20271
889.387	20408
889.511	20431
889.635	20381
889.759	20233
889.883	20278
890.006	20267
890.13	20328
890.254	20130
890.377	20199
890.501	20214
890.624	20126
890.748	20138
890.871	19955
890.995	19795
891.118	19822
891.241	19902
891.364	19841
891.488	19978
891.611	19959
891.734	19871
891.857	19906
891.98	19898
892.103	19932
892.226	19841
892.349	19803
892.471	19658
892.594	19788
892.717	19784
892.839	19677
892.962	19799
893.085	19898
893.207	19696
893.33	19651
893.452	19841
893.575	19734
893.697	19750
893.819	19944
893.941	19986
894.064	19947
894.186	19750
894.308	19674
894.43	19909
894.552	19868
894.674	19898
894.796	19658
894.918	19811
895.04	19727
895.161	19780
895.283	19936
895.405	19727
895.526	19803
895.648	19852
895.769	19830
895.891	19761
896.012	19830
896.134	19822
896.255	19780
896.376	19803
896.498	19811
896.619	19898
896.74	19814
896.861	19887
896.982	20107
897.103	20233
897.224	20058
897.345	20005
897.466	19974
897.587	20069
897.708	20244
897.828	20145
897.949	20024
898.07	19864
898.19	19936
898.311	20119
898.431	20008
898.552	20008
898.672	20062
898.792	20103
898.913	20077
899.033	20020
899.153	19936
899.273	19761
899.393	19791
899.513	19799
899.633	19807
899.753	19849
899.873	19681
899.993	19837
900.113	19742
900.232	19727
900.352	19677
900.472	19677
900.591	19495
900.711	19582
900.83	19445
900.95	19704
901.069	19647
901.189	19525
901.308	19339
901.427	19168
901.546	19129
901.665	19145
901.784	19228
901.904	19202
902.023	18890
902.141	18776
902.26	18612
902.379	18726
902.498	18654
902.617	18696
902.735	18696
902.854	18707
902.973	18604
903.091	18319
903.21	18353
903.328	18391
903.446	18270
903.565	18125
903.683	18171
903.801	18068
903.919	18079
904.038	18083
904.156	17946
904.274	17954
904.392	17969
904.51	17939
904.627	17923
904.745	17969
904.863	17988
904.981	17767
905.098	17497
905.216	17577
905.334	17668
905.451	17691
905.569	17554
905.686	17752
905.803	17668
905.921	17410
906.038	17417
906.155	17387
906.272	17356
906.389	17315
906.506	17113
906.623	17178
906.74	17159
906.857	17018
906.974	17056
907.091	17132
907.208	17151
907.324	17124
907.441	17018
907.557	16839
907.674	16847
907.79	16835
907.907	16805
908.023	16854
908.139	16809
908.256	16782
908.372	16687
908.488	16759
908.604	16599
908.72	16440
908.836	16542
908.952	16466
909.068	16592
909.184	16755
909.3	16577
909.415	16580
909.531	16561
909.647	16375
909.762	16230
909.878	16215
909.993	16379
910.108	16211
910.224	16230
910.339	16276
910.454	16097
910.57	16029
910.685	16002
910.8	16405
910.915	16261
911.03	16131
911.145	15907
911.259	15789
911.374	15892
911.489	15804
911.604	15842
911.718	15660
911.833	15519
911.947	15496
912.062	15450
912.176	15580
912.291	15633
912.405	15606
912.519	15778
912.633	15736
912.748	15682
912.862	15545
912.976	15469
913.09	15313
913.204	15405
913.318	15439
913.431	15431
913.545	15447
913.659	15572
913.772	15351
913.886	15321
914	15188
914.113	15397
914.226	15351
914.34	15291
914.453	15097
914.566	15275
914.68	15195
914.793	15116
914.906	14986
915.019	14876
915.132	14785
915.245	14845
915.358	14921
915.47	14838
915.583	14834
915.696	14933
915.809	15020
915.921	15047
916.034	14785
916.146	14762
916.259	14788
916.371	14838
916.483	14838
916.595	14655
916.708	14720
916.82	14670
916.932	14663
917.044	14701
917.156	14629
917.268	14476
917.38	14579
917.491	14396
917.603	14556
917.715	14556
917.826	14564
917.938	14518
918.049	14389
918.161	14446
918.272	14526
918.384	14583
918.495	14533
918.606	14343
918.717	14263
918.828	14256
918.939	14195
919.05	14183
919.161	14381
919.272	14115
919.383	14069
919.494	14313
919.604	14530
919.715	14237
919.826	14172
919.936	14183
920.047	14419
920.157	14214
920.267	14362
920.378	14237
920.488	14290
920.598	14446
920.708	14404
920.818	14381
920.928	14450
921.038	14640
921.148	14522
921.258	14214
921.368	14134
921.477	14065
921.587	13944
921.697	13864
921.806	14035
921.916	13826
922.025	13761
922.134	13727
922.244	13590
922.353	13776
922.462	13533
922.571	13453
922.68	13331
922.789	13354
922.898	13236
923.007	13259
923.116	13308
923.224	13263
923.333	13263
923.442	13107
923.55	13129
923.659	13118
923.767	13149
923.876	12928
923.984	13129
924.092	13027
924.201	13050
924.309	13061
924.417	13008
924.525	12958
924.633	12958
924.741	13731
924.849	12738
924.956	12913
925.064	12741
925.172	12669
925.279	12627
925.387	12711
925.494	12665
925.602	12772
925.709	12719
925.816	12635
925.924	12620
926.031	12802
926.138	12703
926.245	12741
926.352	12631
926.459	12631
926.566	12658
926.673	12544
926.779	12391
926.886	12479
926.993	12380
927.099	12281
927.206	12197
927.312	12266
927.419	12388
927.525	12220
927.631	12327
927.737	12095
927.843	12140
927.95	12011
928.056	12076
928.162	12091
928.267	12182
928.373	12745
928.479	12224
928.585	12015
928.69	12068
928.796	12167
928.901	12076
929.007	11874
929.112	11969
929.218	11996
929.323	11882
929.428	11843
929.533	12079
929.638	11752
929.743	11828
929.848	11904
929.953	11866
930.058	11649
930.163	11512
930.267	11604
930.372	11676
930.477	11505
930.581	11756
930.685	11615
930.79	11360
930.894	11509
930.998	11395
931.103	11547
931.207	11231
931.311	11029
931.415	11075
931.519	10767
931.623	10790
