Data from test_V78500241_3238.txt Node
Date: Fri Mar 25 16:04:13 CST 2022
User: usil
Spectrometer: V785-0024
Trigger mode: 0
Integration Time (sec): 4.000000E-1
Scans to average: 1
Nonlinearity correction enabled: false
Boxcar width: 0
Storing dark spectrum: false
XAxis mode: Wavelengths
Number of Pixels in Spectrum: 1024
>>>>>Begin Spectral Data<<<<<
801.071	28919
801.214	28782
801.356	28535
801.499	28523
801.641	28451
801.783	28538
801.926	28573
802.068	28580
802.211	28459
802.353	28512
802.496	28287
802.638	28162
802.78	28223
802.923	28124
803.065	28109
803.208	28067
803.35	28272
803.492	28375
803.635	28550
803.777	28276
803.919	28607
804.061	28809
804.204	28656
804.346	28451
804.488	28459
804.63	28478
804.773	28417
804.915	28668
805.057	28672
805.199	28405
805.341	28531
805.483	28645
805.626	28653
805.768	28748
805.91	28771
806.052	28649
806.194	28656
806.336	28721
806.478	28596
806.62	28687
806.762	28972
806.904	29041
807.046	29315
807.188	29140
807.33	29193
807.472	29178
807.614	29098
807.756	29140
807.898	28968
808.04	28942
808.182	28942
808.324	28858
808.465	28938
808.607	29227
808.749	29356
808.891	29277
809.033	29558
809.174	29398
809.316	29379
809.458	29280
809.6	29265
809.741	29410
809.883	29562
810.025	29539
810.166	29630
810.308	29581
810.45	29634
810.591	29505
810.733	29436
810.875	29395
811.016	29421
811.158	29235
811.299	29444
811.441	29634
811.582	29585
811.724	29444
811.865	29341
812.007	29410
812.148	29421
812.29	29524
812.431	29608
812.573	29665
812.714	29817
812.855	29984
812.997	30087
813.138	30038
813.279	30007
813.421	29912
813.562	29901
813.703	29878
813.845	29680
813.986	29417
814.127	29372
814.268	29071
814.41	29060
814.551	28987
814.692	28987
814.833	29094
814.974	29121
815.115	29151
815.256	29003
815.397	28999
815.539	29029
815.68	28908
815.821	28862
815.962	28919
816.103	28847
816.244	28736
816.385	28538
816.526	28611
816.666	28474
816.807	28322
816.948	28291
817.089	28596
817.23	28493
817.371	28375
817.512	28440
817.653	28470
817.793	28318
817.934	28466
818.075	28462
818.216	28516
818.356	28322
818.497	28405
818.638	28173
818.778	28185
818.919	28242
819.06	28249
819.2	28306
819.341	28436
819.481	28474
819.622	28664
819.762	28763
819.903	28691
820.043	28580
820.184	28500
820.324	28470
820.465	28687
820.605	28577
820.746	28641
820.886	28417
821.026	28379
821.167	28500
821.307	28561
821.447	28512
821.588	28238
821.728	28371
821.868	28070
822.008	27998
822.149	27850
822.289	27953
822.429	27667
822.569	27656
822.709	27641
822.849	27523
822.99	27488
823.13	27439
823.27	27412
823.41	27252
823.55	27161
823.69	27355
823.83	27237
823.97	27302
824.11	27028
824.25	27039
824.389	26990
824.529	27157
824.669	27157
824.809	27112
824.949	27256
825.089	27138
825.228	27081
825.368	27074
825.508	26899
825.648	26952
825.787	27089
825.927	27039
826.067	27085
826.206	26853
826.346	26925
826.485	27028
826.625	26998
826.765	27096
826.904	26902
827.044	26762
827.183	26765
827.323	26689
827.462	26773
827.601	26769
827.741	26617
827.88	26705
828.02	26750
828.159	26693
828.298	26659
828.437	26754
828.577	26613
828.716	26716
828.855	26492
828.994	26343
829.134	26313
829.273	26400
829.412	26332
829.551	26313
829.69	26351
829.829	26393
829.968	26503
830.107	26476
830.246	26381
830.385	26336
830.524	26206
830.663	26187
830.802	26005
830.941	26050
831.08	25970
831.219	26187
831.357	26149
831.496	26339
831.635	25947
831.774	25951
831.913	26031
832.051	25776
832.19	25597
832.329	25791
832.467	25666
832.606	25685
832.744	25605
832.883	25628
833.022	25616
833.16	25723
833.299	25788
833.437	25518
833.576	25830
833.714	25719
833.852	25791
833.991	25791
834.129	25807
834.267	25799
834.406	25700
834.544	25708
834.682	25685
834.821	25658
834.959	25879
835.097	25651
835.235	25776
835.373	25700
835.511	25651
835.65	25578
835.788	25575
835.926	25445
836.064	25358
836.202	25316
836.34	25514
836.478	25670
836.615	25464
836.753	25594
836.891	25552
837.029	25495
837.167	25396
837.305	25594
837.443	25457
837.58	25396
837.718	25384
837.856	25495
837.993	25228
838.131	25282
838.269	25278
838.406	25343
838.544	25266
838.681	24966
838.819	24890
838.956	24970
839.094	24875
839.231	24886
839.369	25053
839.506	25190
839.643	24977
839.781	24810
839.918	24806
840.055	24856
840.193	24798
840.33	24703
840.467	24741
840.604	24726
840.742	25023
840.879	24703
841.016	24707
841.153	24563
841.29	24825
841.427	24673
841.564	24810
841.701	24650
841.838	24654
841.975	24559
842.112	24601
842.249	24475
842.385	24464
842.522	24654
842.659	24646
842.796	24536
842.933	24517
843.069	24490
843.206	24391
843.343	24563
843.479	24521
843.616	24528
843.752	24361
843.889	24365
844.025	24399
844.162	24258
844.298	24376
844.435	24266
844.571	24399
844.708	24285
844.844	24403
844.98	24448
845.117	24494
845.253	24152
845.389	24091
845.525	24197
845.661	24148
845.798	24167
845.934	24034
846.07	23863
846.206	24064
846.342	24072
846.478	24106
846.614	23824
846.75	23684
846.886	23794
847.022	23859
847.158	23794
847.294	23767
847.429	23756
847.565	23714
847.701	23889
847.837	23410
847.972	23459
848.108	23649
848.244	23490
848.379	23337
848.515	23315
848.65	23136
848.786	23303
848.921	23303
849.057	23425
849.192	23436
849.328	23353
849.463	23360
849.598	23356
849.734	23147
849.869	23105
850.004	23113
850.14	23102
850.275	22980
850.41	23060
850.545	23064
850.68	23006
850.815	23086
850.95	23048
851.085	23231
851.22	23200
851.355	23136
851.49	23071
851.625	22968
851.76	23075
851.895	23018
852.03	23033
852.165	22942
852.299	23079
852.434	23075
852.569	23147
852.703	23083
852.838	23151
852.973	23098
853.107	23128
853.242	22976
853.376	22866
853.511	22702
853.645	22786
853.78	23003
853.914	22972
854.048	22889
854.183	22927
854.317	22923
854.451	23109
854.585	22930
854.72	22919
854.854	22889
854.988	22881
855.122	22904
855.256	22771
855.39	22919
855.524	22953
855.658	22965
855.792	23022
855.926	22896
856.06	22911
856.194	23006
856.327	22816
856.461	22915
856.595	22885
856.729	22702
856.862	22957
856.996	22999
857.13	22869
857.263	23052
857.397	22953
857.53	22748
857.664	22839
857.797	22946
857.931	23037
858.064	22968
858.197	23025
858.331	22889
858.464	22946
858.597	22847
858.731	22767
858.864	22763
858.997	22869
859.13	22881
859.263	22873
859.396	22927
859.529	22885
859.662	22919
859.795	22938
859.928	22976
860.061	23083
860.194	23022
860.327	23056
860.46	22831
860.592	22946
860.725	23064
860.858	22999
860.99	22987
861.123	22797
861.256	22881
861.388	22961
861.521	23604
861.653	22797
861.786	22733
861.918	22771
862.05	22637
862.183	22790
862.315	22869
862.447	22824
862.58	22713
862.712	22622
862.844	22630
862.976	22843
863.108	22740
863.24	23003
863.372	22554
863.504	22645
863.636	22504
863.768	22736
863.9	22679
864.032	22550
864.164	22634
864.296	22656
864.428	22748
864.559	22691
864.691	22687
864.823	22561
864.954	22672
865.086	22599
865.217	22519
865.349	22299
865.48	22500
865.612	22371
865.743	22565
865.875	22508
866.006	22500
866.137	22386
866.269	22470
866.4	22519
866.531	22557
866.662	22367
866.793	22493
866.924	22375
867.055	22421
867.186	22459
867.317	22314
867.448	22299
867.579	22474
867.71	22291
867.841	22318
867.972	22356
868.103	22417
868.233	22344
868.364	22382
868.495	22428
868.625	22531
868.756	22679
868.886	22584
869.017	22656
869.147	22645
869.278	22801
869.408	22656
869.539	22561
869.669	22634
869.799	22672
869.929	22630
870.06	22824
870.19	22892
870.32	22927
870.45	22885
870.58	23033
870.71	23147
870.84	23044
870.97	23147
871.1	23033
871.23	23174
871.36	23273
871.489	23098
871.619	23204
871.749	23197
871.879	23227
872.008	23414
872.138	23143
872.267	23170
872.397	23132
872.526	22972
872.656	23086
872.785	23067
872.915	23227
873.044	23395
873.173	23254
873.303	23303
873.432	23193
873.561	23387
873.69	23280
873.819	23269
873.948	23288
874.077	23353
874.206	23208
874.335	23227
874.464	23436
874.593	23414
874.722	23459
874.851	23535
874.979	23452
875.108	23425
875.237	23433
875.365	23379
875.494	23391
875.623	23627
875.751	23398
875.88	23551
876.008	23634
876.136	23623
876.265	23916
876.393	24030
876.521	23965
876.65	23954
876.778	23828
876.906	23828
877.034	23752
877.162	23851
877.29	23653
877.418	23961
877.546	23756
877.674	23798
877.802	23718
877.93	23684
878.058	23672
878.185	23684
878.313	23783
878.441	23745
878.568	23653
878.696	23752
878.824	23767
878.951	23840
879.079	23969
879.206	24190
879.333	23992
879.461	23703
879.588	23847
879.715	23893
879.842	24087
879.97	23912
880.097	23665
880.224	23611
880.351	23771
880.478	23646
880.605	23543
880.732	23710
880.859	23866
880.986	23600
881.112	23627
881.239	23497
881.366	23337
881.493	23246
881.619	23284
881.746	23109
881.872	23136
881.999	23166
882.125	23056
882.252	23121
882.378	23250
882.505	23356
882.631	23098
882.757	22892
882.883	22949
883.01	22790
883.136	22820
883.262	22710
883.388	22630
883.514	22862
883.64	22755
883.766	22618
883.892	22622
884.018	22599
884.143	22710
884.269	22854
884.395	22523
884.52	22413
884.646	22535
884.772	22440
884.897	22436
885.023	22409
885.148	22516
885.274	22615
885.399	22736
885.524	22360
885.65	22550
885.775	22512
885.9	22470
886.025	22584
886.15	22462
886.275	22451
886.4	22478
886.525	22440
886.65	22329
886.775	22409
886.9	22554
887.025	22736
887.149	22421
887.274	22196
887.399	22322
887.523	22337
887.648	22128
887.773	22143
887.897	22303
888.021	22386
888.146	22181
888.27	22341
888.395	22276
888.519	22230
888.643	22131
888.767	22337
888.891	22150
889.015	22169
889.139	22185
889.263	21968
889.387	22116
889.511	22185
889.635	22257
889.759	21930
889.883	21987
890.006	22074
890.13	22070
890.254	21964
890.377	21987
890.501	21759
890.624	21736
890.748	21736
890.871	21629
890.995	21679
891.118	21485
891.241	21591
891.364	21724
891.488	21690
891.611	21644
891.734	21553
891.857	21523
891.98	21641
892.103	21618
892.226	21492
892.349	21416
892.471	21279
892.594	21587
892.717	21439
892.839	21367
892.962	21561
893.085	21348
893.207	21412
893.33	21336
893.452	21329
893.575	21504
893.697	21424
893.819	21633
893.941	21603
894.064	21526
894.186	21420
894.308	21317
894.43	21519
894.552	21530
894.674	21466
894.796	21310
894.918	21507
895.04	21408
895.161	21431
895.283	21507
895.405	21412
895.526	21359
895.648	21321
895.769	21367
895.891	21344
896.012	21507
896.134	21538
896.255	21363
896.376	21348
896.498	21348
896.619	21515
896.74	21416
896.861	21454
896.982	21785
897.103	21812
897.224	21743
897.345	21534
897.466	21542
897.587	21618
897.708	21850
897.828	21614
897.949	21477
898.07	21428
898.19	21523
898.311	21644
898.431	21447
898.552	21580
898.672	21591
898.792	21686
898.913	21583
899.033	21473
899.153	21374
899.273	21367
899.393	21237
899.513	21317
899.633	21222
899.753	21355
899.873	21207
899.993	21321
900.113	21283
900.232	21245
900.352	21211
900.472	21062
900.591	21036
900.711	21131
900.83	21036
900.95	21142
901.069	21176
901.189	20857
901.308	20838
901.427	20594
901.546	20587
901.665	20735
901.784	20659
901.904	20564
902.023	20434
902.141	20214
902.26	20317
902.379	20187
902.498	20050
902.617	20020
902.735	20199
902.854	20111
902.973	20149
903.091	19936
903.21	19845
903.328	19746
903.446	19681
903.565	19742
903.683	19620
903.801	19518
903.919	19537
904.038	19533
904.156	19301
904.274	19567
904.392	19434
904.51	19335
904.627	19282
904.745	19335
904.863	19343
904.981	19129
905.098	18951
905.216	19027
905.334	19046
905.451	19008
905.569	18977
905.686	19050
905.803	18966
905.921	18787
906.038	18943
906.155	18795
906.272	18749
906.389	18749
906.506	18692
906.623	18498
906.74	18620
906.857	18441
906.974	18445
907.091	18570
907.208	18669
907.324	18517
907.441	18433
907.557	18308
907.674	18353
907.79	18182
907.907	18254
908.023	18323
908.139	18251
908.256	18121
908.372	18045
908.488	18045
908.604	17977
908.72	18003
908.836	17988
908.952	17828
909.068	17931
909.184	18076
909.3	17988
909.415	18087
909.531	17992
909.647	17752
909.762	17623
909.878	17611
909.993	17767
910.108	17672
910.224	17493
910.339	17634
910.454	17535
910.57	17486
910.685	17383
910.8	17710
910.915	17554
911.03	17448
911.145	17277
911.259	17181
911.374	17231
911.489	17159
911.604	17025
911.718	16976
911.833	16892
911.947	16869
912.062	16839
912.176	17041
912.291	16896
912.405	16873
912.519	17159
912.633	17162
912.748	16999
912.862	17003
912.976	16679
913.09	16755
913.204	16740
913.318	16767
913.431	17003
913.545	16869
913.659	16938
913.772	16733
913.886	16630
914	16558
914.113	16596
914.226	16626
914.34	16645
914.453	16390
914.566	16569
914.68	16481
914.793	16363
914.906	16135
915.019	16234
915.132	16071
915.245	16082
915.358	16192
915.47	16067
915.583	16002
915.696	16082
915.809	16299
915.921	16253
916.034	16032
916.146	16029
916.259	16112
916.371	16082
916.483	16051
916.595	15911
916.708	16002
916.82	15991
916.932	15850
917.044	15937
917.156	15876
917.268	15717
917.38	15827
917.491	15656
917.603	15747
917.715	15747
917.826	15797
917.938	15747
918.049	15599
918.161	15732
918.272	15766
918.384	15793
918.495	15584
918.606	15599
918.717	15408
918.828	15523
918.939	15519
919.05	15348
919.161	15504
919.272	15169
919.383	15279
919.494	15523
919.604	15648
919.715	15481
919.826	15287
919.936	15370
920.047	15610
920.157	15439
920.267	15610
920.378	15450
920.488	15443
920.598	15534
920.708	15694
920.818	15667
920.928	15614
921.038	15698
921.148	15584
921.258	15294
921.368	15268
921.477	15169
921.587	15131
921.697	15020
921.806	15104
921.916	15112
922.025	14857
922.134	14788
922.244	14667
922.353	14804
922.462	14670
922.571	14606
922.68	14434
922.789	14396
922.898	14412
923.007	14320
923.116	14476
923.224	14442
923.333	14317
923.442	14237
923.55	14103
923.659	14202
923.767	14396
923.876	14244
923.984	14191
924.092	14065
924.201	14183
924.309	14145
924.417	14119
924.525	14035
924.633	14126
924.741	14899
924.849	13803
924.956	13917
925.064	13826
925.172	13757
925.279	13822
925.387	13852
925.494	13788
925.602	13875
925.709	13833
925.816	13731
925.924	13696
926.031	13849
926.138	13731
926.245	13704
926.352	13685
926.459	13734
926.566	13761
926.673	13681
926.779	13559
926.886	13453
926.993	13244
927.099	13438
927.206	13343
927.312	13278
927.419	13388
927.525	13384
927.631	13422
927.737	13194
927.843	13232
927.95	13145
928.056	13091
928.162	13194
928.267	13202
928.373	13700
928.479	13213
928.585	12935
928.69	13126
928.796	13183
928.901	12996
929.007	12905
929.112	12993
929.218	12901
929.323	12909
929.428	12829
929.533	12993
929.638	12814
929.743	12779
929.848	12776
929.953	12856
930.058	12798
930.163	12551
930.267	12540
930.372	12734
930.477	12502
930.581	12722
930.685	12597
930.79	12292
930.894	12369
930.998	12456
931.103	12395
931.207	12152
931.311	12129
931.415	11916
931.519	11836
931.623	11741
