Data from test_V78500241_3474.txt Node
Date: Fri Mar 25 16:05:52 CST 2022
User: usil
Spectrometer: V785-0024
Trigger mode: 0
Integration Time (sec): 4.000000E-1
Scans to average: 1
Nonlinearity correction enabled: false
Boxcar width: 0
Storing dark spectrum: false
XAxis mode: Wavelengths
Number of Pixels in Spectrum: 1024
>>>>>Begin Spectral Data<<<<<
801.071	29090
801.214	29006
801.356	28778
801.499	28881
801.641	28577
801.783	28630
801.926	28675
802.068	28683
802.211	28481
802.353	28497
802.496	28276
802.638	28348
802.78	28291
802.923	28265
803.065	28128
803.208	28287
803.35	28489
803.492	28470
803.635	28542
803.777	28440
803.919	28706
804.061	28999
804.204	28622
804.346	28656
804.488	28611
804.63	28493
804.773	28497
804.915	28713
805.057	28786
805.199	28736
805.341	28748
805.483	28801
805.626	28744
805.768	28637
805.91	28915
806.052	28915
806.194	28683
806.336	28866
806.478	28892
806.62	28660
806.762	28850
806.904	29067
807.046	29299
807.188	29223
807.33	29277
807.472	29307
807.614	29132
807.756	29269
807.898	28946
808.04	28850
808.182	29018
808.324	29121
808.465	29174
808.607	29318
808.749	29402
808.891	29600
809.033	29748
809.174	29471
809.316	29547
809.458	29455
809.6	29433
809.741	29509
809.883	29737
810.025	29813
810.166	29809
810.308	29627
810.45	29775
810.591	29733
810.733	29634
810.875	29497
811.016	29448
811.158	29364
811.299	29630
811.441	29756
811.582	29627
811.724	29539
811.865	29551
812.007	29429
812.148	29467
812.29	29474
812.431	29752
812.573	29802
812.714	30007
812.855	30091
812.997	30068
813.138	30235
813.279	30045
813.421	30045
813.562	29912
813.703	29847
813.845	29695
813.986	29509
814.127	29318
814.268	29315
814.41	29360
814.551	29185
814.692	29254
814.833	29258
814.974	29212
815.115	29292
815.256	29220
815.397	29159
815.539	29155
815.68	29060
815.821	29029
815.962	29056
816.103	29105
816.244	29037
816.385	28843
816.526	28702
816.666	28550
816.807	28618
816.948	28759
817.089	28649
817.23	28596
817.371	28516
817.512	28500
817.653	28573
817.793	28436
817.934	28554
818.075	28478
818.216	28630
818.356	28565
818.497	28485
818.638	28219
818.778	28318
818.919	28318
819.06	28436
819.2	28348
819.341	28630
819.481	28645
819.622	28740
819.762	28896
819.903	28881
820.043	28774
820.184	28706
820.324	28653
820.465	28793
820.605	28664
820.746	28653
820.886	28519
821.026	28702
821.167	28641
821.307	28752
821.447	28672
821.588	28641
821.728	28375
821.868	28211
822.008	28135
822.149	28078
822.289	28048
822.429	27949
822.569	27732
822.709	27789
822.849	27454
822.99	27667
823.13	27435
823.27	27412
823.41	27226
823.55	27203
823.69	27401
823.83	27408
823.97	27332
824.11	27146
824.25	27211
824.389	27321
824.529	27199
824.669	27275
824.809	27298
824.949	27294
825.089	27287
825.228	27272
825.368	27051
825.508	27077
825.648	27058
825.787	27180
825.927	27218
826.067	26975
826.206	27093
826.346	27058
826.485	27283
826.625	26986
826.765	27275
826.904	27192
827.044	26777
827.183	27024
827.323	26914
827.462	26914
827.601	26895
827.741	26743
827.88	26777
828.02	26682
828.159	26746
828.298	26902
828.437	26853
828.577	26724
828.716	26921
828.855	26811
828.994	26511
829.134	26511
829.273	26465
829.412	26457
829.551	26537
829.69	26530
829.829	26530
829.968	26457
830.107	26632
830.246	26609
830.385	26484
830.524	26423
830.663	26286
830.802	26366
830.941	26183
831.08	25997
831.219	26122
831.357	26263
831.496	26290
831.635	26138
831.774	26058
831.913	25913
832.051	25966
832.19	25921
832.329	25993
832.467	25841
832.606	25681
832.744	25658
832.883	25860
833.022	25704
833.16	25841
833.299	25921
833.437	25841
833.576	25875
833.714	25887
833.852	25932
833.991	26035
834.129	26138
834.267	25947
834.406	25898
834.544	25955
834.682	25917
834.821	25780
834.959	26027
835.097	25830
835.235	25818
835.373	25841
835.511	25864
835.65	25586
835.788	25750
835.926	25495
836.064	25544
836.202	25430
836.34	25670
836.478	25803
836.615	25597
836.753	25833
836.891	25727
837.029	25582
837.167	25693
837.305	25521
837.443	25548
837.58	25548
837.718	25460
837.856	25521
837.993	25552
838.131	25529
838.269	25476
838.406	25426
838.544	25293
838.681	25293
838.819	25164
838.956	24958
839.094	25019
839.231	24973
839.369	25133
839.506	25350
839.643	25095
839.781	25133
839.918	24837
840.055	24947
840.193	24947
840.33	24871
840.467	24867
840.604	24951
840.742	25179
840.879	24631
841.016	24768
841.153	24719
841.29	24966
841.427	24886
841.564	24894
841.701	24829
841.838	24817
841.975	24673
842.112	24734
842.249	24772
842.385	24722
842.522	24791
842.659	24764
842.796	24601
842.933	24483
843.069	24620
843.206	24513
843.343	24601
843.479	24707
843.616	24639
843.752	24422
843.889	24414
844.025	24505
844.162	24357
844.298	24471
844.435	24433
844.571	24289
844.708	24437
844.844	24681
844.98	24429
845.117	24464
845.253	24285
845.389	24433
845.525	24247
845.661	24178
845.798	24087
845.934	24121
846.07	24182
846.206	24186
846.342	24289
846.478	24133
846.614	23920
846.75	23840
846.886	23813
847.022	23866
847.158	23790
847.294	23817
847.429	23904
847.565	23817
847.701	24174
847.837	23577
847.972	23486
848.108	23585
848.244	23843
848.379	23448
848.515	23376
848.65	23402
848.786	23467
848.921	23493
849.057	23604
849.192	23501
849.328	23440
849.463	23463
849.598	23334
849.734	23242
849.869	23315
850.004	23064
850.14	23212
850.275	23174
850.41	23098
850.545	23121
850.68	23185
850.815	23105
850.95	23151
851.085	23353
851.22	23364
851.355	23212
851.49	23185
851.625	23204
851.76	23124
851.895	23159
852.03	23124
852.165	23242
852.299	23178
852.434	23250
852.569	23181
852.703	23208
852.838	23322
852.973	23364
853.107	23372
853.242	23071
853.376	23037
853.511	22961
853.645	23075
853.78	23136
853.914	23033
854.048	22961
854.183	23109
854.317	23090
854.451	23212
854.585	23006
854.72	23067
854.854	23200
854.988	22930
855.122	23022
855.256	22930
855.39	22820
855.524	23018
855.658	23067
855.792	22976
855.926	22999
856.06	22999
856.194	23064
856.327	22987
856.461	22915
856.595	22946
856.729	22961
856.862	23159
856.996	22991
857.13	23083
857.263	23143
857.397	23037
857.53	23014
857.664	23083
857.797	23033
857.931	23181
858.064	22953
858.197	23136
858.331	22999
858.464	23037
858.597	22987
858.731	22949
858.864	22957
858.997	22987
859.13	23117
859.263	23033
859.396	23193
859.529	22980
859.662	23006
859.795	22972
859.928	23029
860.061	23128
860.194	23117
860.327	23132
860.46	23052
860.592	22934
860.725	23223
860.858	23174
860.99	23086
861.123	23003
861.256	22980
861.388	22987
861.521	23684
861.653	22862
861.786	22725
861.918	22896
862.05	23033
862.183	22923
862.315	23018
862.447	22965
862.58	22965
862.712	22873
862.844	22611
862.976	22793
863.108	22839
863.24	23064
863.372	22649
863.504	22771
863.636	22782
863.768	22691
863.9	22748
864.032	22618
864.164	22733
864.296	22733
864.428	22835
864.559	22759
864.691	22866
864.823	22641
864.954	22729
865.086	22592
865.217	22542
865.349	22519
865.48	22565
865.612	22554
865.743	22797
865.875	22596
866.006	22535
866.137	22630
866.269	22592
866.4	22489
866.531	22653
866.662	22424
866.793	22493
866.924	22497
867.055	22622
867.186	22538
867.317	22519
867.448	22375
867.579	22421
867.71	22440
867.841	22379
867.972	22470
868.103	22451
868.233	22417
868.364	22542
868.495	22508
868.625	22580
868.756	22873
868.886	22626
869.017	22752
869.147	22755
869.278	22850
869.408	22687
869.539	22645
869.669	22854
869.799	22782
869.929	22778
870.06	22885
870.19	23044
870.32	23029
870.45	22927
870.58	23143
870.71	23204
870.84	23124
870.97	23212
871.1	23185
871.23	23284
871.36	23299
871.489	23337
871.619	23280
871.749	23311
871.879	23455
872.008	23585
872.138	23459
872.267	23246
872.397	23212
872.526	23242
872.656	23250
872.785	23170
872.915	23414
873.044	23345
873.173	23353
873.303	23471
873.432	23410
873.561	23421
873.69	23379
873.819	23372
873.948	23398
874.077	23387
874.206	23303
874.335	23406
874.464	23490
874.593	23684
874.722	23668
874.851	23566
874.979	23585
875.108	23649
875.237	23566
875.365	23398
875.494	23649
875.623	23619
875.751	23592
875.88	23512
876.008	23691
876.136	23729
876.265	23882
876.393	24083
876.521	24110
876.65	24083
876.778	24064
876.906	23923
877.034	23855
877.162	23961
877.29	23901
877.418	23916
877.546	23893
877.674	23939
877.802	23889
877.93	23946
878.058	23984
878.185	23722
878.313	23821
878.441	23859
878.568	23954
878.696	23798
878.824	23923
878.951	24018
879.079	24064
879.206	24213
879.333	24129
879.461	23950
879.588	23920
879.715	24220
879.842	24163
879.97	23942
880.097	23699
880.224	23767
880.351	23836
880.478	23771
880.605	23649
880.732	23634
880.859	23988
880.986	23840
881.112	23756
881.239	23585
881.366	23493
881.493	23383
881.619	23269
881.746	23326
881.872	23197
881.999	23208
882.125	23166
882.252	23356
882.378	23261
882.505	23368
882.631	23136
882.757	23109
882.883	23067
883.01	22877
883.136	22881
883.262	22850
883.388	22797
883.514	22850
883.64	23003
883.766	22759
883.892	22767
884.018	22843
884.143	22725
884.269	22953
884.395	22679
884.52	22500
884.646	22569
884.772	22596
884.897	22489
885.023	22603
885.148	22729
885.274	22755
885.399	22710
885.524	22592
885.65	22637
885.775	22550
885.9	22519
886.025	22710
886.15	22691
886.275	22535
886.4	22504
886.525	22451
886.65	22478
886.775	22436
886.9	22630
887.025	22771
887.149	22523
887.274	22455
887.399	22291
887.523	22268
887.648	22386
887.773	22303
887.897	22360
888.021	22344
888.146	22238
888.27	22516
888.395	22440
888.519	22360
888.643	22173
888.767	22265
888.891	22215
889.015	22177
889.139	22135
889.263	22112
889.387	22261
889.511	22318
889.635	22162
889.759	22097
889.883	22169
890.006	22223
890.13	22097
890.254	22013
890.377	22048
890.501	21812
890.624	21838
890.748	21972
890.871	21766
890.995	21606
891.118	21572
891.241	21629
891.364	21641
891.488	21778
891.611	21717
891.734	21686
891.857	21739
891.98	21705
892.103	21766
892.226	21625
892.349	21507
892.471	21431
892.594	21534
892.717	21644
892.839	21488
892.962	21519
893.085	21679
893.207	21519
893.33	21610
893.452	21454
893.575	21591
893.697	21534
893.819	21698
893.941	21713
894.064	21759
894.186	21469
894.308	21424
894.43	21743
894.552	21485
894.674	21622
894.796	21496
894.918	21557
895.04	21481
895.161	21637
895.283	21542
895.405	21492
895.526	21382
895.648	21538
895.769	21515
895.891	21545
896.012	21625
896.134	21557
896.255	21538
896.376	21431
896.498	21454
896.619	21557
896.74	21485
896.861	21576
896.982	21713
897.103	21994
897.224	21724
897.345	21587
897.466	21701
897.587	21717
897.708	21812
897.828	21785
897.949	21603
898.07	21496
898.19	21641
898.311	21724
898.431	21648
898.552	21797
898.672	21838
898.792	21793
898.913	21633
899.033	21587
899.153	21485
899.273	21443
899.393	21424
899.513	21466
899.633	21412
899.753	21469
899.873	21268
899.993	21431
900.113	21321
900.232	21488
900.352	21393
900.472	21218
900.591	21127
900.711	21245
900.83	21222
900.95	21237
901.069	21249
901.189	21001
901.308	20724
901.427	20682
901.546	20769
901.665	20739
901.784	20781
901.904	20594
902.023	20568
902.141	20324
902.26	20214
902.379	20476
902.498	20389
902.617	20096
902.735	20305
902.854	20168
902.973	20145
903.091	19913
903.21	19963
903.328	19963
903.446	19822
903.565	19731
903.683	19742
903.801	19582
903.919	19643
904.038	19544
904.156	19449
904.274	19426
904.392	19422
904.51	19426
904.627	19392
904.745	19521
904.863	19457
904.981	19247
905.098	19152
905.216	19103
905.334	19107
905.451	19118
905.569	19072
905.686	19122
905.803	19046
905.921	18863
906.038	19027
906.155	18916
906.272	18863
906.389	18753
906.506	18700
906.623	18585
906.74	18525
906.857	18460
906.974	18604
907.091	18665
907.208	18715
907.324	18566
907.441	18506
907.557	18292
907.674	18327
907.79	18251
907.907	18338
908.023	18338
908.139	18350
908.256	18194
908.372	18182
908.488	18224
908.604	18091
908.72	17980
908.836	18148
908.952	18133
909.068	18117
909.184	18171
909.3	18121
909.415	18076
909.531	18072
909.647	17714
909.762	17783
909.878	17767
909.993	17691
910.108	17718
910.224	17691
910.339	17741
910.454	17691
910.57	17592
910.685	17532
910.8	17714
910.915	17619
911.03	17543
911.145	17474
911.259	17258
911.374	17242
911.489	17284
911.604	17159
911.718	17060
911.833	17041
911.947	16908
912.062	16957
912.176	17033
912.291	16991
912.405	17010
912.519	17296
912.633	17220
912.748	16991
912.862	17079
912.976	16839
913.09	16698
913.204	16698
913.318	16816
913.431	16911
913.545	16919
913.659	16957
913.772	16786
913.886	16634
914	16607
914.113	16850
914.226	16687
914.34	16828
914.453	16489
914.566	16607
914.68	16561
914.793	16527
914.906	16447
915.019	16253
915.132	16166
915.245	16166
915.358	16086
915.47	16166
915.583	16295
915.696	16158
915.809	16371
915.921	16398
916.034	16124
916.146	16044
916.259	16173
916.371	16276
916.483	16223
916.595	16017
916.708	16032
916.82	16002
916.932	15949
917.044	15987
917.156	15892
917.268	15797
917.38	15823
917.491	15762
917.603	15804
917.715	15945
917.826	15892
917.938	15800
918.049	15641
918.161	15808
918.272	15960
918.384	15789
918.495	15823
918.606	15633
918.717	15500
918.828	15606
918.939	15705
919.05	15443
919.161	15462
919.272	15272
919.383	15424
919.494	15568
919.604	15694
919.715	15462
919.826	15401
919.936	15439
920.047	15652
920.157	15447
920.267	15698
920.378	15591
920.488	15401
920.598	15637
920.708	15774
920.818	15709
920.928	15584
921.038	15819
921.148	15652
921.258	15397
921.368	15424
921.477	15294
921.587	15237
921.697	15100
921.806	15298
921.916	15051
922.025	14948
922.134	14876
922.244	14819
922.353	14819
922.462	14701
922.571	14659
922.68	14480
922.789	14495
922.898	14396
923.007	14480
923.116	14602
923.224	14526
923.333	14419
923.442	14313
923.55	14214
923.659	14415
923.767	14339
923.876	14267
923.984	14362
924.092	14229
924.201	14290
924.309	14164
924.417	14271
924.525	14126
924.633	14202
924.741	14864
924.849	13951
924.956	14084
925.064	13963
925.172	13894
925.279	13814
925.387	13875
925.494	13830
925.602	13921
925.709	13940
925.816	13734
925.924	13708
926.031	13860
926.138	13791
926.245	13791
926.352	13746
926.459	13776
926.566	13776
926.673	13677
926.779	13578
926.886	13502
926.993	13384
927.099	13316
927.206	13346
927.312	13278
927.419	13464
927.525	13362
927.631	13392
927.737	13278
927.843	13171
927.95	13065
928.056	13137
928.162	13183
928.267	13278
928.373	13670
928.479	13236
928.585	13015
928.69	13069
928.796	13126
928.901	13000
929.007	12909
929.112	12970
929.218	13023
929.323	12932
929.428	12871
929.533	12989
929.638	12787
929.743	12882
929.848	12924
929.953	12791
930.058	12734
930.163	12631
930.267	12563
930.372	12703
930.477	12433
930.581	12730
930.685	12608
930.79	12437
930.894	12513
930.998	12342
931.103	12513
931.207	12175
931.311	12064
931.415	12030
931.519	11798
931.623	11904
