Data from test_V78500241_409.txt Node
Date: Fri Mar 25 15:44:38 CST 2022
User: usil
Spectrometer: V785-0024
Trigger mode: 0
Integration Time (sec): 4.000000E-1
Scans to average: 1
Nonlinearity correction enabled: false
Boxcar width: 0
Storing dark spectrum: false
XAxis mode: Wavelengths
Number of Pixels in Spectrum: 1024
>>>>>Begin Spectral Data<<<<<
801.071	28820
801.214	28519
801.356	28440
801.499	28249
801.641	28223
801.783	28238
801.926	28325
802.068	28268
802.211	28173
802.353	28017
802.496	27876
802.638	27838
802.78	27884
802.923	27850
803.065	27800
803.208	27717
803.35	27972
803.492	27972
803.635	27983
803.777	27835
803.919	27956
804.061	28268
804.204	27983
804.346	27991
804.488	27956
804.63	27987
804.773	27922
804.915	27972
805.057	28067
805.199	27892
805.341	28112
805.483	28078
805.626	28135
805.768	28029
805.91	28147
806.052	28169
806.194	28048
806.336	28253
806.478	28139
806.62	28135
806.762	28265
806.904	28375
807.046	28641
807.188	28755
807.33	28451
807.472	28557
807.614	28512
807.756	28451
807.898	28329
808.04	28280
808.182	28379
808.324	28421
808.465	28462
808.607	28618
808.749	28733
808.891	28816
809.033	28812
809.174	28755
809.316	28729
809.458	28782
809.6	28744
809.741	28839
809.883	28839
810.025	28976
810.166	29086
810.308	29044
810.45	29067
810.591	28885
810.733	28755
810.875	28653
811.016	28725
811.158	28698
811.299	28847
811.441	28858
811.582	28919
811.724	28687
811.865	28744
812.007	28675
812.148	28675
812.29	28725
812.431	28850
812.573	28995
812.714	29113
812.855	29239
812.997	29246
813.138	29497
813.279	29330
813.421	29315
813.562	29220
813.703	29090
813.845	28923
813.986	28698
814.127	28363
814.268	28363
814.41	28303
814.551	28341
814.692	28409
814.833	28253
814.974	28375
815.115	28386
815.256	28219
815.397	28287
815.539	28211
815.68	28158
815.821	27987
815.962	28124
816.103	28070
816.244	28025
816.385	27876
816.526	27930
816.666	27690
816.807	27610
816.948	27698
817.089	27728
817.23	27603
817.371	27629
817.512	27572
817.653	27625
817.793	27660
817.934	27583
818.075	27561
818.216	27580
818.356	27519
818.497	27545
818.638	27306
818.778	27355
818.919	27237
819.06	27435
819.2	27469
819.341	27473
819.481	27534
819.622	27686
819.762	27930
819.903	27861
820.043	27732
820.184	27679
820.324	27625
820.465	27732
820.605	27785
820.746	27656
820.886	27511
821.026	27648
821.167	27679
821.307	27610
821.447	27515
821.588	27485
821.728	27348
821.868	27085
822.008	27013
822.149	27017
822.289	27066
822.429	26762
822.569	26503
822.709	26708
822.849	26514
822.99	26537
823.13	26571
823.27	26381
823.41	26290
823.55	26225
823.69	26229
823.83	26195
823.97	26271
824.11	26084
824.25	26096
824.389	26119
824.529	26218
824.669	26130
824.809	26396
824.949	26202
825.089	26240
825.228	26122
825.368	25932
825.508	25879
825.648	26046
825.787	26005
825.927	25993
826.067	26046
826.206	25879
826.346	25986
826.485	25959
826.625	25936
826.765	26069
826.904	25970
827.044	25753
827.183	25533
827.323	25609
827.462	25571
827.601	25639
827.741	25662
827.88	25518
828.02	25438
828.159	25693
828.298	25685
828.437	25616
828.577	25624
828.716	25620
828.855	25537
828.994	25221
829.134	25259
829.273	25365
829.412	25285
829.551	25228
829.69	25247
829.829	25301
829.968	25285
830.107	25400
830.246	25213
830.385	25206
830.524	25217
830.663	25126
830.802	24973
830.941	24829
831.08	24810
831.219	24856
831.357	24920
831.496	25034
831.635	24795
831.774	24776
831.913	24589
832.051	24604
832.19	24566
832.329	24578
832.467	24646
832.606	24490
832.744	24563
832.883	24521
833.022	24490
833.16	24574
833.299	24593
833.437	24570
833.576	24642
833.714	24547
833.852	24525
833.991	24563
834.129	24673
834.267	24627
834.406	24513
834.544	24570
834.682	24635
834.821	24460
834.959	24692
835.097	24456
835.235	24536
835.373	24448
835.511	24452
835.65	24460
835.788	24369
835.926	24091
836.064	24140
836.202	24190
836.34	24292
836.478	24384
836.615	24220
836.753	24445
836.891	24547
837.029	24304
837.167	24399
837.305	24186
837.443	24213
837.58	24213
837.718	24426
837.856	24159
837.993	24003
838.131	24190
838.269	24026
838.406	24041
838.544	24098
838.681	23912
838.819	23783
838.956	23619
839.094	23680
839.231	23821
839.369	23954
839.506	23980
839.643	23878
839.781	23573
839.918	23535
840.055	23714
840.193	23615
840.33	23596
840.467	23619
840.604	23668
840.742	23756
840.879	23383
841.016	23349
841.153	23379
841.29	23630
841.427	23486
841.564	23581
841.701	23543
841.838	23528
841.975	23311
842.112	23455
842.249	23406
842.385	23250
842.522	23512
842.659	23364
842.796	23318
842.933	23254
843.069	23181
843.206	23239
843.343	23166
843.479	23299
843.616	23181
843.752	23064
843.889	23132
844.025	23060
844.162	22938
844.298	23113
844.435	22965
844.571	22835
844.708	23075
844.844	23170
844.98	23181
845.117	23128
845.253	23022
845.389	22976
845.525	22885
845.661	22877
845.798	22691
845.934	22885
846.07	22793
846.206	22752
846.342	22805
846.478	22869
846.614	22504
846.75	22409
846.886	22398
847.022	22485
847.158	22474
847.294	22379
847.429	22424
847.565	22413
847.701	22512
847.837	22143
847.972	22120
848.108	22139
848.244	22215
848.379	22025
848.515	21964
848.65	21941
848.786	21945
848.921	22017
849.057	22166
849.192	22116
849.328	22120
849.463	22101
849.598	21899
849.734	21998
849.869	21861
850.004	21648
850.14	21819
850.275	21785
850.41	21743
850.545	21660
850.68	21690
850.815	21724
850.95	21816
851.085	22013
851.22	21842
851.355	21743
851.49	21739
851.625	21823
851.76	21720
851.895	21751
852.03	21728
852.165	21652
852.299	21720
852.434	21785
852.569	21686
852.703	21774
852.838	21789
852.973	21789
853.107	21774
853.242	21656
853.376	21523
853.511	21462
853.645	21408
853.78	21587
853.914	21428
854.048	21523
854.183	21507
854.317	21534
854.451	21732
854.585	21629
854.72	21504
854.854	21671
854.988	21515
855.122	21473
855.256	21416
855.39	21431
855.524	21561
855.658	21553
855.792	21568
855.926	21568
856.06	21549
856.194	21603
856.327	21618
856.461	21492
856.595	21454
856.729	21477
856.862	21682
856.996	21526
857.13	21694
857.263	21656
857.397	21625
857.53	21534
857.664	21660
857.797	21698
857.931	21618
858.064	21686
858.197	21698
858.331	21542
858.464	21462
858.597	21386
858.731	21408
858.864	21545
858.997	21485
859.13	21492
859.263	21545
859.396	21557
859.529	21553
859.662	21507
859.795	21428
859.928	21428
860.061	21603
860.194	21709
860.327	21557
860.46	21507
860.592	21728
860.725	21812
860.858	21625
860.99	21481
861.123	21477
861.256	21408
861.388	21450
861.521	22078
861.653	21443
861.786	21302
861.918	21329
862.05	21382
862.183	21462
862.315	21675
862.447	21523
862.58	21431
862.712	21173
862.844	21203
862.976	21416
863.108	21291
863.24	21682
863.372	21135
863.504	21157
863.636	21245
863.768	21211
863.9	21275
864.032	21192
864.164	21214
864.296	21256
864.428	21256
864.559	21355
864.691	21340
864.823	21321
864.954	21184
865.086	21283
865.217	21252
865.349	21127
865.48	21138
865.612	21093
865.743	21138
865.875	21135
866.006	21028
866.137	21085
866.269	21157
866.4	21119
866.531	21039
866.662	20956
866.793	21055
866.924	21070
867.055	21066
867.186	21237
867.317	20990
867.448	20914
867.579	21028
867.71	21017
867.841	20933
867.972	21138
868.103	20982
868.233	21001
868.364	21020
868.495	20982
868.625	21245
868.756	21389
868.886	21275
869.017	21199
869.147	21389
869.278	21424
869.408	21195
869.539	21272
869.669	21329
869.799	21454
869.929	21515
870.06	21389
870.19	21618
870.32	21496
870.45	21686
870.58	21599
870.71	21660
870.84	21865
870.97	21481
871.1	21675
871.23	21899
871.36	21899
871.489	21800
871.619	21892
871.749	21785
871.879	21983
872.008	21998
872.138	21819
872.267	21793
872.397	21785
872.526	21625
872.656	21614
872.785	21800
872.915	21785
873.044	22036
873.173	21880
873.303	21899
873.432	21934
873.561	21956
873.69	21987
873.819	21960
873.948	21983
874.077	21865
874.206	21838
874.335	21869
874.464	22044
874.593	22013
874.722	22093
874.851	22249
874.979	22196
875.108	22215
875.237	22036
875.365	21979
875.494	22112
875.623	22112
875.751	22074
875.88	22128
876.008	22128
876.136	22310
876.265	22481
876.393	22538
876.521	22675
876.65	22698
876.778	22512
876.906	22314
877.034	22451
877.162	22421
877.29	22413
877.418	22470
877.546	22497
877.674	22459
877.802	22360
877.93	22462
878.058	22493
878.185	22409
878.313	22485
878.441	22405
878.568	22185
878.696	22386
878.824	22584
878.951	22504
879.079	22683
879.206	22710
879.333	22717
879.461	22375
879.588	22672
879.715	22577
879.842	22573
879.97	22557
880.097	22257
880.224	22291
880.351	22470
880.478	22295
880.605	22169
880.732	22226
880.859	22500
880.986	22246
881.112	22341
881.239	22242
881.366	22051
881.493	21979
881.619	21743
881.746	21915
881.872	21797
881.999	21907
882.125	21709
882.252	21987
882.378	21850
882.505	21895
882.631	21873
882.757	21686
882.883	21705
883.01	21648
883.136	21545
883.262	21412
883.388	21363
883.514	21526
883.64	21599
883.766	21538
883.892	21264
884.018	21382
884.143	21545
884.269	21644
884.395	21275
884.52	21226
884.646	21123
884.772	21146
884.897	21077
885.023	21325
885.148	21287
885.274	21367
885.399	21241
885.524	21260
885.65	21089
885.775	21176
885.9	21089
886.025	21237
886.15	21180
886.275	21245
886.4	21146
886.525	21131
886.65	21055
886.775	21241
886.9	21363
887.025	21386
887.149	21260
887.274	21020
887.399	20902
887.523	20952
887.648	20785
887.773	20918
887.897	20998
888.021	20948
888.146	20861
888.27	20941
888.395	21028
888.519	20963
888.643	20990
888.767	21070
888.891	20872
889.015	20861
889.139	20762
889.263	20686
889.387	20735
889.511	20979
889.635	20891
889.759	20712
889.883	20640
890.006	20727
890.13	20811
890.254	20545
890.377	20663
890.501	20400
890.624	20431
890.748	20583
890.871	20461
890.995	20298
891.118	20237
891.241	20271
891.364	20317
891.488	20396
891.611	20267
891.734	20294
891.857	20495
891.98	20271
892.103	20389
892.226	20210
892.349	20351
892.471	20103
892.594	20244
892.717	20282
892.839	20324
892.962	20210
893.085	20343
893.207	20149
893.33	20229
893.452	20020
893.575	20180
893.697	20187
893.819	20374
893.941	20454
894.064	20358
894.186	20221
894.308	20100
894.43	20214
894.552	20412
894.674	20275
894.796	20221
894.918	20267
895.04	20069
895.161	20248
895.283	20317
895.405	20134
895.526	20164
895.648	20092
895.769	20252
895.891	20298
896.012	20374
896.134	20256
896.255	20229
896.376	20206
896.498	20244
896.619	20301
896.74	20199
896.861	20446
896.982	20746
897.103	20651
897.224	20602
897.345	20442
897.466	20355
897.587	20480
897.708	20606
897.828	20431
897.949	20381
898.07	20244
898.19	20415
898.311	20476
898.431	20286
898.552	20568
898.672	20568
898.792	20484
898.913	20480
899.033	20305
899.153	20309
899.273	20206
899.393	20142
899.513	20164
899.633	20149
899.753	20248
899.873	20130
899.993	20259
900.113	20073
900.232	20195
900.352	19997
900.472	19993
900.591	19959
900.711	19997
900.83	19967
900.95	20122
901.069	19982
901.189	19818
901.308	19696
901.427	19613
901.546	19658
901.665	19510
901.784	19510
901.904	19388
902.023	19274
902.141	19190
902.26	19137
902.379	19133
902.498	19061
902.617	19034
902.735	19012
902.854	19038
902.973	18981
903.091	18745
903.21	18734
903.328	18646
903.446	18555
903.565	18570
903.683	18506
903.801	18517
903.919	18525
904.038	18479
904.156	18285
904.274	18361
904.392	18194
904.51	18167
904.627	18136
904.745	18247
904.863	18300
904.981	18057
905.098	17908
905.216	17904
905.334	18007
905.451	17920
905.569	18019
905.686	17939
905.803	17885
905.921	17703
906.038	17760
906.155	17748
906.272	17684
906.389	17695
906.506	17467
906.623	17406
906.74	17467
906.857	17349
906.974	17402
907.091	17558
907.208	17672
907.324	17440
907.441	17368
907.557	17143
907.674	17128
907.79	17128
907.907	17098
908.023	17140
908.139	17083
908.256	17151
908.372	17003
908.488	16980
908.604	16965
908.72	16854
908.836	16782
908.952	16812
909.068	16984
909.184	16908
909.3	16866
909.415	16816
909.531	16843
909.647	16653
909.762	16565
909.878	16470
909.993	16618
910.108	16516
910.224	16489
910.339	16489
910.454	16451
910.57	16398
910.685	16287
910.8	16550
910.915	16523
911.03	16360
911.145	16238
911.259	16242
911.374	16192
911.489	16013
911.604	15968
911.718	15888
911.833	15934
911.947	15876
912.062	15778
912.176	15907
912.291	15960
912.405	15903
912.519	16097
912.633	16200
912.748	15956
912.862	15941
912.976	15736
913.09	15523
913.204	15660
913.318	15709
913.431	15766
913.545	15705
913.659	15816
913.772	15660
913.886	15591
914	15511
914.113	15542
914.226	15545
914.34	15587
914.453	15287
914.566	15500
914.68	15424
914.793	15370
914.906	15108
915.019	15097
915.132	15055
915.245	15157
915.358	15104
915.47	15131
915.583	15077
915.696	15108
915.809	15211
915.921	15214
916.034	15058
916.146	15020
916.259	15024
916.371	15089
916.483	15051
916.595	14960
916.708	14937
916.82	14872
916.932	14872
917.044	14929
917.156	14891
917.268	14788
917.38	14735
917.491	14826
917.603	14765
917.715	14826
917.826	14868
917.938	14716
918.049	14712
918.161	14682
918.272	14880
918.384	14781
918.495	14651
918.606	14556
918.717	14408
918.828	14571
918.939	14594
919.05	14415
919.161	14556
919.272	14332
919.383	14362
919.494	14492
919.604	14792
919.715	14412
919.826	14404
919.936	14492
920.047	14560
920.157	14488
920.267	14644
920.378	14461
920.488	14415
920.598	14594
920.708	14777
920.818	14632
920.928	14511
921.038	14883
921.148	14716
921.258	14404
921.368	14275
921.477	14183
921.587	14195
921.697	14046
921.806	14275
921.916	14065
922.025	13940
922.134	13936
922.244	13818
922.353	13833
922.462	13658
922.571	13681
922.68	13510
922.789	13381
922.898	13518
923.007	13343
923.116	13533
923.224	13518
923.333	13476
923.442	13278
923.55	13312
923.659	13278
923.767	13247
923.876	13240
923.984	13304
924.092	13255
924.201	13324
924.309	13289
924.417	13171
924.525	13175
924.633	13149
924.741	13883
924.849	12970
924.956	13050
925.064	12928
925.172	12875
925.279	12886
925.387	12996
925.494	12928
925.602	13107
925.709	12977
925.816	12810
925.924	12875
926.031	12905
926.138	12856
926.245	12920
926.352	12760
926.459	12913
926.566	12856
926.673	12726
926.779	12623
926.886	12696
926.993	12498
927.099	12536
927.206	12437
927.312	12486
927.419	12490
927.525	12464
927.631	12506
927.737	12361
927.843	12399
927.95	12308
928.056	12342
928.162	12251
928.267	12289
928.373	12856
928.479	12433
928.585	12110
928.69	12273
928.796	12292
928.901	12197
929.007	12022
929.112	12140
929.218	12076
929.323	12079
929.428	12030
929.533	12087
929.638	11923
929.743	11954
929.848	12038
929.953	11977
930.058	11874
930.163	11649
930.267	11748
930.372	11786
930.477	11642
930.581	11885
930.685	11733
930.79	11600
930.894	11634
930.998	11535
931.103	11691
931.207	11376
931.311	11277
931.415	11132
931.519	10980
931.623	10949
