Data from test_V78500241_3458.txt Node
Date: Fri Mar 25 16:05:45 CST 2022
User: usil
Spectrometer: V785-0024
Trigger mode: 0
Integration Time (sec): 4.000000E-1
Scans to average: 1
Nonlinearity correction enabled: false
Boxcar width: 0
Storing dark spectrum: false
XAxis mode: Wavelengths
Number of Pixels in Spectrum: 1024
>>>>>Begin Spectral Data<<<<<
801.071	28759
801.214	28683
801.356	28489
801.499	28519
801.641	28295
801.783	28474
801.926	28455
802.068	28405
802.211	28325
802.353	28150
802.496	28204
802.638	28135
802.78	28059
802.923	28109
803.065	27934
803.208	28040
803.35	28124
803.492	28120
803.635	28356
803.777	28257
803.919	28379
804.061	28634
804.204	28363
804.346	28287
804.488	28166
804.63	28344
804.773	28226
804.915	28405
805.057	28596
805.199	28443
805.341	28424
805.483	28561
805.626	28596
805.768	28432
805.91	28546
806.052	28459
806.194	28546
806.336	28744
806.478	28512
806.62	28561
806.762	28729
806.904	28854
807.046	29075
807.188	29018
807.33	29006
807.472	29033
807.614	28862
807.756	29044
807.898	28786
808.04	28793
808.182	28843
808.324	28805
808.465	28824
808.607	29006
808.749	29227
808.891	29322
809.033	29398
809.174	29280
809.316	29231
809.458	29250
809.6	29212
809.741	29353
809.883	29406
810.025	29638
810.166	29486
810.308	29395
810.45	29402
810.591	29440
810.733	29242
810.875	29299
811.016	29056
811.158	29121
811.299	29334
811.441	29372
811.582	29391
811.724	29345
811.865	29151
812.007	29277
812.148	29391
812.29	29250
812.431	29421
812.573	29558
812.714	29570
812.855	29817
812.997	29843
813.138	30068
813.279	29794
813.421	29813
813.562	29756
813.703	29512
813.845	29459
813.986	29121
814.127	28972
814.268	29018
814.41	28839
814.551	29003
814.692	29044
814.833	28999
814.974	28957
815.115	28900
815.256	28869
815.397	28904
815.539	28736
815.68	28725
815.821	28755
815.962	28687
816.103	28679
816.244	28615
816.385	28672
816.526	28565
816.666	28120
816.807	28253
816.948	28375
817.089	28371
817.23	28261
817.371	28246
817.512	28120
817.653	28382
817.793	28036
817.934	28249
818.075	28341
818.216	28257
818.356	28272
818.497	28185
818.638	27975
818.778	28116
818.919	28010
819.06	28059
819.2	28139
819.341	28295
819.481	28341
819.622	28394
819.762	28573
819.903	28466
820.043	28538
820.184	28398
820.324	28401
820.465	28481
820.605	28421
820.746	28424
820.886	28280
821.026	28474
821.167	28253
821.307	28443
821.447	28325
821.588	28276
821.728	28048
821.868	27949
822.008	27713
822.149	27679
822.289	27808
822.429	27431
822.569	27427
822.709	27492
822.849	27386
822.99	27340
823.13	27241
823.27	27211
823.41	27013
823.55	26979
823.69	27104
823.83	27081
823.97	27024
824.11	26838
824.25	26842
824.389	26807
824.529	26944
824.669	26925
824.809	27043
824.949	26910
825.089	27096
825.228	27001
825.368	26788
825.508	26686
825.648	26800
825.787	26750
825.927	26857
826.067	26864
826.206	26712
826.346	26891
826.485	26979
826.625	26754
826.765	26906
826.904	26864
827.044	26670
827.183	26746
827.323	26552
827.462	26587
827.601	26579
827.741	26571
827.88	26590
828.02	26495
828.159	26522
828.298	26575
828.437	26503
828.577	26507
828.716	26492
828.855	26560
828.994	26256
829.134	26187
829.273	26377
829.412	26138
829.551	26259
829.69	26206
829.829	26157
829.968	26290
830.107	26195
830.246	26282
830.385	26092
830.524	26157
830.663	25959
830.802	25974
830.941	25879
831.08	25689
831.219	25894
831.357	25788
831.496	25906
831.635	25883
831.774	25814
831.913	25780
832.051	25605
832.19	25472
832.329	25693
832.467	25571
832.606	25324
832.744	25400
832.883	25537
833.022	25358
833.16	25613
833.299	25453
833.437	25491
833.576	25548
833.714	25586
833.852	25605
833.991	25571
834.129	25578
834.267	25586
834.406	25643
834.544	25597
834.682	25632
834.821	25407
834.959	25556
835.097	25586
835.235	25544
835.373	25521
835.511	25483
835.65	25487
835.788	25297
835.926	25251
836.064	25206
836.202	25240
836.34	25358
836.478	25407
836.615	25457
836.753	25316
836.891	25392
837.029	25343
837.167	25320
837.305	25244
837.443	25266
837.58	25206
837.718	25255
837.856	25209
837.993	25148
838.131	25316
838.269	24985
838.406	25076
838.544	24958
838.681	24798
838.819	24856
838.956	24661
839.094	24623
839.231	24673
839.369	24856
839.506	25103
839.643	24863
839.781	24635
839.918	24627
840.055	24654
840.193	24612
840.33	24623
840.467	24604
840.604	24639
840.742	24798
840.879	24414
841.016	24426
841.153	24517
841.29	24745
841.427	24570
841.564	24566
841.701	24532
841.838	24445
841.975	24429
842.112	24479
842.249	24319
842.385	24399
842.522	24540
842.659	24505
842.796	24224
842.933	24296
843.069	24277
843.206	24296
843.343	24410
843.479	24304
843.616	24270
843.752	24224
843.889	24057
844.025	24292
844.162	24049
844.298	24171
844.435	24152
844.571	24015
844.708	24125
844.844	24346
844.98	24273
845.117	24117
845.253	24076
845.389	24018
845.525	23931
845.661	23916
845.798	23840
845.934	23847
846.07	23920
846.206	23885
846.342	23912
846.478	23722
846.614	23680
846.75	23531
846.886	23589
847.022	23524
847.158	23528
847.294	23661
847.429	23512
847.565	23600
847.701	23805
847.837	23345
847.972	23250
848.108	23459
848.244	23372
848.379	23140
848.515	23044
848.65	23094
848.786	23136
848.921	23162
849.057	23216
849.192	23250
849.328	23273
849.463	23124
849.598	23094
849.734	23014
849.869	22831
850.004	22919
850.14	22911
850.275	22968
850.41	22824
850.545	22828
850.68	22843
850.815	22839
850.95	22927
851.085	22984
851.22	22930
851.355	22889
851.49	22930
851.625	22866
851.76	22942
851.895	22908
852.03	22854
852.165	22828
852.299	22873
852.434	23014
852.569	22904
852.703	22831
852.838	22984
852.973	23029
853.107	22911
853.242	22744
853.376	22873
853.511	22672
853.645	22767
853.78	22999
853.914	22710
854.048	22774
854.183	22717
854.317	22782
854.451	22908
854.585	22774
854.72	22679
854.854	22740
854.988	22683
855.122	22698
855.256	22580
855.39	22687
855.524	22740
855.658	22729
855.792	22831
855.926	22717
856.06	22805
856.194	22877
856.327	22702
856.461	22622
856.595	22687
856.729	22801
856.862	22824
856.996	22649
857.13	22683
857.263	22843
857.397	22782
857.53	22675
857.664	22748
857.797	22816
857.931	22828
858.064	22774
858.197	22900
858.331	22771
858.464	22653
858.597	22573
858.731	22588
858.864	22596
858.997	22588
859.13	22763
859.263	22767
859.396	22812
859.529	22565
859.662	22710
859.795	22729
859.928	22656
860.061	22934
860.194	22904
860.327	22820
860.46	22828
860.592	22790
860.725	22873
860.858	22828
860.99	22767
861.123	22713
861.256	22664
861.388	22771
861.521	23356
861.653	22584
861.786	22531
861.918	22485
862.05	22649
862.183	22630
862.315	22774
862.447	22782
862.58	22592
862.712	22451
862.844	22485
862.976	22523
863.108	22577
863.24	22759
863.372	22413
863.504	22291
863.636	22432
863.768	22405
863.9	22356
864.032	22226
864.164	22409
864.296	22443
864.428	22630
864.559	22481
864.691	22512
864.823	22310
864.954	22474
865.086	22382
865.217	22230
865.349	22322
865.48	22280
865.612	22257
865.743	22443
865.875	22341
866.006	22322
866.137	22379
866.269	22371
866.4	22268
866.531	22177
866.662	22200
866.793	22230
866.924	22284
867.055	22333
867.186	22223
867.317	22177
867.448	22173
867.579	22181
867.71	22177
867.841	22051
867.972	22211
868.103	22181
868.233	22097
868.364	22204
868.495	22310
868.625	22443
868.756	22649
868.886	22352
869.017	22436
869.147	22535
869.278	22531
869.408	22424
869.539	22360
869.669	22634
869.799	22405
869.929	22653
870.06	22409
870.19	22691
870.32	22809
870.45	22752
870.58	22889
870.71	23086
870.84	23010
870.97	22889
871.1	22839
871.23	22987
871.36	22987
871.489	23044
871.619	23056
871.749	23094
871.879	23189
872.008	23193
872.138	23090
872.267	23037
872.397	23010
872.526	22869
872.656	22877
872.785	22972
872.915	23033
873.044	23060
873.173	23048
873.303	23018
873.432	23071
873.561	23140
873.69	23151
873.819	23018
873.948	23235
874.077	23067
874.206	22999
874.335	23014
874.464	23242
874.593	23345
874.722	23212
874.851	23315
874.979	23398
875.108	23417
875.237	23280
875.365	23159
875.494	23197
875.623	23307
875.751	23250
875.88	23296
876.008	23474
876.136	23516
876.265	23672
876.393	23764
876.521	23691
876.65	23798
876.778	23665
876.906	23665
877.034	23592
877.162	23589
877.29	23627
877.418	23649
877.546	23687
877.674	23592
877.802	23627
877.93	23528
878.058	23653
878.185	23627
878.313	23497
878.441	23672
878.568	23482
878.696	23467
878.824	23760
878.951	23726
879.079	23882
879.206	24041
879.333	23764
879.461	23745
879.588	23790
879.715	23805
879.842	23950
879.97	23737
880.097	23539
880.224	23444
880.351	23452
880.478	23459
880.605	23398
880.732	23562
880.859	23733
880.986	23486
881.112	23448
881.239	23299
881.366	23151
881.493	23140
881.619	23075
881.746	23079
881.872	22900
881.999	23090
882.125	23029
882.252	22995
882.378	23083
882.505	23102
882.631	22892
882.757	22786
882.883	22816
883.01	22691
883.136	22611
883.262	22596
883.388	22637
883.514	22717
883.64	22713
883.766	22592
883.892	22500
884.018	22459
884.143	22702
884.269	22706
884.395	22485
884.52	22341
884.646	22306
884.772	22253
884.897	22173
885.023	22322
885.148	22375
885.274	22375
885.399	22344
885.524	22341
885.65	22306
885.775	22329
885.9	22303
886.025	22382
886.15	22386
886.275	22310
886.4	22154
886.525	22215
886.65	22333
886.775	22223
886.9	22325
887.025	22497
887.149	22303
887.274	22192
887.399	22139
887.523	22051
887.648	22010
887.773	21915
887.897	22063
888.021	22074
888.146	21956
888.27	22154
888.395	22139
888.519	22044
888.643	22067
888.767	22162
888.891	21903
889.015	21892
889.139	21895
889.263	21842
889.387	22082
889.511	22116
889.635	21930
889.759	21873
889.883	21918
890.006	21842
890.13	21968
890.254	21903
890.377	21865
890.501	21587
890.624	21462
890.748	21644
890.871	21530
890.995	21492
891.118	21363
891.241	21511
891.364	21386
891.488	21454
891.611	21496
891.734	21370
891.857	21435
891.98	21477
892.103	21530
892.226	21275
892.349	21443
892.471	21374
892.594	21355
892.717	21287
892.839	21310
892.962	21332
893.085	21310
893.207	21332
893.33	21298
893.452	21245
893.575	21272
893.697	21207
893.819	21481
893.941	21492
894.064	21355
894.186	21321
894.308	21138
894.43	21310
894.552	21572
894.674	21317
894.796	21184
894.918	21306
895.04	21264
895.161	21450
895.283	21233
895.405	21241
895.526	21291
895.648	21260
895.769	21264
895.891	21317
896.012	21374
896.134	21401
896.255	21340
896.376	21237
896.498	21466
896.619	21222
896.74	21325
896.861	21313
896.982	21717
897.103	21637
897.224	21538
897.345	21447
897.466	21382
897.587	21545
897.708	21656
897.828	21549
897.949	21408
898.07	21367
898.19	21515
898.311	21553
898.431	21389
898.552	21504
898.672	21405
898.792	21542
898.913	21477
899.033	21408
899.153	21287
899.273	21199
899.393	21245
899.513	21256
899.633	21264
899.753	21241
899.873	21230
899.993	21245
900.113	21142
900.232	21291
900.352	21119
900.472	21131
900.591	21013
900.711	21123
900.83	20906
900.95	21108
901.069	21009
901.189	20781
901.308	20617
901.427	20438
901.546	20552
901.665	20629
901.784	20678
901.904	20370
902.023	20294
902.141	20199
902.26	20081
902.379	20221
902.498	20058
902.617	20005
902.735	20153
902.854	19940
902.973	20088
903.091	19807
903.21	19696
903.328	19662
903.446	19719
903.565	19396
903.683	19563
903.801	19396
903.919	19578
904.038	19464
904.156	19274
904.274	19263
904.392	19301
904.51	19206
904.627	19221
904.745	19274
904.863	19301
904.981	19152
905.098	18897
905.216	18924
905.334	18989
905.451	18916
905.569	18932
905.686	19008
905.803	18802
905.921	18673
906.038	18791
906.155	18772
906.272	18703
906.389	18593
906.506	18498
906.623	18437
906.74	18418
906.857	18292
906.974	18369
907.091	18509
907.208	18582
907.324	18323
907.441	18315
907.557	18095
907.674	18174
907.79	18003
907.907	18064
908.023	18114
908.139	18152
908.256	18098
908.372	17992
908.488	18095
908.604	17996
908.72	17859
908.836	17832
908.952	17897
909.068	17927
909.184	17893
909.3	17813
909.415	17912
909.531	17832
909.647	17665
909.762	17539
909.878	17452
909.993	17672
910.108	17532
910.224	17589
910.339	17425
910.454	17444
910.57	17360
910.685	17277
910.8	17535
910.915	17512
911.03	17258
911.145	17258
911.259	17223
911.374	17155
911.489	17041
911.604	17045
911.718	16900
911.833	16934
911.947	16782
912.062	16755
912.176	16919
912.291	16847
912.405	16896
912.519	17178
912.633	17094
912.748	17010
912.862	16831
912.976	16740
913.09	16535
913.204	16641
913.318	16656
913.431	16839
913.545	16683
913.659	16797
913.772	16733
913.886	16436
914	16440
914.113	16565
914.226	16580
914.34	16558
914.453	16512
914.566	16440
914.68	16432
914.793	16363
914.906	16074
915.019	16112
915.132	15975
915.245	16002
915.358	16071
915.47	16181
915.583	16036
915.696	15987
915.809	16116
915.921	16112
916.034	15960
916.146	15903
916.259	15907
916.371	15975
916.483	16013
916.595	15922
916.708	15835
916.82	15835
916.932	15797
917.044	15850
917.156	15762
917.268	15576
917.38	15762
917.491	15625
917.603	15606
917.715	15778
917.826	15789
917.938	15629
918.049	15599
918.161	15603
918.272	15797
918.384	15739
918.495	15610
918.606	15443
918.717	15397
918.828	15454
918.939	15481
919.05	15275
919.161	15306
919.272	15317
919.383	15249
919.494	15420
919.604	15576
919.715	15454
919.826	15317
919.936	15332
920.047	15443
920.157	15386
920.267	15511
920.378	15287
920.488	15279
920.598	15511
920.708	15629
920.818	15473
920.928	15515
921.038	15652
921.148	15538
921.258	15336
921.368	15268
921.477	15074
921.587	15169
921.697	14952
921.806	15055
921.916	14952
922.025	14819
922.134	14800
922.244	14625
922.353	14689
922.462	14549
922.571	14556
922.68	14267
922.789	14377
922.898	14355
923.007	14282
923.116	14355
923.224	14343
923.333	14305
923.442	14164
923.55	14126
923.659	14176
923.767	14271
923.876	14138
923.984	14206
924.092	14062
924.201	14088
924.309	14164
924.417	14046
924.525	13986
924.633	13936
924.741	14914
924.849	13772
924.956	13947
925.064	13757
925.172	13655
925.279	13757
925.387	13784
925.494	13742
925.602	13890
925.709	13723
925.816	13613
925.924	13609
926.031	13708
926.138	13704
926.245	13712
926.352	13510
926.459	13658
926.566	13712
926.673	13540
926.779	13449
926.886	13468
926.993	13350
927.099	13320
927.206	13244
927.312	13228
927.419	13350
927.525	13209
927.631	13228
927.737	13057
927.843	13129
927.95	12996
928.056	13038
928.162	13065
928.267	13122
928.373	13731
928.479	13091
928.585	12787
928.69	13107
928.796	13069
928.901	12981
929.007	12726
929.112	12878
929.218	12863
929.323	12768
929.428	12719
929.533	12886
929.638	12745
929.743	12696
929.848	12692
929.953	12662
930.058	12604
930.163	12452
930.267	12452
930.372	12582
930.477	12437
930.581	12642
930.685	12486
930.79	12315
930.894	12315
930.998	12308
931.103	12361
931.207	12072
931.311	12041
931.415	11893
931.519	11851
931.623	11581
