Data from test_V78500241_2383.txt Node
Date: Fri Mar 25 15:58:18 CST 2022
User: usil
Spectrometer: V785-0024
Trigger mode: 0
Integration Time (sec): 4.000000E-1
Scans to average: 1
Nonlinearity correction enabled: false
Boxcar width: 0
Storing dark spectrum: false
XAxis mode: Wavelengths
Number of Pixels in Spectrum: 1024
>>>>>Begin Spectral Data<<<<<
801.071	28611
801.214	28637
801.356	28409
801.499	28211
801.641	28196
801.783	28207
801.926	28188
802.068	28238
802.211	28200
802.353	28158
802.496	28090
802.638	27979
802.78	27869
802.923	27819
803.065	27736
803.208	27865
803.35	27956
803.492	28158
803.635	28112
803.777	28029
803.919	28017
804.061	28489
804.204	28181
804.346	27934
804.488	28112
804.63	28082
804.773	28013
804.915	28120
805.057	28265
805.199	28006
805.341	28314
805.483	28363
805.626	28341
805.768	28284
805.91	28333
806.052	28356
806.194	28325
806.336	28322
806.478	28325
806.62	28360
806.762	28459
806.904	28626
807.046	28915
807.188	28622
807.33	28782
807.472	28812
807.614	28664
807.756	28725
807.898	28535
808.04	28759
808.182	28592
808.324	28748
808.465	28516
808.607	28850
808.749	28968
808.891	29098
809.033	29235
809.174	29041
809.316	28949
809.458	29140
809.6	28847
809.741	28961
809.883	29060
810.025	29162
810.166	29185
810.308	29246
810.45	29220
810.591	29193
810.733	28934
810.875	28900
811.016	28957
811.158	28782
811.299	28946
811.441	29223
811.582	29258
811.724	28968
811.865	28961
812.007	28957
812.148	28812
812.29	29102
812.431	29185
812.573	29288
812.714	29402
812.855	29509
812.997	29627
813.138	29699
813.279	29585
813.421	29383
813.562	29318
813.703	29326
813.845	29242
813.986	29079
814.127	28736
814.268	28736
814.41	28748
814.551	28618
814.692	28744
814.833	28687
814.974	28527
815.115	28721
815.256	28561
815.397	28569
815.539	28497
815.68	28436
815.821	28386
815.962	28538
816.103	28489
816.244	28379
816.385	28318
816.526	28207
816.666	28120
816.807	27827
816.948	28036
817.089	28074
817.23	27960
817.371	27918
817.512	27964
817.653	27987
817.793	27964
817.934	27987
818.075	28055
818.216	27979
818.356	27972
818.497	27918
818.638	27629
818.778	27747
818.919	27724
819.06	27819
819.2	27835
819.341	27937
819.481	28055
819.622	28211
819.762	28447
819.903	28230
820.043	28177
820.184	28310
820.324	28116
820.465	28154
820.605	28116
820.746	28093
820.886	28124
821.026	28143
821.167	28013
821.307	28253
821.447	28078
821.588	27934
821.728	27934
821.868	27709
822.008	27511
822.149	27644
822.289	27610
822.429	27264
822.569	27226
822.709	27241
822.849	27001
822.99	26982
823.13	27116
823.27	26963
823.41	26853
823.55	26682
823.69	26868
823.83	26830
823.97	26804
824.11	26613
824.25	26560
824.389	26617
824.529	26807
824.669	26724
824.809	26788
824.949	26682
825.089	26800
825.228	26625
825.368	26419
825.508	26518
825.648	26499
825.787	26564
825.927	26522
826.067	26427
826.206	26552
826.346	26625
826.485	26564
826.625	26545
826.765	26648
826.904	26507
827.044	26305
827.183	26480
827.323	26164
827.462	26355
827.601	26328
827.741	26275
827.88	26389
828.02	26286
828.159	26225
828.298	26240
828.437	26298
828.577	26157
828.716	26355
828.855	26263
828.994	26012
829.134	26069
829.273	26069
829.412	25978
829.551	25890
829.69	26039
829.829	26001
829.968	26016
830.107	26039
830.246	26077
830.385	25925
830.524	25666
830.663	25670
830.802	25780
830.941	25590
831.08	25510
831.219	25647
831.357	25586
831.496	25742
831.635	25510
831.774	25525
831.913	25578
832.051	25381
832.19	25400
832.329	25346
832.467	25202
832.606	25164
832.744	25187
832.883	25251
833.022	25088
833.16	25221
833.299	25308
833.437	25259
833.576	25293
833.714	25263
833.852	25255
833.991	25350
834.129	25263
834.267	25320
834.406	25346
834.544	25312
834.682	25274
834.821	25301
834.959	25335
835.097	25206
835.235	25244
835.373	25293
835.511	25289
835.65	25202
835.788	25198
835.926	24970
836.064	24932
836.202	24996
836.34	25110
836.478	25289
836.615	25008
836.753	25023
836.891	25209
837.029	25050
837.167	24985
837.305	25091
837.443	24920
837.58	24772
837.718	25000
837.856	24924
837.993	24924
838.131	24821
838.269	24817
838.406	24665
838.544	24768
838.681	24639
838.819	24475
838.956	24433
839.094	24323
839.231	24540
839.369	24509
839.506	24871
839.643	24715
839.781	24445
839.918	24330
840.055	24239
840.193	24308
840.33	24243
840.467	24334
840.604	24323
840.742	24616
840.879	24205
841.016	24228
841.153	24091
841.29	24247
841.427	24285
841.564	24369
841.701	24235
841.838	24289
841.975	24121
842.112	24110
842.249	24068
842.385	24038
842.522	24266
842.659	24190
842.796	24125
842.933	24011
843.069	24068
843.206	23950
843.343	24045
843.479	23908
843.616	23961
843.752	23771
843.889	23813
844.025	23984
844.162	23752
844.298	23889
844.435	23783
844.571	23775
844.708	23866
844.844	24018
844.98	23885
845.117	23935
845.253	23764
845.389	23714
845.525	23722
845.661	23672
845.798	23509
845.934	23585
846.07	23592
846.206	23562
846.342	23661
846.478	23471
846.614	23402
846.75	23185
846.886	23197
847.022	23261
847.158	23269
847.294	23227
847.429	23155
847.565	23326
847.701	23398
847.837	23075
847.972	22984
848.108	23064
848.244	23124
848.379	22873
848.515	23014
848.65	22782
848.786	22900
848.921	22927
849.057	23029
849.192	22938
849.328	22968
849.463	22923
849.598	22763
849.734	22759
849.869	22733
850.004	22569
850.14	22527
850.275	22740
850.41	22622
850.545	22596
850.68	22516
850.815	22660
850.95	22660
851.085	22828
851.22	22664
851.355	22573
851.49	22618
851.625	22382
851.76	22596
851.895	22432
852.03	22504
852.165	22565
852.299	22672
852.434	22713
852.569	22588
852.703	22649
852.838	22588
852.973	22835
853.107	22710
853.242	22462
853.376	22462
853.511	22325
853.645	22386
853.78	22519
853.914	22462
854.048	22478
854.183	22409
854.317	22546
854.451	22565
854.585	22390
854.72	22508
854.854	22611
854.988	22367
855.122	22512
855.256	22249
855.39	22272
855.524	22500
855.658	22557
855.792	22500
855.926	22440
856.06	22474
856.194	22478
856.327	22428
856.461	22485
856.595	22348
856.729	22500
856.862	22436
856.996	22462
857.13	22577
857.263	22554
857.397	22542
857.53	22489
857.664	22504
857.797	22592
857.931	22607
858.064	22535
858.197	22641
858.331	22440
858.464	22417
858.597	22432
858.731	22394
858.864	22310
858.997	22459
859.13	22310
859.263	22478
859.396	22497
859.529	22459
859.662	22386
859.795	22367
859.928	22470
860.061	22489
860.194	22565
860.327	22470
860.46	22398
860.592	22504
860.725	22683
860.858	22588
860.99	22386
861.123	22363
861.256	22405
861.388	22451
861.521	23151
861.653	22333
861.786	22230
861.918	22371
862.05	22253
862.183	22341
862.315	22405
862.447	22443
862.58	22276
862.712	22143
862.844	22116
862.976	22200
863.108	22200
863.24	22668
863.372	21994
863.504	22093
863.636	22169
863.768	22139
863.9	22147
864.032	22036
864.164	22093
864.296	22200
864.428	22200
864.559	22192
864.691	22204
864.823	22223
864.954	22082
865.086	22173
865.217	22040
865.349	21888
865.48	21922
865.612	21865
865.743	22105
865.875	22101
866.006	21964
866.137	22051
866.269	21922
866.4	22010
866.531	21953
866.662	21972
866.793	22029
866.924	22021
867.055	21975
867.186	21876
867.317	21968
867.448	21812
867.579	21983
867.71	21915
867.841	22032
867.972	21934
868.103	21972
868.233	21953
868.364	21899
868.495	21987
868.625	22173
868.756	22322
868.886	22055
869.017	22196
869.147	22242
869.278	22329
869.408	22185
869.539	22200
869.669	22287
869.799	22230
869.929	22242
870.06	22154
870.19	22588
870.32	22409
870.45	22466
870.58	22432
870.71	22694
870.84	22607
870.97	22451
871.1	22481
871.23	22694
871.36	22839
871.489	22763
871.619	22782
871.749	22748
871.879	22896
872.008	22858
872.138	22774
872.267	22774
872.397	22596
872.526	22687
872.656	22462
872.785	22653
872.915	22831
873.044	22824
873.173	22805
873.303	22763
873.432	22854
873.561	22934
873.69	22771
873.819	22835
873.948	22881
874.077	22710
874.206	22679
874.335	22702
874.464	22839
874.593	22972
874.722	22972
874.851	23022
874.979	23052
875.108	23064
875.237	22873
875.365	22911
875.494	22961
875.623	23105
875.751	22904
875.88	23029
876.008	23124
876.136	23128
876.265	23383
876.393	23501
876.521	23444
876.65	23520
876.778	23471
876.906	23474
877.034	23288
877.162	23353
877.29	23391
877.418	23414
877.546	23356
877.674	23223
877.802	23181
877.93	23356
878.058	23395
878.185	23299
878.313	23315
878.441	23284
878.568	23121
878.696	23315
878.824	23425
878.951	23429
879.079	23562
879.206	23718
879.333	23524
879.461	23520
879.588	23376
879.715	23459
879.842	23608
879.97	23425
880.097	23216
880.224	23235
880.351	23296
880.478	23181
880.605	23083
880.732	23105
880.859	23391
880.986	23174
881.112	23075
881.239	23010
881.366	22980
881.493	22755
881.619	22790
881.746	22797
881.872	22729
881.999	22759
882.125	22641
882.252	22717
882.378	22611
882.505	22805
882.631	22554
882.757	22500
882.883	22592
883.01	22413
883.136	22287
883.262	22352
883.388	22280
883.514	22303
883.64	22394
883.766	22325
883.892	22166
884.018	22139
884.143	22310
884.269	22512
884.395	22036
884.52	22002
884.646	21983
884.772	22059
884.897	21960
885.023	22021
885.148	22048
885.274	22150
885.399	22124
885.524	22086
885.65	22086
885.775	21930
885.9	22070
886.025	22196
886.15	22109
886.275	21934
886.4	21972
886.525	22006
886.65	21922
886.775	22112
886.9	22105
887.025	22344
887.149	22013
887.274	21930
887.399	21907
887.523	21819
887.648	21736
887.773	21709
887.897	21705
888.021	21781
888.146	21732
888.27	21846
888.395	21876
888.519	21804
888.643	21842
888.767	21861
888.891	21736
889.015	21675
889.139	21778
889.263	21614
889.387	21644
889.511	21743
889.635	21637
889.759	21637
889.883	21599
890.006	21656
890.13	21610
890.254	21576
890.377	21416
890.501	21192
890.624	21321
890.748	21477
890.871	21249
890.995	21116
891.118	21108
891.241	21222
891.364	21058
891.488	21294
891.611	21142
891.734	21207
891.857	21192
891.98	21218
892.103	21119
892.226	21214
892.349	21146
892.471	20918
892.594	20990
892.717	21039
892.839	21108
892.962	21123
893.085	21028
893.207	21013
893.33	20887
893.452	21051
893.575	21047
893.697	21001
893.819	21195
893.941	21245
894.064	21188
894.186	20902
894.308	20967
894.43	21096
894.552	21184
894.674	21077
894.796	20952
894.918	21039
895.04	20910
895.161	21058
895.283	21089
895.405	20823
895.526	21062
895.648	21039
895.769	21020
895.891	21161
896.012	21123
896.134	21062
896.255	21013
896.376	21009
896.498	21062
896.619	21043
896.74	21024
896.861	21074
896.982	21340
897.103	21363
897.224	21188
897.345	21321
897.466	21176
897.587	21329
897.708	21370
897.828	21233
897.949	21226
898.07	21055
898.19	21222
898.311	21173
898.431	21104
898.552	21218
898.672	21294
898.792	21321
898.913	21298
899.033	21138
899.153	20963
899.273	20921
899.393	20895
899.513	21058
899.633	21013
899.753	20857
899.873	20834
899.993	20906
900.113	20887
900.232	20853
900.352	20864
900.472	20746
900.591	20598
900.711	20758
900.83	20686
900.95	20826
901.069	20788
901.189	20522
901.308	20343
901.427	20199
901.546	20180
901.665	20252
901.784	20221
901.904	20157
902.023	20065
902.141	19791
902.26	19799
902.379	19845
902.498	19864
902.617	19700
902.735	19841
902.854	19708
902.973	19655
903.091	19430
903.21	19529
903.328	19480
903.446	19381
903.565	19160
903.683	19259
903.801	19091
903.919	19152
904.038	19263
904.156	19080
904.274	18985
904.392	18947
904.51	18916
904.627	18920
904.745	19129
904.863	18981
904.981	18890
905.098	18715
905.216	18688
905.334	18711
905.451	18677
905.569	18620
905.686	18711
905.803	18677
905.921	18456
906.038	18517
906.155	18486
906.272	18388
906.389	18350
906.506	18178
906.623	18224
906.74	18178
906.857	18091
906.974	18064
907.091	18106
907.208	18338
907.324	18258
907.441	18121
907.557	17946
907.674	17889
907.79	17843
907.907	17824
908.023	17916
908.139	17901
908.256	17809
908.372	17748
908.488	17745
908.604	17684
908.72	17611
908.836	17630
908.952	17615
909.068	17573
909.184	17752
909.3	17592
909.415	17634
909.531	17562
909.647	17345
909.762	17391
909.878	17318
909.993	17318
910.108	17254
910.224	17277
910.339	17318
910.454	17239
910.57	17181
910.685	17105
910.8	17368
910.915	17280
911.03	17136
911.145	17037
911.259	16828
911.374	17010
911.489	16733
911.604	16694
911.718	16615
911.833	16679
911.947	16687
912.062	16592
912.176	16561
912.291	16622
912.405	16683
912.519	16866
912.633	16782
912.748	16615
912.862	16588
912.976	16428
913.09	16276
913.204	16470
913.318	16447
913.431	16561
913.545	16462
913.659	16519
913.772	16287
913.886	16303
914	16071
914.113	16360
914.226	16306
914.34	16204
914.453	16120
914.566	16280
914.68	16093
914.793	16074
914.906	15850
915.019	15770
915.132	15770
915.245	15846
915.358	15770
915.47	15846
915.583	15778
915.696	15819
915.809	15854
915.921	15983
916.034	15747
916.146	15686
916.259	15625
916.371	15808
916.483	15713
916.595	15629
916.708	15663
916.82	15595
916.932	15523
917.044	15557
917.156	15564
917.268	15523
917.38	15507
917.491	15363
917.603	15443
917.715	15568
917.826	15538
917.938	15374
918.049	15237
918.161	15321
918.272	15466
918.384	15481
918.495	15374
918.606	15279
918.717	15142
918.828	15199
918.939	15230
919.05	15116
919.161	15302
919.272	14910
919.383	14960
919.494	15176
919.604	15275
919.715	15188
919.826	15104
919.936	15108
920.047	15135
920.157	15188
920.267	15310
920.378	15123
920.488	15085
920.598	15279
920.708	15412
920.818	15317
920.928	15203
921.038	15329
921.148	15275
921.258	15062
921.368	15036
921.477	14910
921.587	14800
921.697	14712
921.806	14857
921.916	14796
922.025	14575
922.134	14450
922.244	14427
922.353	14549
922.462	14423
922.571	14343
922.68	14092
922.789	14081
922.898	14172
923.007	14058
923.116	14210
923.224	14164
923.333	14050
923.442	13955
923.55	13932
923.659	13997
923.767	14024
923.876	13925
923.984	13970
924.092	13811
924.201	13841
924.309	13856
924.417	13837
924.525	13689
924.633	13708
924.741	14739
924.849	13464
924.956	13788
925.064	13510
925.172	13419
925.279	13529
925.387	13525
925.494	13540
925.602	13639
925.709	13518
925.816	13472
925.924	13476
926.031	13636
926.138	13434
926.245	13411
926.352	13381
926.459	13514
926.566	13502
926.673	13396
926.779	13304
926.886	13278
926.993	13015
927.099	13080
927.206	13103
927.312	12977
927.419	13126
927.525	13046
927.631	13023
927.737	12894
927.843	12916
927.95	12779
928.056	12837
928.162	12894
928.267	12947
928.373	13472
928.479	12954
928.585	12783
928.69	12875
928.796	12783
928.901	12700
929.007	12559
929.112	12677
929.218	12669
929.323	12570
929.428	12646
929.533	12719
929.638	12486
929.743	12544
929.848	12612
929.953	12563
930.058	12418
930.163	12300
930.267	12308
930.372	12365
930.477	12186
930.581	12502
930.685	12300
930.79	12205
930.894	12167
930.998	12041
931.103	12190
931.207	11878
931.311	11809
931.415	11718
931.519	11592
931.623	11516
