Data from test_V78500241_272.txt Node
Date: Fri Mar 25 15:43:41 CST 2022
User: usil
Spectrometer: V785-0024
Trigger mode: 0
Integration Time (sec): 4.000000E-1
Scans to average: 1
Nonlinearity correction enabled: false
Boxcar width: 0
Storing dark spectrum: false
XAxis mode: Wavelengths
Number of Pixels in Spectrum: 1024
>>>>>Begin Spectral Data<<<<<
801.071	29927
801.214	29878
801.356	29543
801.499	29649
801.641	29627
801.783	29577
801.926	29520
802.068	29459
802.211	29299
802.353	29379
802.496	29273
802.638	29273
802.78	29181
802.923	29254
803.065	29041
803.208	29014
803.35	29044
803.492	29254
803.635	29292
803.777	29162
803.919	29341
804.061	29764
804.204	29212
804.346	29124
804.488	29170
804.63	29185
804.773	29102
804.915	29417
805.057	29273
805.199	29292
805.341	29315
805.483	29440
805.626	29356
805.768	29391
805.91	29463
806.052	29528
806.194	29436
806.336	29486
806.478	29630
806.62	29463
806.762	29543
806.904	29623
807.046	29885
807.188	29855
807.33	29916
807.472	29950
807.614	29843
807.756	29920
807.898	29687
808.04	29547
808.182	29672
808.324	29672
808.465	29604
808.607	29805
808.749	30098
808.891	30251
809.033	30330
809.174	29969
809.316	30182
809.458	30098
809.6	30136
809.741	30110
809.883	30095
810.025	30407
810.166	30319
810.308	30342
810.45	30349
810.591	30197
810.733	30197
810.875	30095
811.016	29893
811.158	29992
811.299	30049
811.441	30330
811.582	30190
811.724	30003
811.865	30045
812.007	29828
812.148	30022
812.29	30083
812.431	30273
812.573	30311
812.714	30399
812.855	30532
812.997	30738
813.138	30806
813.279	30650
813.421	30639
813.562	30555
813.703	30399
813.845	30220
813.986	30064
814.127	29718
814.268	29733
814.41	29714
814.551	29752
814.692	29802
814.833	29562
814.974	29501
815.115	29714
815.256	29516
815.397	29436
815.539	29638
815.68	29406
815.821	29440
815.962	29463
816.103	29490
816.244	29345
816.385	29334
816.526	29280
816.666	29132
816.807	28892
816.948	29071
817.089	29102
817.23	29056
817.371	28965
817.512	28949
817.653	28961
817.793	28782
817.934	28911
818.075	28957
818.216	28869
818.356	28835
818.497	28812
818.638	28782
818.778	28428
818.919	28618
819.06	28565
819.2	28744
819.341	28862
819.481	28866
819.622	29086
819.762	29136
819.903	29151
820.043	28927
820.184	28942
820.324	28938
820.465	29098
820.605	28984
820.746	29010
820.886	28843
821.026	29018
821.167	28938
821.307	28934
821.447	28927
821.588	28797
821.728	28508
821.868	28371
822.008	28242
822.149	28481
822.289	28280
822.429	27960
822.569	27960
822.709	28040
822.849	27842
822.99	27751
823.13	27622
823.27	27652
823.41	27534
823.55	27374
823.69	27652
823.83	27755
823.97	27454
824.11	27310
824.25	27374
824.389	27492
824.529	27625
824.669	27291
824.809	27488
824.949	27462
825.089	27363
825.228	27561
825.368	27230
825.508	27321
825.648	27302
825.787	27214
825.927	27367
826.067	27291
826.206	27351
826.346	27195
826.485	27313
826.625	27188
826.765	27397
826.904	27127
827.044	27009
827.183	26933
827.323	26975
827.462	26971
827.601	27074
827.741	26906
827.88	26887
828.02	26769
828.159	26899
828.298	26864
828.437	27013
828.577	26861
828.716	27009
828.855	26720
828.994	26663
829.134	26655
829.273	26769
829.412	26522
829.551	26320
829.69	26693
829.829	26545
829.968	26644
830.107	26708
830.246	26427
830.385	26556
830.524	26434
830.663	26389
830.802	26263
830.941	26020
831.08	26191
831.219	26324
831.357	26176
831.496	26393
831.635	26122
831.774	25989
831.913	26039
832.051	25833
832.19	25826
832.329	25807
832.467	25715
832.606	25807
832.744	25791
832.883	25883
833.022	25715
833.16	25791
833.299	25818
833.437	25719
833.576	25909
833.714	25864
833.852	25879
833.991	25822
834.129	25811
834.267	25772
834.406	25833
834.544	25750
834.682	25894
834.821	25769
834.959	25940
835.097	25719
835.235	25837
835.373	25833
835.511	25727
835.65	25594
835.788	25658
835.926	25525
836.064	25365
836.202	25335
836.34	25563
836.478	25757
836.615	25643
836.753	25639
836.891	25590
837.029	25476
837.167	25419
837.305	25556
837.443	25426
837.58	25373
837.718	25479
837.856	25445
837.993	25426
838.131	25464
838.269	25308
838.406	25457
838.544	25190
838.681	25008
838.819	24985
838.956	24764
839.094	24833
839.231	24882
839.369	24977
839.506	25259
839.643	25103
839.781	24859
839.918	24829
840.055	24882
840.193	24760
840.33	24753
840.467	24661
840.604	24875
840.742	24901
840.879	24547
841.016	24616
841.153	24574
841.29	24707
841.427	24677
841.564	24741
841.701	24608
841.838	24658
841.975	24612
842.112	24585
842.249	24532
842.385	24502
842.522	24582
842.659	24467
842.796	24357
842.933	24414
843.069	24281
843.206	24346
843.343	24448
843.479	24563
843.616	24342
843.752	24232
843.889	24117
844.025	24319
844.162	23954
844.298	24285
844.435	24239
844.571	24087
844.708	24136
844.844	24323
844.98	24414
845.117	24296
845.253	24190
845.389	24079
845.525	24133
845.661	23999
845.798	23946
845.934	23832
846.07	23794
846.206	23874
846.342	23969
846.478	23878
846.614	23615
846.75	23638
846.886	23535
847.022	23726
847.158	23707
847.294	23490
847.429	23570
847.565	23535
847.701	23855
847.837	23277
847.972	23200
848.108	23368
848.244	23459
848.379	23166
848.515	23117
848.65	23136
848.786	23197
848.921	23090
849.057	23246
849.192	23143
849.328	23200
849.463	23079
849.598	23079
849.734	23041
849.869	22927
850.004	23029
850.14	22892
850.275	22995
850.41	22801
850.545	22744
850.68	22862
850.815	22805
850.95	22790
851.085	22976
851.22	22908
851.355	22965
851.49	22957
851.625	22900
851.76	22869
851.895	22698
852.03	22820
852.165	22904
852.299	22915
852.434	22938
852.569	22881
852.703	22839
852.838	22976
852.973	22965
853.107	23060
853.242	22812
853.376	22626
853.511	22557
853.645	22733
853.78	22771
853.914	22702
854.048	22607
854.183	22637
854.317	22702
854.451	22942
854.585	22725
854.72	22664
854.854	22774
854.988	22557
855.122	22668
855.256	22554
855.39	22626
855.524	22691
855.658	22672
855.792	22565
855.926	22626
856.06	22630
856.194	22748
856.327	22664
856.461	22538
856.595	22679
856.729	22596
856.862	22877
856.996	22717
857.13	22801
857.263	22736
857.397	22675
857.53	22626
857.664	22649
857.797	22634
857.931	22793
858.064	22618
858.197	22740
858.331	22607
858.464	22561
858.597	22565
858.731	22470
858.864	22527
858.997	22535
859.13	22656
859.263	22630
859.396	22721
859.529	22588
859.662	22466
859.795	22428
859.928	22580
860.061	22725
860.194	22797
860.327	22615
860.46	22577
860.592	22717
860.725	22759
860.858	22733
860.99	22637
861.123	22622
861.256	22527
861.388	22611
861.521	23242
861.653	22462
861.786	22413
861.918	22481
862.05	22489
862.183	22580
862.315	22691
862.447	22653
862.58	22634
862.712	22497
862.844	22295
862.976	22523
863.108	22280
863.24	22748
863.372	22215
863.504	22310
863.636	22284
863.768	22265
863.9	22344
864.032	22188
864.164	22219
864.296	22253
864.428	22440
864.559	22367
864.691	22344
864.823	22253
864.954	22226
865.086	22291
865.217	22223
865.349	22139
865.48	22219
865.612	22131
865.743	22268
865.875	22173
866.006	22025
866.137	22139
866.269	22143
866.4	22109
866.531	22086
866.662	22093
866.793	22048
866.924	22173
867.055	22013
867.186	22097
867.317	22032
867.448	22082
867.579	22025
867.71	22021
867.841	22029
867.972	22101
868.103	22044
868.233	22109
868.364	22063
868.495	22207
868.625	22360
868.756	22402
868.886	22200
869.017	22284
869.147	22421
869.278	22390
869.408	22272
869.539	22325
869.669	22318
869.799	22246
869.929	22375
870.06	22421
870.19	22683
870.32	22611
870.45	22649
870.58	22634
870.71	22812
870.84	22797
870.97	22702
871.1	22675
871.23	22831
871.36	22976
871.489	22725
871.619	22961
871.749	22949
871.879	23033
872.008	22995
872.138	22904
872.267	22881
872.397	22778
872.526	22790
872.656	22744
872.785	22702
872.915	22896
873.044	22976
873.173	22873
873.303	22957
873.432	22915
873.561	23067
873.69	22984
873.819	22900
873.948	23071
874.077	22949
874.206	22900
874.335	23052
874.464	22968
874.593	23239
874.722	23105
874.851	23178
874.979	23159
875.108	23162
875.237	23029
875.365	22885
875.494	23075
875.623	23220
875.751	23280
875.88	23246
876.008	23200
876.136	23376
876.265	23516
876.393	23649
876.521	23554
876.65	23665
876.778	23634
876.906	23421
877.034	23497
877.162	23512
877.29	23452
877.418	23482
877.546	23543
877.674	23505
877.802	23577
877.93	23414
878.058	23433
878.185	23345
878.313	23478
878.441	23452
878.568	23379
878.696	23452
878.824	23528
878.951	23547
879.079	23630
879.206	23783
879.333	23547
879.461	23562
879.588	23619
879.715	23589
879.842	23760
879.97	23585
880.097	23356
880.224	23326
880.351	23296
880.478	23364
880.605	23258
880.732	23223
880.859	23433
880.986	23315
881.112	23315
881.239	23208
881.366	23151
881.493	22938
881.619	22828
881.746	22809
881.872	22881
881.999	22866
882.125	22725
882.252	22831
882.378	22824
882.505	22923
882.631	22748
882.757	22573
882.883	22618
883.01	22645
883.136	22470
883.262	22432
883.388	22394
883.514	22516
883.64	22550
883.766	22382
883.892	22325
884.018	22363
884.143	22512
884.269	22599
884.395	22242
884.52	22158
884.646	22246
884.772	22135
884.897	22097
885.023	22329
885.148	22291
885.274	22322
885.399	22310
885.524	22090
885.65	22211
885.775	22162
885.9	22154
886.025	22303
886.15	22344
886.275	22078
886.4	22082
886.525	22181
886.65	22036
886.775	22044
886.9	22272
887.025	22363
887.149	22169
887.274	22067
887.399	21918
887.523	21873
887.648	21865
887.773	21876
887.897	21987
888.021	21823
888.146	21797
888.27	21876
888.395	22006
888.519	21907
888.643	21865
888.767	21926
888.891	21739
889.015	21835
889.139	21766
889.263	21698
889.387	21800
889.511	21926
889.635	21766
889.759	21671
889.883	21686
890.006	21694
890.13	21873
890.254	21538
890.377	21572
890.501	21534
890.624	21477
890.748	21416
890.871	21336
890.995	21260
891.118	21230
891.241	21367
891.364	21310
891.488	21367
891.611	21093
891.734	21275
891.857	21313
891.98	21275
892.103	21252
892.226	21275
892.349	21241
892.471	21058
892.594	21127
892.717	21233
892.839	21157
892.962	21268
893.085	21173
893.207	21085
893.33	21062
893.452	21184
893.575	21211
893.697	21135
893.819	21340
893.941	21256
894.064	21237
894.186	21085
894.308	20941
894.43	21222
894.552	21302
894.674	21294
894.796	21093
894.918	21062
895.04	21146
895.161	21161
895.283	21154
895.405	20998
895.526	21180
895.648	21074
895.769	21214
895.891	21173
896.012	21199
896.134	21081
896.255	21195
896.376	21085
896.498	21013
896.619	21039
896.74	21169
896.861	21154
896.982	21447
897.103	21603
897.224	21488
897.345	21275
897.466	21336
897.587	21351
897.708	21473
897.828	21310
897.949	21336
898.07	21176
898.19	21222
898.311	21370
898.431	21325
898.552	21230
898.672	21336
898.792	21397
898.913	21294
899.033	21192
899.153	21047
899.273	21009
899.393	20921
899.513	20990
899.633	20914
899.753	20960
899.873	20921
899.993	21001
900.113	20864
900.232	20990
900.352	20906
900.472	20845
900.591	20746
900.711	20773
900.83	20727
900.95	20819
901.069	20826
901.189	20640
901.308	20423
901.427	20347
901.546	20381
901.665	20530
901.784	20267
901.904	20187
902.023	20210
902.141	19784
902.26	19944
902.379	19852
902.498	19788
902.617	19643
902.735	19864
902.854	19818
902.973	19719
903.091	19533
903.21	19388
903.328	19521
903.446	19358
903.565	19289
903.683	19278
903.801	19114
903.919	19168
904.038	19255
904.156	19057
904.274	19076
904.392	19000
904.51	19069
904.627	18939
904.745	19042
904.863	19053
904.981	18802
905.098	18646
905.216	18730
905.334	18726
905.451	18734
905.569	18627
905.686	18696
905.803	18661
905.921	18418
906.038	18578
906.155	18464
906.272	18399
906.389	18380
906.506	18186
906.623	18152
906.74	18205
906.857	18159
906.974	18060
907.091	18273
907.208	18342
907.324	18270
907.441	18163
907.557	17920
907.674	18038
907.79	17863
907.907	17824
908.023	17878
908.139	17885
908.256	17748
908.372	17737
908.488	17707
908.604	17581
908.72	17551
908.836	17611
908.952	17554
909.068	17482
909.184	17668
909.3	17471
909.415	17570
909.531	17604
909.647	17307
909.762	17258
909.878	17185
909.993	17261
910.108	17284
910.224	17246
910.339	17231
910.454	17155
910.57	17140
910.685	16965
910.8	17292
910.915	17227
911.03	17029
911.145	16919
911.259	16786
911.374	16843
911.489	16744
911.604	16668
911.718	16588
911.833	16637
911.947	16504
912.062	16470
912.176	16611
912.291	16573
912.405	16554
912.519	16759
912.633	16801
912.748	16645
912.862	16596
912.976	16299
913.09	16238
913.204	16375
913.318	16386
913.431	16470
913.545	16421
913.659	16500
913.772	16390
913.886	16139
914	16139
914.113	16166
914.226	16333
914.34	16158
914.453	15994
914.566	16150
914.68	15979
914.793	15975
914.906	15827
915.019	15698
915.132	15701
915.245	15819
915.358	15873
915.47	15766
915.583	15743
915.696	15835
915.809	15930
915.921	15922
916.034	15739
916.146	15610
916.259	15701
916.371	15778
916.483	15717
916.595	15625
916.708	15557
916.82	15648
916.932	15660
917.044	15595
917.156	15504
917.268	15416
917.38	15397
917.491	15340
917.603	15386
917.715	15466
917.826	15469
917.938	15268
918.049	15161
918.161	15291
918.272	15412
918.384	15382
918.495	15272
918.606	15157
918.717	15039
918.828	15081
918.939	15119
919.05	15055
919.161	15013
919.272	14887
919.383	14925
919.494	15146
919.604	15245
919.715	15112
919.826	15001
919.936	15055
920.047	15047
920.157	15135
920.267	15211
920.378	15093
920.488	14956
920.598	15146
920.708	15321
920.818	15249
920.928	15188
921.038	15306
921.148	15233
921.258	14952
921.368	14769
921.477	14800
921.587	14678
921.697	14488
921.806	14788
921.916	14686
922.025	14427
922.134	14499
922.244	14294
922.353	14434
922.462	14240
922.571	14134
922.68	14062
922.789	14069
922.898	14012
923.007	13974
923.116	14081
923.224	14054
923.333	13982
923.442	13860
923.55	13845
923.659	13845
923.767	13845
923.876	13822
923.984	13883
924.092	13643
924.201	13681
924.309	13696
924.417	13807
924.525	13750
924.633	13753
924.741	14556
924.849	13495
924.956	13651
925.064	13457
925.172	13362
925.279	13381
925.387	13460
925.494	13381
925.602	13571
925.709	13540
925.816	13327
925.924	13285
926.031	13460
926.138	13373
926.245	13468
926.352	13190
926.459	13266
926.566	13419
926.673	13263
926.779	13183
926.886	13118
926.993	13034
927.099	12981
927.206	12840
927.312	12970
927.419	12966
927.525	12871
927.631	12958
927.737	12844
927.843	12810
927.95	12658
928.056	12760
928.162	12856
928.267	12730
928.373	13384
928.479	12962
928.585	12544
928.69	12757
928.796	12658
928.901	12574
929.007	12445
929.112	12650
929.218	12574
929.323	12445
929.428	12422
929.533	12681
929.638	12357
929.743	12467
929.848	12407
929.953	12452
930.058	12319
930.163	12129
930.267	12140
930.372	12369
930.477	12098
930.581	12338
930.685	12186
930.79	12015
930.894	12091
930.998	11969
931.103	12136
931.207	11688
931.311	11665
931.415	11600
931.519	11299
931.623	11334
