Data from test_V78500241_23.txt Node
Date: Fri Mar 25 15:41:57 CST 2022
User: usil
Spectrometer: V785-0024
Trigger mode: 0
Integration Time (sec): 4.000000E-1
Scans to average: 1
Nonlinearity correction enabled: false
Boxcar width: 0
Storing dark spectrum: false
XAxis mode: Wavelengths
Number of Pixels in Spectrum: 1024
>>>>>Begin Spectral Data<<<<<
801.071	27325
801.214	27203
801.356	27005
801.499	26720
801.641	26613
801.783	26632
801.926	26697
802.068	26602
802.211	26526
802.353	26606
802.496	26389
802.638	26301
802.78	26244
802.923	26138
803.065	26016
803.208	26050
803.35	26183
803.492	26298
803.635	26225
803.777	26168
803.919	26290
804.061	26617
804.204	26195
804.346	26046
804.488	26115
804.63	26317
804.773	26046
804.915	25906
805.057	26157
805.199	26020
805.341	26157
805.483	26237
805.626	26111
805.768	26039
805.91	26286
806.052	26218
806.194	26081
806.336	26271
806.478	26092
806.62	26157
806.762	26256
806.904	26370
807.046	26606
807.188	26450
807.33	26431
807.472	26488
807.614	26366
807.756	26473
807.898	26103
808.04	26244
808.182	26290
808.324	26248
808.465	26412
808.607	26358
808.749	26537
808.891	26796
809.033	26811
809.174	26632
809.316	26537
809.458	26568
809.6	26503
809.741	26613
809.883	26636
810.025	26921
810.166	26674
810.308	26804
810.45	26708
810.591	26598
810.733	26408
810.875	26476
811.016	26237
811.158	26347
811.299	26552
811.441	26571
811.582	26594
811.724	26377
811.865	26518
812.007	26431
812.148	26206
812.29	26404
812.431	26613
812.573	26712
812.714	26788
812.855	26857
812.997	27036
813.138	27112
813.279	27127
813.421	27074
813.562	26952
813.703	26758
813.845	26579
813.986	26233
814.127	26206
814.268	25913
814.41	25978
814.551	25966
814.692	26043
814.833	25902
814.974	26069
815.115	26005
815.256	25780
815.397	25807
815.539	25830
815.68	25761
815.821	25616
815.962	25685
816.103	25495
816.244	25514
816.385	25479
816.526	25289
816.666	25091
816.807	25080
816.948	25084
817.089	25145
817.23	25164
817.371	24901
817.512	25038
817.653	24897
817.793	24920
817.934	24867
818.075	25012
818.216	25072
818.356	24890
818.497	24741
818.638	24658
818.778	24772
818.919	24597
819.06	24623
819.2	24696
819.341	24913
819.481	24745
819.622	25107
819.762	25240
819.903	25019
820.043	25053
820.184	24947
820.324	24840
820.465	25019
820.605	24973
820.746	24833
820.886	24779
821.026	24802
821.167	24798
821.307	25008
821.447	24840
821.588	24738
821.728	24555
821.868	24502
822.008	24319
822.149	24270
822.289	24186
822.429	23939
822.569	23946
822.709	23817
822.849	23756
822.99	23741
823.13	23699
823.27	23676
823.41	23520
823.55	23455
823.69	23501
823.83	23570
823.97	23512
824.11	23349
824.25	23284
824.389	23181
824.529	23265
824.669	23220
824.809	23444
824.949	23242
825.089	23433
825.228	23223
825.368	23022
825.508	23064
825.648	23079
825.787	23090
825.927	22995
826.067	22919
826.206	22927
826.346	23090
826.485	22999
826.625	23025
826.765	23083
826.904	22927
827.044	22717
827.183	22710
827.323	22615
827.462	22782
827.601	22759
827.741	22672
827.88	22634
828.02	22577
828.159	22687
828.298	22561
828.437	22599
828.577	22725
828.716	22683
828.855	22615
828.994	22333
829.134	22265
829.273	22440
829.412	22261
829.551	22295
829.69	22230
829.829	22299
829.968	22337
830.107	22348
830.246	22390
830.385	22257
830.524	22303
830.663	22074
830.802	22120
830.941	21876
831.08	21949
831.219	21899
831.357	21960
831.496	22093
831.635	21846
831.774	21713
831.913	21728
832.051	21614
832.19	21660
832.329	21663
832.467	21534
832.606	21424
832.744	21526
832.883	21568
833.022	21511
833.16	21545
833.299	21420
833.437	21447
833.576	21481
833.714	21450
833.852	21583
833.991	21614
834.129	21523
834.267	21618
834.406	21538
834.544	21450
834.682	21519
834.821	21549
834.959	21652
835.097	21340
835.235	21618
835.373	21389
835.511	21359
835.65	21382
835.788	21313
835.926	21256
836.064	21146
836.202	21138
836.34	21382
836.478	21351
836.615	21344
836.753	21294
836.891	21431
837.029	21447
837.167	21241
837.305	21260
837.443	21203
837.58	21142
837.718	21230
837.856	21157
837.993	21070
838.131	21154
838.269	21150
838.406	21024
838.544	20960
838.681	20792
838.819	20811
838.956	20701
839.094	20571
839.231	20602
839.369	20815
839.506	21058
839.643	20819
839.781	20598
839.918	20549
840.055	20476
840.193	20636
840.33	20492
840.467	20518
840.604	20590
840.742	20857
840.879	20404
841.016	20404
841.153	20476
841.29	20579
841.427	20408
841.564	20556
841.701	20431
841.838	20434
841.975	20351
842.112	20465
842.249	20339
842.385	20157
842.522	20549
842.659	20267
842.796	20275
842.933	20172
843.069	20187
843.206	20187
843.343	20271
843.479	20286
843.616	20122
843.752	19913
843.889	19898
844.025	20046
844.162	19932
844.298	20119
844.435	19917
844.571	19803
844.708	20043
844.844	20081
844.98	20031
845.117	20020
845.253	19932
845.389	19738
845.525	19837
845.661	19681
845.798	19772
845.934	19837
846.07	19666
846.206	19719
846.342	19772
846.478	19548
846.614	19460
846.75	19335
846.886	19365
847.022	19438
847.158	19339
847.294	19373
847.429	19487
847.565	19381
847.701	19544
847.837	19266
847.972	19145
848.108	19175
848.244	19187
848.379	18897
848.515	18989
848.65	18875
848.786	18977
848.921	18909
849.057	19000
849.192	19091
849.328	19023
849.463	18966
849.598	18890
849.734	18776
849.869	18798
850.004	18635
850.14	18711
850.275	18711
850.41	18642
850.545	18627
850.68	18684
850.815	18745
850.95	18612
851.085	18711
851.22	18734
851.355	18661
851.49	18616
851.625	18566
851.76	18566
851.895	18585
852.03	18513
852.165	18646
852.299	18608
852.434	18650
852.569	18696
852.703	18612
852.838	18631
852.973	18738
853.107	18585
853.242	18597
853.376	18601
853.511	18369
853.645	18437
853.78	18582
853.914	18517
854.048	18391
854.183	18372
854.317	18471
854.451	18654
854.585	18517
854.72	18490
854.854	18528
854.988	18380
855.122	18532
855.256	18361
855.39	18532
855.524	18506
855.658	18540
855.792	18433
855.926	18407
856.06	18365
856.194	18509
856.327	18426
856.461	18399
856.595	18429
856.729	18464
856.862	18547
856.996	18441
857.13	18483
857.263	18426
857.397	18509
857.53	18391
857.664	18433
857.797	18471
857.931	18506
858.064	18350
858.197	18555
858.331	18372
858.464	18304
858.597	18213
858.731	18285
858.864	18353
858.997	18258
859.13	18456
859.263	18471
859.396	18513
859.529	18361
859.662	18285
859.795	18296
859.928	18486
860.061	18380
860.194	18551
860.327	18467
860.46	18369
860.592	18380
860.725	18426
860.858	18479
860.99	18361
861.123	18292
861.256	18395
861.388	18308
861.521	18916
861.653	18243
861.786	18186
861.918	18235
862.05	18292
862.183	18391
862.315	18414
862.447	18433
862.58	18460
862.712	18121
862.844	18060
862.976	18125
863.108	18205
863.24	18414
863.372	18076
863.504	18178
863.636	17920
863.768	18216
863.9	18091
864.032	17980
864.164	17992
864.296	18095
864.428	18140
864.559	18076
864.691	18045
864.823	18079
864.954	18159
865.086	18201
865.217	18076
865.349	17969
865.48	17980
865.612	18068
865.743	18083
865.875	18098
866.006	17988
866.137	17992
866.269	17961
866.4	18064
866.531	17996
866.662	17912
866.793	17969
866.924	17958
867.055	17912
867.186	17843
867.317	17821
867.448	17901
867.579	17897
867.71	17798
867.841	17843
867.972	17958
868.103	18087
868.233	17969
868.364	17939
868.495	18022
868.625	18216
868.756	18296
868.886	18167
869.017	18102
869.147	18216
869.278	18239
869.408	18167
869.539	18140
869.669	18098
869.799	18163
869.929	18251
870.06	18330
870.19	18547
870.32	18433
870.45	18563
870.58	18604
870.71	18650
870.84	18604
870.97	18585
871.1	18563
871.23	18745
871.36	18692
871.489	18760
871.619	18646
871.749	18684
871.879	18890
872.008	18867
872.138	18837
872.267	18837
872.397	18669
872.526	18612
872.656	18585
872.785	18528
872.915	18779
873.044	18962
873.173	18928
873.303	18844
873.432	18798
873.561	18867
873.69	18886
873.819	18764
873.948	18928
874.077	18795
874.206	18776
874.335	18844
874.464	18871
874.593	19118
874.722	18951
874.851	19206
874.979	19126
875.108	19168
875.237	19110
875.365	18935
875.494	19145
875.623	19148
875.751	19084
875.88	19164
876.008	19335
876.136	19274
876.265	19426
876.393	19681
876.521	19575
876.65	19559
876.778	19537
876.906	19491
877.034	19514
877.162	19434
877.29	19460
877.418	19514
877.546	19426
877.674	19632
877.802	19548
877.93	19548
878.058	19499
878.185	19415
878.313	19388
878.441	19521
878.568	19362
878.696	19457
878.824	19521
878.951	19556
879.079	19620
879.206	19731
879.333	19605
879.461	19559
879.588	19502
879.715	19586
879.842	19776
879.97	19632
880.097	19350
880.224	19232
880.351	19388
880.478	19343
880.605	19190
880.732	19304
880.859	19518
880.986	19331
881.112	19354
881.239	19217
881.366	19069
881.493	18996
881.619	18859
881.746	18909
881.872	18837
881.999	18871
882.125	18753
882.252	19050
882.378	18916
882.505	19057
882.631	18833
882.757	18631
882.883	18779
883.01	18681
883.136	18597
883.262	18513
883.388	18563
883.514	18688
883.64	18627
883.766	18635
883.892	18540
884.018	18517
884.143	18597
884.269	18852
884.395	18372
884.52	18369
884.646	18365
884.772	18315
884.897	18346
885.023	18388
885.148	18547
885.274	18635
885.399	18414
885.524	18391
885.65	18372
885.775	18365
885.9	18407
886.025	18525
886.15	18426
886.275	18330
886.4	18213
886.525	18167
886.65	18277
886.775	18239
886.9	18490
887.025	18608
887.149	18315
887.274	18209
887.399	18083
887.523	18159
887.648	18110
887.773	17950
887.897	18178
888.021	18148
888.146	18148
888.27	18205
888.395	18262
888.519	18125
888.643	18068
888.767	18194
888.891	18072
889.015	18041
889.139	17965
889.263	17927
889.387	18030
889.511	18136
889.635	18019
889.759	17832
889.883	17897
890.006	17916
890.13	18019
890.254	17882
890.377	17855
890.501	17646
890.624	17707
890.748	17805
890.871	17581
890.995	17406
891.118	17638
891.241	17649
891.364	17471
891.488	17699
891.611	17653
891.734	17558
891.857	17634
891.98	17722
892.103	17657
892.226	17554
892.349	17528
892.471	17326
892.594	17558
892.717	17501
892.839	17425
892.962	17532
893.085	17543
893.207	17452
893.33	17448
893.452	17516
893.575	17657
893.697	17585
893.819	17638
893.941	17638
894.064	17684
894.186	17539
894.308	17486
894.43	17608
894.552	17653
894.674	17589
894.796	17444
894.918	17505
895.04	17455
895.161	17512
895.283	17634
895.405	17512
895.526	17646
895.648	17585
895.769	17680
895.891	17657
896.012	17687
896.134	17634
896.255	17539
896.376	17463
896.498	17596
896.619	17657
896.74	17699
896.861	17657
896.982	17969
897.103	18254
897.224	17950
897.345	17958
897.466	17802
897.587	17889
897.708	17973
897.828	17950
897.949	17859
898.07	17737
898.19	17851
898.311	17973
898.431	17935
898.552	17904
898.672	17999
898.792	17920
898.913	17992
899.033	17756
899.153	17611
899.273	17589
899.393	17691
899.513	17687
899.633	17649
899.753	17680
899.873	17539
899.993	17570
900.113	17535
900.232	17577
900.352	17619
900.472	17478
900.591	17280
900.711	17452
900.83	17391
900.95	17509
901.069	17539
901.189	17277
901.308	17109
901.427	17086
901.546	17064
901.665	17045
901.784	17060
901.904	16976
902.023	16793
902.141	16733
902.26	16596
902.379	16607
902.498	16691
902.617	16519
902.735	16706
902.854	16592
902.973	16538
903.091	16200
903.21	16382
903.328	16287
903.446	16177
903.565	15987
903.683	16093
903.801	15987
903.919	16029
904.038	16029
904.156	15915
904.274	16006
904.392	15899
904.51	15949
904.627	15899
904.745	15949
904.863	16006
904.981	15698
905.098	15488
905.216	15485
905.334	15584
905.451	15564
905.569	15401
905.686	15572
905.803	15530
905.921	15298
906.038	15386
906.155	15374
906.272	15195
906.389	15184
906.506	15176
906.623	15123
906.74	14975
906.857	14990
906.974	15039
907.091	15085
907.208	15249
907.324	15108
907.441	15024
907.557	14785
907.674	14826
907.79	14830
907.907	14762
908.023	14792
908.139	14720
908.256	14705
908.372	14693
908.488	14583
908.604	14575
908.72	14465
908.836	14488
908.952	14450
909.068	14507
909.184	14537
909.3	14469
909.415	14484
909.531	14541
909.647	14267
909.762	14164
909.878	14218
909.993	14199
910.108	14206
910.224	14183
910.339	14123
910.454	14058
910.57	13993
910.685	13974
910.8	14221
910.915	14157
911.03	13959
911.145	13765
911.259	13830
911.374	13765
911.489	13696
911.604	13620
911.718	13544
911.833	13639
911.947	13487
912.062	13449
912.176	13666
912.291	13571
912.405	13693
912.519	13776
912.633	13772
912.748	13609
912.862	13567
912.976	13396
913.09	13308
913.204	13308
913.318	13403
913.431	13537
913.545	13445
913.659	13510
913.772	13346
913.886	13270
914	13297
914.113	13263
914.226	13415
914.34	13293
914.453	13156
914.566	13350
914.68	13110
914.793	13088
914.906	12973
915.019	12951
915.132	12806
915.245	12920
915.358	12970
915.47	12947
915.583	12977
915.696	12985
915.809	13057
915.921	13065
916.034	12837
916.146	12817
916.259	12897
916.371	12909
916.483	12928
916.595	12821
916.708	12757
916.82	12810
916.932	12738
917.044	12772
917.156	12753
917.268	12703
917.38	12673
917.491	12654
917.603	12703
917.715	12848
917.826	12711
917.938	12635
918.049	12513
918.161	12612
918.272	12757
918.384	12764
918.495	12662
918.606	12361
918.717	12407
918.828	12486
918.939	12506
919.05	12350
919.161	12452
919.272	12213
919.383	12311
919.494	12563
919.604	12604
919.715	12490
919.826	12353
919.936	12506
920.047	12532
920.157	12486
920.267	12722
920.378	12460
920.488	12441
920.598	12616
920.708	12787
920.818	12658
920.928	12654
921.038	12844
921.148	12741
921.258	12437
921.368	12361
921.477	12239
921.587	12243
921.697	12125
921.806	12220
921.916	12121
922.025	11939
922.134	11870
922.244	11916
922.353	11980
922.462	11828
922.571	11619
922.68	11570
922.789	11493
922.898	11551
923.007	11478
923.116	11596
923.224	11436
923.333	11535
923.442	11474
923.55	11383
923.659	11478
923.767	11463
923.876	11353
923.984	11452
924.092	11307
924.201	11478
924.309	11337
924.417	11368
924.525	11303
924.633	11250
924.741	12243
924.849	11083
924.956	11356
925.064	11185
925.172	10995
925.279	11060
925.387	11159
925.494	11045
925.602	11277
925.709	11094
925.816	11010
925.924	11117
926.031	11170
926.138	11079
926.245	11086
926.352	10991
926.459	11090
926.566	11037
926.673	11022
926.779	10904
926.886	10953
926.993	10714
927.099	10759
927.206	10584
927.312	10721
927.419	10736
927.525	10771
927.631	10759
927.737	10691
927.843	10622
927.95	10489
928.056	10519
928.162	10603
928.267	10664
928.373	11208
928.479	10694
928.585	10322
928.69	10607
928.796	10561
928.901	10466
929.007	10363
929.112	10432
929.218	10394
929.323	10379
929.428	10356
929.533	10447
929.638	10310
929.743	10344
929.848	10382
929.953	10322
930.058	10238
930.163	10078
930.267	10109
930.372	10242
930.477	10032
930.581	10314
930.685	10124
930.79	9930
930.894	9994
930.998	10010
931.103	10154
931.207	9713
931.311	9644
931.415	9591
931.519	9447
931.623	9462
