Data from test_V78500241_3759.txt Node
Date: Fri Mar 25 16:07:50 CST 2022
User: usil
Spectrometer: V785-0024
Trigger mode: 0
Integration Time (sec): 4.000000E-1
Scans to average: 1
Nonlinearity correction enabled: false
Boxcar width: 0
Storing dark spectrum: false
XAxis mode: Wavelengths
Number of Pixels in Spectrum: 1024
>>>>>Begin Spectral Data<<<<<
801.071	20172
801.214	20199
801.356	20142
801.499	20050
801.641	20153
801.783	20176
801.926	20301
802.068	20332
802.211	20484
802.353	20465
802.496	20381
802.638	20438
802.78	20408
802.923	20514
803.065	20568
803.208	20640
803.35	20629
803.492	20853
803.635	20929
803.777	20845
803.919	20998
804.061	21420
804.204	21062
804.346	21100
804.488	20944
804.63	21123
804.773	21123
804.915	21180
805.057	21401
805.199	21108
805.341	21310
805.483	21462
805.626	21313
805.768	21431
805.91	21408
806.052	21435
806.194	21405
806.336	21526
806.478	21420
806.62	21450
806.762	21641
806.904	21857
807.046	21842
807.188	21762
807.33	21888
807.472	21899
807.614	21709
807.756	21804
807.898	21701
808.04	21542
808.182	21519
808.324	21705
808.465	21583
808.607	21793
808.749	21930
808.891	21964
809.033	22090
809.174	22036
809.316	21899
809.458	21926
809.6	21812
809.741	21903
809.883	22059
810.025	22268
810.166	22196
810.308	22128
810.45	22078
810.591	22002
810.733	21854
810.875	21857
811.016	21781
811.158	21694
811.299	21800
811.441	22036
811.582	22006
811.724	21812
811.865	21827
812.007	21876
812.148	21812
812.29	21812
812.431	22025
812.573	22147
812.714	22215
812.855	22367
812.997	22375
813.138	22512
813.279	22569
813.421	22398
813.562	22398
813.703	22211
813.845	22147
813.986	21876
814.127	21629
814.268	21542
814.41	21610
814.551	21526
814.692	21591
814.833	21519
814.974	21557
815.115	21671
815.256	21507
815.397	21526
815.539	21477
815.68	21401
815.821	21389
815.962	21481
816.103	21447
816.244	21321
816.385	21272
816.526	21302
816.666	21093
816.807	20967
816.948	21039
817.089	21096
817.23	21032
817.371	21077
817.512	20895
817.653	21154
817.793	21104
817.934	21085
818.075	21203
818.216	21055
818.356	21009
818.497	21047
818.638	20838
818.778	20857
818.919	20887
819.06	20956
819.2	21017
819.341	21211
819.481	21264
819.622	21294
819.762	21488
819.903	21420
820.043	21332
820.184	21252
820.324	21313
820.465	21488
820.605	21275
820.746	21405
820.886	21310
821.026	21450
821.167	21462
821.307	21564
821.447	21477
821.588	21405
821.728	21264
821.868	21123
822.008	20929
822.149	20963
822.289	20929
822.429	20754
822.569	20727
822.709	20617
822.849	20533
822.99	20621
823.13	20503
823.27	20389
823.41	20389
823.55	20320
823.69	20408
823.83	20473
823.97	20305
824.11	20229
824.25	20142
824.389	20347
824.529	20275
824.669	20256
824.809	20336
824.949	20221
825.089	20385
825.228	20202
825.368	20134
825.508	20103
825.648	20176
825.787	20180
825.927	20381
826.067	20096
826.206	20202
826.346	20214
826.485	20183
826.625	20218
826.765	20366
826.904	20214
827.044	20084
827.183	19955
827.323	20012
827.462	20020
827.601	19970
827.741	19967
827.88	20126
828.02	19993
828.159	20084
828.298	20062
828.437	20081
828.577	20081
828.716	20240
828.855	20016
828.994	19875
829.134	19932
829.273	19906
829.412	19917
829.551	19837
829.69	19883
829.829	20027
829.968	20119
830.107	20039
830.246	19963
830.385	19864
830.524	19860
830.663	19814
830.802	19700
830.941	19605
831.08	19601
831.219	19666
831.357	19795
831.496	19925
831.635	19639
831.774	19552
831.913	19540
832.051	19499
832.19	19472
832.329	19430
832.467	19369
832.606	19472
832.744	19324
832.883	19495
833.022	19396
833.16	19445
833.299	19632
833.437	19445
833.576	19594
833.714	19639
833.852	19655
833.991	19609
834.129	19776
834.267	19620
834.406	19529
834.544	19537
834.682	19674
834.821	19521
834.959	19822
835.097	19575
835.235	19738
835.373	19761
835.511	19670
835.65	19639
835.788	19597
835.926	19533
836.064	19472
836.202	19483
836.34	19624
836.478	19715
836.615	19639
836.753	19761
836.891	19818
837.029	19799
837.167	19613
837.305	19613
837.443	19597
837.58	19635
837.718	19750
837.856	19723
837.993	19544
838.131	19791
838.269	19567
838.406	19559
838.544	19559
838.681	19400
838.819	19316
838.956	19289
839.094	19209
839.231	19285
839.369	19449
839.506	19597
839.643	19582
839.781	19445
839.918	19278
840.055	19320
840.193	19377
840.33	19304
840.467	19339
840.604	19388
840.742	19613
840.879	19278
841.016	19373
841.153	19301
841.29	19457
841.427	19468
841.564	19533
841.701	19403
841.838	19308
841.975	19343
842.112	19293
842.249	19278
842.385	19304
842.522	19510
842.659	19343
842.796	19350
842.933	19331
843.069	19209
843.206	19259
843.343	19339
843.479	19438
843.616	19282
843.752	19198
843.889	19209
844.025	19426
844.162	19190
844.298	19354
844.435	19244
844.571	19156
844.708	19308
844.844	19403
844.98	19343
845.117	19441
845.253	19320
845.389	19206
845.525	19259
845.661	19118
845.798	19095
845.934	19156
846.07	19034
846.206	19107
846.342	19285
846.478	19156
846.614	19004
846.75	18867
846.886	18916
847.022	19015
847.158	18985
847.294	18833
847.429	18909
847.565	18977
847.701	19103
847.837	18688
847.972	18764
848.108	18863
848.244	18840
848.379	18700
848.515	18715
848.65	18544
848.786	18593
848.921	18703
849.057	18692
849.192	18711
849.328	18776
849.463	18684
849.598	18521
849.734	18612
849.869	18452
850.004	18388
850.14	18353
850.275	18494
850.41	18338
850.545	18509
850.68	18456
850.815	18494
850.95	18437
851.085	18658
851.22	18559
851.355	18376
851.49	18342
851.625	18403
851.76	18467
851.895	18395
852.03	18304
852.165	18448
852.299	18532
852.434	18620
852.569	18513
852.703	18559
852.838	18585
852.973	18779
853.107	18574
853.242	18422
853.376	18395
853.511	18220
853.645	18292
853.78	18498
853.914	18464
854.048	18384
854.183	18369
854.317	18334
854.451	18582
854.585	18452
854.72	18403
854.854	18506
854.988	18319
855.122	18479
855.256	18292
855.39	18399
855.524	18467
855.658	18365
855.792	18346
855.926	18479
856.06	18380
856.194	18589
856.327	18479
856.461	18327
856.595	18391
856.729	18448
856.862	18441
856.996	18456
857.13	18445
857.263	18483
857.397	18601
857.53	18403
857.664	18502
857.797	18437
857.931	18566
858.064	18388
858.197	18563
858.331	18559
858.464	18410
858.597	18323
858.731	18486
858.864	18330
858.997	18403
859.13	18452
859.263	18464
859.396	18521
859.529	18467
859.662	18315
859.795	18448
859.928	18521
860.061	18642
860.194	18700
860.327	18433
860.46	18479
860.592	18627
860.725	18684
860.858	18498
860.99	18494
861.123	18384
861.256	18467
861.388	18616
861.521	19198
861.653	18521
861.786	18300
861.918	18239
862.05	18338
862.183	18338
862.315	18494
862.447	18540
862.58	18414
862.712	18205
862.844	18155
862.976	18426
863.108	18296
863.24	18787
863.372	18285
863.504	18277
863.636	18247
863.768	18258
863.9	18296
864.032	18216
864.164	18235
864.296	18289
864.428	18357
864.559	18304
864.691	18330
864.823	18311
864.954	18232
865.086	18296
865.217	18357
865.349	18182
865.48	18148
865.612	18171
865.743	18220
865.875	18300
866.006	18205
866.137	18235
866.269	18224
866.4	18163
866.531	18057
866.662	18102
866.793	18133
866.924	18095
867.055	18319
867.186	18194
867.317	18129
867.448	18091
867.579	18205
867.71	18102
867.841	18110
867.972	18266
868.103	18121
868.233	18228
868.364	18064
868.495	18262
868.625	18479
868.756	18384
868.886	18403
869.017	18376
869.147	18551
869.278	18532
869.408	18346
869.539	18342
869.669	18536
869.799	18506
869.929	18570
870.06	18532
870.19	18760
870.32	18749
870.45	18768
870.58	18848
870.71	18878
870.84	18954
870.97	18829
871.1	18859
871.23	18973
871.36	19015
871.489	18829
871.619	18966
871.749	19088
871.879	19122
872.008	19042
872.138	19110
872.267	19042
872.397	18897
872.526	18951
872.656	18821
872.785	18779
872.915	19042
873.044	19088
873.173	18985
873.303	19168
873.432	19236
873.561	19285
873.69	19091
873.819	19095
873.948	19175
874.077	19103
874.206	19034
874.335	19061
874.464	19194
874.593	19282
874.722	19400
874.851	19400
874.979	19362
875.108	19491
875.237	19247
875.365	19274
875.494	19278
875.623	19377
875.751	19304
875.88	19255
876.008	19464
876.136	19575
876.265	19712
876.393	19795
876.521	19750
876.65	19723
876.778	19765
876.906	19757
877.034	19712
877.162	19696
877.29	19635
877.418	19776
877.546	19772
877.674	19780
877.802	19708
877.93	19643
878.058	19616
878.185	19597
878.313	19670
878.441	19685
878.568	19480
878.696	19613
878.824	19647
878.951	19826
879.079	19978
879.206	20027
879.333	19936
879.461	19769
879.588	19852
879.715	19917
879.842	20096
879.97	19784
880.097	19609
880.224	19662
880.351	19662
880.478	19594
880.605	19571
880.732	19662
880.859	19814
880.986	19552
881.112	19681
881.239	19422
881.366	19285
881.493	19251
881.619	19190
881.746	19206
881.872	19171
881.999	19194
882.125	19095
882.252	19091
882.378	19236
882.505	19148
882.631	19084
882.757	18909
882.883	18947
883.01	18970
883.136	18878
883.262	18779
883.388	18711
883.514	18932
883.64	18943
883.766	18806
883.892	18696
884.018	18700
884.143	18913
884.269	18958
884.395	18601
884.52	18494
884.646	18555
884.772	18506
884.897	18460
885.023	18574
885.148	18608
885.274	18620
885.399	18661
885.524	18525
885.65	18566
885.775	18475
885.9	18563
886.025	18612
886.15	18669
886.275	18612
886.4	18361
886.525	18559
886.65	18464
886.775	18517
886.9	18707
887.025	18757
887.149	18528
887.274	18395
887.399	18330
887.523	18334
887.648	18292
887.773	18399
887.897	18388
888.021	18521
888.146	18262
888.27	18441
888.395	18475
888.519	18380
888.643	18429
888.767	18327
888.891	18353
889.015	18167
889.139	18213
889.263	18266
889.387	18281
889.511	18300
889.635	18319
889.759	18152
889.883	18114
890.006	18194
890.13	18315
890.254	18110
890.377	18125
890.501	17908
890.624	17832
890.748	17988
890.871	17889
890.995	17771
891.118	17630
891.241	17828
891.364	17771
891.488	17901
891.611	17748
891.734	17798
891.857	17882
891.98	17790
892.103	17767
892.226	17684
892.349	17581
892.471	17554
892.594	17630
892.717	17604
892.839	17573
892.962	17516
893.085	17741
893.207	17619
893.33	17539
893.452	17566
893.575	17627
893.697	17600
893.819	17756
893.941	17859
894.064	17684
894.186	17406
894.308	17417
894.43	17611
894.552	17596
894.674	17642
894.796	17398
894.918	17501
895.04	17341
895.161	17535
895.283	17421
895.405	17395
895.526	17387
895.648	17406
895.769	17379
895.891	17493
896.012	17455
896.134	17429
896.255	17444
896.376	17288
896.498	17273
896.619	17402
896.74	17406
896.861	17315
896.982	17604
897.103	17764
897.224	17501
897.345	17345
897.466	17235
897.587	17235
897.708	17551
897.828	17368
897.949	17170
898.07	17178
898.19	17162
898.311	17277
898.431	17117
898.552	17311
898.672	17334
898.792	17326
898.913	17212
899.033	17090
899.153	16900
899.273	16812
899.393	16843
899.513	16828
899.633	16763
899.753	16839
899.873	16778
899.993	16790
900.113	16717
900.232	16793
900.352	16645
900.472	16660
900.591	16573
900.711	16538
900.83	16519
900.95	16698
901.069	16603
901.189	16470
901.308	16249
901.427	16223
901.546	16242
901.665	16333
901.784	16333
901.904	16059
902.023	16154
902.141	15934
902.26	15759
902.379	15987
902.498	15991
902.617	15979
902.735	16036
902.854	15865
902.973	15926
903.091	15797
903.21	15694
903.328	15728
903.446	15675
903.565	15656
903.683	15686
903.801	15549
903.919	15614
904.038	15770
904.156	15599
904.274	15663
904.392	15576
904.51	15561
904.627	15698
904.745	15720
904.863	15793
904.981	15492
905.098	15431
905.216	15511
905.334	15507
905.451	15496
905.569	15454
905.686	15530
905.803	15496
905.921	15504
906.038	15374
906.155	15473
906.272	15408
906.389	15447
906.506	15252
906.623	15237
906.74	15283
906.857	15135
906.974	15325
907.091	15283
907.208	15412
907.324	15412
907.441	15317
907.557	15188
907.674	15112
907.79	15123
907.907	15104
908.023	15252
908.139	15188
908.256	15222
908.372	15047
908.488	15131
908.604	15058
908.72	15032
908.836	14971
908.952	14933
909.068	15005
909.184	15165
909.3	15001
909.415	15123
909.531	15020
909.647	14872
909.762	14838
909.878	14773
909.993	14861
910.108	14746
910.224	14788
910.339	14777
910.454	14705
910.57	14663
910.685	14564
910.8	14868
910.915	14857
911.03	14606
911.145	14571
911.259	14503
911.374	14495
911.489	14461
911.604	14347
911.718	14248
911.833	14301
911.947	14233
912.062	14145
912.176	14298
912.291	14351
912.405	14240
912.519	14465
912.633	14450
912.748	14301
912.862	14290
912.976	14237
913.09	14096
913.204	13997
913.318	14084
913.431	14233
913.545	14176
913.659	14252
913.772	14062
913.886	13951
914	14046
914.113	14050
914.226	14187
914.34	14138
914.453	13947
914.566	14001
914.68	13887
914.793	13887
914.906	13685
915.019	13670
915.132	13723
915.245	13594
915.358	13784
915.47	13689
915.583	13613
915.696	13700
915.809	13761
915.921	13772
916.034	13666
916.146	13575
916.259	13620
916.371	13681
916.483	13567
916.595	13502
916.708	13594
916.82	13540
916.932	13510
917.044	13499
917.156	13487
917.268	13365
917.38	13419
917.491	13304
917.603	13350
917.715	13468
917.826	13521
917.938	13327
918.049	13209
918.161	13373
918.272	13491
918.384	13445
918.495	13434
918.606	13259
918.717	13183
918.828	13171
918.939	13278
919.05	13095
919.161	13179
919.272	12833
919.383	12958
919.494	13240
919.604	13449
919.715	13228
919.826	13118
919.936	13179
920.047	13209
920.157	13198
920.267	13343
920.378	13209
920.488	13126
920.598	13240
920.708	13460
920.818	13263
920.928	13293
921.038	13422
921.148	13403
921.258	13164
921.368	13015
921.477	12970
921.587	12916
921.697	12791
921.806	12935
921.916	12776
922.025	12684
922.134	12559
922.244	12547
922.353	12620
922.462	12506
922.571	12464
922.68	12346
922.789	12247
922.898	12254
923.007	12281
923.116	12380
923.224	12277
923.333	12254
923.442	12095
923.55	12136
923.659	12087
923.767	12213
923.876	12148
923.984	12140
924.092	12007
924.201	12049
924.309	12072
924.417	12038
924.525	11961
924.633	11980
924.741	12939
924.849	11775
924.956	11889
925.064	11935
925.172	11790
925.279	11699
925.387	11790
925.494	11680
925.602	11874
925.709	11764
925.816	11642
925.924	11737
926.031	11748
926.138	11756
926.245	11748
926.352	11596
926.459	11767
926.566	11847
926.673	11657
926.779	11592
926.886	11512
926.993	11417
927.099	11368
927.206	11387
927.312	11337
927.419	11356
927.525	11315
927.631	11330
927.737	11193
927.843	11166
927.95	11018
928.056	11052
928.162	11254
928.267	11269
928.373	11756
928.479	11269
928.585	11014
928.69	11113
928.796	11227
928.901	11056
929.007	10934
929.112	11003
929.218	11060
929.323	10946
929.428	10889
929.533	11006
929.638	10797
929.743	10873
929.848	10919
929.953	10930
930.058	10763
930.163	10573
930.267	10641
930.372	10691
930.477	10565
930.581	10782
930.685	10645
930.79	10519
930.894	10531
930.998	10489
931.103	10645
931.207	10219
931.311	10200
931.415	10143
931.519	9949
931.623	9926
