Data from test_V78500241_1216.txt Node
Date: Fri Mar 25 15:50:13 CST 2022
User: usil
Spectrometer: V785-0024
Trigger mode: 0
Integration Time (sec): 4.000000E-1
Scans to average: 1
Nonlinearity correction enabled: false
Boxcar width: 0
Storing dark spectrum: false
XAxis mode: Wavelengths
Number of Pixels in Spectrum: 1024
>>>>>Begin Spectral Data<<<<<
801.071	28660
801.214	28618
801.356	28516
801.499	28375
801.641	28249
801.783	28318
801.926	28303
802.068	28295
802.211	28337
802.353	28131
802.496	27869
802.638	27968
802.78	27949
802.923	27857
803.065	27846
803.208	27960
803.35	27926
803.492	28044
803.635	28097
803.777	28185
803.919	28303
804.061	28603
804.204	28257
804.346	28036
804.488	28078
804.63	28261
804.773	28116
804.915	28276
805.057	28295
805.199	28147
805.341	28413
805.483	28443
805.626	28352
805.768	28078
805.91	28360
806.052	28382
806.194	28367
806.336	28588
806.478	28436
806.62	28516
806.762	28588
806.904	28767
807.046	28828
807.188	28778
807.33	28782
807.472	28953
807.614	28778
807.756	28820
807.898	28622
808.04	28675
808.182	28752
808.324	28873
808.465	28892
808.607	29003
808.749	29033
808.891	29094
809.033	29098
809.174	29159
809.316	29041
809.458	29052
809.6	28942
809.741	29174
809.883	29147
810.025	29436
810.166	29360
810.308	29322
810.45	29345
810.591	29414
810.733	29235
810.875	29250
811.016	28995
811.158	28949
811.299	29208
811.441	29197
811.582	29273
811.724	29067
811.865	29037
812.007	29197
812.148	29041
812.29	29166
812.431	29368
812.573	29425
812.714	29623
812.855	29562
812.997	29764
813.138	29847
813.279	29794
813.421	29760
813.562	29627
813.703	29551
813.845	29318
813.986	29018
814.127	28942
814.268	28873
814.41	28850
814.551	28771
814.692	28957
814.833	28771
814.974	28805
815.115	28869
815.256	28649
815.397	28675
815.539	28698
815.68	28691
815.821	28599
815.962	28618
816.103	28664
816.244	28481
816.385	28424
816.526	28459
816.666	28128
816.807	28070
816.948	28246
817.089	28249
817.23	28147
817.371	28059
817.512	28196
817.653	28230
817.793	28112
817.934	28093
818.075	28173
818.216	28143
818.356	28124
818.497	28109
818.638	27831
818.778	27926
818.919	27899
819.06	28013
819.2	27983
819.341	28097
819.481	28105
819.622	28185
819.762	28478
819.903	28367
820.043	28291
820.184	28226
820.324	28310
820.465	28299
820.605	28356
820.746	28310
820.886	28128
821.026	28185
821.167	28211
821.307	28223
821.447	28116
821.588	28177
821.728	27892
821.868	27793
822.008	27526
822.149	27519
822.289	27523
822.429	27359
822.569	27237
822.709	27283
822.849	27085
822.99	27112
823.13	27146
823.27	27062
823.41	26979
823.55	26876
823.69	26956
823.83	26781
823.97	26849
824.11	26887
824.25	26659
824.389	26731
824.529	26929
824.669	26838
824.809	26899
824.949	26746
825.089	26929
825.228	26785
825.368	26689
825.508	26625
825.648	26720
825.787	26594
825.927	26762
826.067	26499
826.206	26651
826.346	26701
826.485	26807
826.625	26686
826.765	26739
826.904	26811
827.044	26522
827.183	26393
827.323	26298
827.462	26568
827.601	26400
827.741	26317
827.88	26370
828.02	26301
828.159	26324
828.298	26442
828.437	26393
828.577	26252
828.716	26396
828.855	26275
828.994	26069
829.134	26210
829.273	26058
829.412	25986
829.551	26016
829.69	25993
829.829	26054
829.968	26252
830.107	26153
830.246	26050
830.385	26012
830.524	25997
830.663	25860
830.802	25818
830.941	25795
831.08	25613
831.219	25712
831.357	25814
831.496	25902
831.635	25700
831.774	25651
831.913	25655
832.051	25495
832.19	25525
832.329	25487
832.467	25373
832.606	25426
832.744	25304
832.883	25354
833.022	25335
833.16	25407
833.299	25384
833.437	25263
833.576	25339
833.714	25377
833.852	25403
833.991	25346
834.129	25419
834.267	25559
834.406	25518
834.544	25365
834.682	25346
834.821	25293
834.959	25499
835.097	25304
835.235	25438
835.373	25457
835.511	25377
835.65	25270
835.788	25217
835.926	25133
836.064	25065
836.202	24985
836.34	25221
836.478	25232
836.615	25194
836.753	25266
836.891	25263
837.029	25069
837.167	25156
837.305	25099
837.443	25065
837.58	25038
837.718	25091
837.856	25141
837.993	25015
838.131	25031
838.269	24981
838.406	25031
838.544	24772
838.681	24734
838.819	24528
838.956	24544
839.094	24483
839.231	24536
839.369	24753
839.506	24791
839.643	24878
839.781	24479
839.918	24448
840.055	24544
840.193	24475
840.33	24475
840.467	24338
840.604	24426
840.742	24578
840.879	24258
841.016	24460
841.153	24247
841.29	24467
841.427	24426
841.564	24407
841.701	24334
841.838	24357
841.975	24159
842.112	24304
842.249	24232
842.385	24213
842.522	24437
842.659	24388
842.796	24133
842.933	24114
843.069	24117
843.206	24076
843.343	24182
843.479	24148
843.616	24159
843.752	23950
843.889	23840
844.025	24197
844.162	23885
844.298	24072
844.435	23954
844.571	23878
844.708	24045
844.844	23980
844.98	24106
845.117	24106
845.253	23775
845.389	23824
845.525	23794
845.661	23927
845.798	23882
845.934	23676
846.07	23642
846.206	23646
846.342	23745
846.478	23589
846.614	23482
846.75	23372
846.886	23452
847.022	23444
847.158	23440
847.294	23459
847.429	23444
847.565	23410
847.701	23554
847.837	23159
847.972	23124
848.108	23326
848.244	23132
848.379	23044
848.515	22991
848.65	22957
848.786	23033
848.921	22843
849.057	23113
849.192	23071
849.328	23117
849.463	22911
849.598	22949
849.734	22904
849.869	22755
850.004	22615
850.14	22774
850.275	22687
850.41	22603
850.545	22611
850.68	22599
850.815	22687
850.95	22748
851.085	22843
851.22	22778
851.355	22706
851.49	22771
851.625	22694
851.76	22675
851.895	22649
852.03	22687
852.165	22691
852.299	22797
852.434	22763
852.569	22839
852.703	22767
852.838	22812
852.973	22892
853.107	22873
853.242	22729
853.376	22531
853.511	22565
853.645	22634
853.78	22786
853.914	22618
854.048	22504
854.183	22527
854.317	22603
854.451	22831
854.585	22443
854.72	22504
854.854	22641
854.988	22500
855.122	22557
855.256	22337
855.39	22523
855.524	22653
855.658	22580
855.792	22500
855.926	22584
856.06	22478
856.194	22637
856.327	22622
856.461	22584
856.595	22436
856.729	22550
856.862	22588
856.996	22535
857.13	22649
857.263	22611
857.397	22596
857.53	22470
857.664	22683
857.797	22656
857.931	22664
858.064	22424
858.197	22725
858.331	22504
858.464	22440
858.597	22664
858.731	22493
858.864	22512
858.997	22432
859.13	22626
859.263	22584
859.396	22683
859.529	22649
859.662	22405
859.795	22531
859.928	22615
860.061	22672
860.194	22664
860.327	22607
860.46	22527
860.592	22717
860.725	22713
860.858	22580
860.99	22557
861.123	22421
861.256	22470
861.388	22607
861.521	23265
861.653	22344
861.786	22341
861.918	22519
862.05	22497
862.183	22500
862.315	22455
862.447	22512
862.58	22428
862.712	22207
862.844	22196
862.976	22375
863.108	22344
863.24	22740
863.372	22093
863.504	22299
863.636	22169
863.768	22390
863.9	22204
864.032	22204
864.164	22230
864.296	22139
864.428	22314
864.559	22211
864.691	22333
864.823	22333
864.954	22185
865.086	22249
865.217	22070
865.349	22010
865.48	22215
865.612	22112
865.743	22230
865.875	22128
866.006	22109
866.137	22139
866.269	22078
866.4	22067
866.531	21968
866.662	22032
866.793	22010
866.924	22101
867.055	22074
867.186	22017
867.317	22059
867.448	21926
867.579	22040
867.71	22044
867.841	22029
867.972	21975
868.103	22120
868.233	22055
868.364	22051
868.495	22109
868.625	22249
868.756	22470
868.886	22169
869.017	22341
869.147	22379
869.278	22405
869.408	22299
869.539	22246
869.669	22447
869.799	22348
869.929	22386
870.06	22455
870.19	22519
870.32	22630
870.45	22721
870.58	22679
870.71	22687
870.84	22691
870.97	22672
871.1	22672
871.23	22771
871.36	22824
871.489	22904
871.619	22752
871.749	22911
871.879	22915
872.008	22984
872.138	22957
872.267	22812
872.397	22755
872.526	22736
872.656	22626
872.785	22691
872.915	22930
873.044	22911
873.173	22843
873.303	23006
873.432	22984
873.561	23071
873.69	22896
873.819	22930
873.948	22991
874.077	22858
874.206	22896
874.335	22968
874.464	23048
874.593	23254
874.722	23052
874.851	23128
874.979	23143
875.108	23208
875.237	23090
875.365	22949
875.494	22965
875.623	23269
875.751	23075
875.88	23193
876.008	23273
876.136	23159
876.265	23547
876.393	23585
876.521	23440
876.65	23596
876.778	23433
876.906	23406
877.034	23486
877.162	23429
877.29	23429
877.418	23467
877.546	23516
877.674	23509
877.802	23463
877.93	23539
878.058	23425
878.185	23261
878.313	23341
878.441	23429
878.568	23208
878.696	23501
878.824	23421
878.951	23547
879.079	23524
879.206	23718
879.333	23604
879.461	23562
879.588	23642
879.715	23604
879.842	23745
879.97	23429
880.097	23307
880.224	23341
880.351	23269
880.478	23383
880.605	23193
880.732	23376
880.859	23558
880.986	23311
881.112	23231
881.239	23124
881.366	22984
881.493	22942
881.619	22885
881.746	22839
881.872	22900
881.999	22759
882.125	22774
882.252	22797
882.378	22869
882.505	22908
882.631	22588
882.757	22531
882.883	22573
883.01	22432
883.136	22421
883.262	22390
883.388	22379
883.514	22485
883.64	22519
883.766	22390
883.892	22223
884.018	22322
884.143	22409
884.269	22523
884.395	22257
884.52	22185
884.646	22139
884.772	22010
884.897	22021
885.023	22139
885.148	22181
885.274	22306
885.399	22226
885.524	22021
885.65	22177
885.775	22147
885.9	22067
886.025	22207
886.15	22169
886.275	22070
886.4	22112
886.525	22006
886.65	22074
886.775	22063
886.9	22204
887.025	22303
887.149	22044
887.274	21983
887.399	21975
887.523	21835
887.648	21819
887.773	21804
887.897	22013
888.021	22029
888.146	21808
888.27	21930
888.395	22013
888.519	21838
888.643	21888
888.767	21994
888.891	21804
889.015	21686
889.139	21739
889.263	21728
889.387	21701
889.511	21793
889.635	21766
889.759	21717
889.883	21679
890.006	21717
890.13	21709
890.254	21538
890.377	21572
890.501	21340
890.624	21416
890.748	21507
890.871	21310
890.995	21218
891.118	21180
891.241	21302
891.364	21264
891.488	21428
891.611	21207
891.734	21211
891.857	21298
891.98	21241
892.103	21272
892.226	21207
892.349	21150
892.471	20994
892.594	21112
892.717	21104
892.839	21096
892.962	21070
893.085	21222
893.207	21119
893.33	20971
893.452	21036
893.575	21135
893.697	21154
893.819	21211
893.941	21313
894.064	21268
894.186	21001
894.308	21077
894.43	21116
894.552	21184
894.674	21146
894.796	21062
894.918	21226
895.04	21108
895.161	21218
895.283	21127
895.405	20956
895.526	21161
895.648	21009
895.769	21108
895.891	21135
896.012	21188
896.134	21184
896.255	21051
896.376	21032
896.498	21123
896.619	21085
896.74	21036
896.861	21184
896.982	21420
897.103	21530
897.224	21386
897.345	21317
897.466	21222
897.587	21336
897.708	21363
897.828	21389
897.949	21142
898.07	21013
898.19	21245
898.311	21344
898.431	21157
898.552	21291
898.672	21363
898.792	21374
898.913	21275
899.033	21135
899.153	21085
899.273	20994
899.393	20971
899.513	20998
899.633	21013
899.753	21062
899.873	20910
899.993	21112
900.113	20990
900.232	20998
900.352	20956
900.472	20876
900.591	20727
900.711	20830
900.83	20773
900.95	20967
901.069	20906
901.189	20579
901.308	20328
901.427	20301
901.546	20355
901.665	20423
901.784	20149
901.904	20259
902.023	20183
902.141	19944
902.26	19887
902.379	20035
902.498	19875
902.617	19879
902.735	19875
902.854	19841
902.973	19727
903.091	19468
903.21	19510
903.328	19586
903.446	19495
903.565	19415
903.683	19304
903.801	19171
903.919	19225
904.038	19282
904.156	19171
904.274	19046
904.392	19015
904.51	19133
904.627	18962
904.745	19126
904.863	19038
904.981	18825
905.098	18692
905.216	18612
905.334	18730
905.451	18821
905.569	18726
905.686	18863
905.803	18779
905.921	18570
906.038	18768
906.155	18498
906.272	18433
906.389	18380
906.506	18304
906.623	18277
906.74	18353
906.857	18178
906.974	18228
907.091	18330
907.208	18353
907.324	18270
907.441	18186
907.557	18076
907.674	18064
907.79	17927
907.907	17950
908.023	18026
908.139	18045
908.256	17969
908.372	17855
908.488	17908
908.604	17741
908.72	17764
908.836	17752
908.952	17752
909.068	17687
909.184	17714
909.3	17638
909.415	17684
909.531	17722
909.647	17459
909.762	17497
909.878	17440
909.993	17486
910.108	17303
910.224	17478
910.339	17356
910.454	17356
910.57	17246
910.685	17086
910.8	17387
910.915	17410
911.03	17197
911.145	17022
911.259	17079
911.374	16961
911.489	16980
911.604	16976
911.718	16790
911.833	16816
911.947	16653
912.062	16542
912.176	16717
912.291	16713
912.405	16729
912.519	16892
912.633	16908
912.748	16687
912.862	16656
912.976	16645
913.09	16481
913.204	16516
913.318	16451
913.431	16694
913.545	16664
913.659	16675
913.772	16455
913.886	16337
914	16363
914.113	16291
914.226	16592
914.34	16318
914.453	16169
914.566	16341
914.68	16166
914.793	16226
914.906	16051
915.019	15964
915.132	15831
915.245	15949
915.358	16006
915.47	15953
915.583	15907
915.696	16063
915.809	15991
915.921	16074
916.034	15991
916.146	15854
916.259	15766
916.371	15915
916.483	15789
916.595	15766
916.708	15698
916.82	15808
916.932	15644
917.044	15679
917.156	15652
917.268	15507
917.38	15469
917.491	15507
917.603	15507
917.715	15530
917.826	15618
917.938	15420
918.049	15340
918.161	15408
918.272	15618
918.384	15625
918.495	15477
918.606	15367
918.717	15268
918.828	15173
918.939	15408
919.05	15184
919.161	15146
919.272	15108
919.383	15138
919.494	15287
919.604	15393
919.715	15256
919.826	15233
919.936	15176
920.047	15351
920.157	15272
920.267	15443
920.378	15218
920.488	15222
920.598	15447
920.708	15530
920.818	15313
920.928	15302
921.038	15485
921.148	15538
921.258	15131
921.368	15058
921.477	14971
921.587	14998
921.697	14823
921.806	14792
921.916	14743
922.025	14640
922.134	14568
922.244	14556
922.353	14632
922.462	14480
922.571	14389
922.68	14286
922.789	14176
922.898	14210
923.007	14176
923.116	14218
923.224	14187
923.333	14206
923.442	14062
923.55	14054
923.659	14111
923.767	14111
923.876	13989
923.984	14039
924.092	13925
924.201	14001
924.309	13959
924.417	13890
924.525	13833
924.633	13868
924.741	14625
924.849	13685
924.956	13772
925.064	13658
925.172	13597
925.279	13636
925.387	13636
925.494	13677
925.602	13670
925.709	13689
925.816	13491
925.924	13605
926.031	13552
926.138	13586
926.245	13628
926.352	13449
926.459	13586
926.566	13693
926.673	13430
926.779	13350
926.886	13377
926.993	13244
927.099	13202
927.206	13088
927.312	13141
927.419	13118
927.525	13164
927.631	13225
927.737	13057
927.843	13015
927.95	12878
928.056	13000
928.162	12935
928.267	13019
928.373	13677
928.479	13149
928.585	12806
928.69	12890
928.796	12993
928.901	12776
929.007	12707
929.112	12791
929.218	12776
929.323	12779
929.428	12665
929.533	12848
929.638	12540
929.743	12639
929.848	12684
929.953	12620
930.058	12551
930.163	12304
930.267	12376
930.372	12460
930.477	12376
930.581	12471
930.685	12338
930.79	12251
930.894	12228
930.998	12205
931.103	12369
931.207	11988
931.311	11904
931.415	11798
931.519	11512
931.623	11589
