Data from test_V78500241_2545.txt Node
Date: Fri Mar 25 15:59:25 CST 2022
User: usil
Spectrometer: V785-0024
Trigger mode: 0
Integration Time (sec): 4.000000E-1
Scans to average: 1
Nonlinearity correction enabled: false
Boxcar width: 0
Storing dark spectrum: false
XAxis mode: Wavelengths
Number of Pixels in Spectrum: 1024
>>>>>Begin Spectral Data<<<<<
801.071	28675
801.214	28599
801.356	28508
801.499	28421
801.641	28341
801.783	28280
801.926	28306
802.068	28215
802.211	28215
802.353	28253
802.496	28036
802.638	27975
802.78	27979
802.923	27922
803.065	28097
803.208	27781
803.35	27926
803.492	28078
803.635	28284
803.777	28036
803.919	28360
804.061	28390
804.204	28249
804.346	28021
804.488	28192
804.63	28150
804.773	28074
804.915	28265
805.057	28447
805.199	28215
805.341	28455
805.483	28478
805.626	28310
805.768	28379
805.91	28554
806.052	28417
806.194	28379
806.336	28344
806.478	28474
806.62	28440
806.762	28542
806.904	28866
807.046	28831
807.188	28839
807.33	28869
807.472	28980
807.614	28812
807.756	28968
807.898	28801
808.04	28580
808.182	28710
808.324	28850
808.465	28786
808.607	28934
808.749	29174
808.891	29170
809.033	29398
809.174	29143
809.316	29159
809.458	29071
809.6	28984
809.741	29288
809.883	29193
810.025	29315
810.166	29402
810.308	29440
810.45	29299
810.591	29364
810.733	29147
810.875	29193
811.016	29124
811.158	28847
811.299	29178
811.441	29216
811.582	29349
811.724	29098
811.865	29121
812.007	29174
812.148	29216
812.29	29223
812.431	29273
812.573	29440
812.714	29455
812.855	29581
812.997	29760
813.138	29908
813.279	29760
813.421	29642
813.562	29585
813.703	29368
813.845	29417
813.986	29048
814.127	28759
814.268	28892
814.41	28854
814.551	28797
814.692	28771
814.833	28809
814.974	28740
815.115	28771
815.256	28759
815.397	28797
815.539	28596
815.68	28626
815.821	28489
815.962	28622
816.103	28698
816.244	28542
816.385	28504
816.526	28284
816.666	28234
816.807	28040
816.948	28230
817.089	28242
817.23	28055
817.371	28204
817.512	28112
817.653	28032
817.793	28124
817.934	28097
818.075	28025
818.216	28086
818.356	28093
818.497	27987
818.638	27903
818.778	27903
818.919	27888
819.06	27991
819.2	28090
819.341	28036
819.481	28109
819.622	28352
819.762	28436
819.903	28550
820.043	28462
820.184	28192
820.324	28352
820.465	28390
820.605	28394
820.746	28226
820.886	28055
821.026	28280
821.167	28223
821.307	28242
821.447	28257
821.588	28055
821.728	27953
821.868	27831
822.008	27675
822.149	27614
822.289	27572
822.429	27397
822.569	27283
822.709	27207
822.849	27085
822.99	27249
823.13	27116
823.27	27032
823.41	26906
823.55	26937
823.69	27032
823.83	26979
823.97	26990
824.11	26746
824.25	26705
824.389	26750
824.529	26914
824.669	26731
824.809	26918
824.949	26838
825.089	26849
825.228	26887
825.368	26552
825.508	26640
825.648	26785
825.787	26792
825.927	26731
826.067	26564
826.206	26686
826.346	26587
826.485	26705
826.625	26678
826.765	26815
826.904	26716
827.044	26442
827.183	26434
827.323	26446
827.462	26374
827.601	26339
827.741	26332
827.88	26476
828.02	26263
828.159	26488
828.298	26343
828.437	26442
828.577	26305
828.716	26465
828.855	26408
828.994	26142
829.134	26069
829.273	26183
829.412	25989
829.551	26039
829.69	26092
829.829	26039
829.968	26130
830.107	26126
830.246	26103
830.385	25978
830.524	25936
830.663	25814
830.802	25814
830.941	25643
831.08	25677
831.219	25738
831.357	25894
831.496	25944
831.635	25567
831.774	25575
831.913	25639
832.051	25548
832.19	25529
832.329	25384
832.467	25285
832.606	25285
832.744	25259
832.883	25263
833.022	25301
833.16	25301
833.299	25369
833.437	25403
833.576	25506
833.714	25491
833.852	25388
833.991	25506
834.129	25476
834.267	25537
834.406	25438
834.544	25476
834.682	25320
834.821	25289
834.959	25571
835.097	25377
835.235	25544
835.373	25514
835.511	25354
835.65	25335
835.788	25289
835.926	25145
836.064	25103
836.202	25187
836.34	25183
836.478	25331
836.615	25228
836.753	25175
836.891	25274
837.029	25183
837.167	25141
837.305	25251
837.443	25160
837.58	25053
837.718	25050
837.856	25152
837.993	25019
838.131	25156
838.269	24863
838.406	24897
838.544	24848
838.681	24783
838.819	24639
838.956	24509
839.094	24498
839.231	24696
839.369	24623
839.506	24939
839.643	24738
839.781	24445
839.918	24437
840.055	24517
840.193	24536
840.33	24403
840.467	24475
840.604	24330
840.742	24684
840.879	24300
841.016	24235
841.153	24369
841.29	24464
841.427	24277
841.564	24445
841.701	24467
841.838	24311
841.975	24311
842.112	24327
842.249	24209
842.385	24224
842.522	24498
842.659	24266
842.796	24106
842.933	24091
843.069	24209
843.206	24213
843.343	24228
843.479	24228
843.616	24171
843.752	23942
843.889	24022
844.025	24083
844.162	23920
844.298	23984
844.435	23851
844.571	23920
844.708	23973
844.844	24087
844.98	24053
845.117	24045
845.253	24026
845.389	23832
845.525	23969
845.661	23798
845.798	23737
845.934	23714
846.07	23589
846.206	23668
846.342	23893
846.478	23718
846.614	23265
846.75	23387
846.886	23360
847.022	23543
847.158	23452
847.294	23353
847.429	23490
847.565	23368
847.701	23615
847.837	23143
847.972	23140
848.108	23269
848.244	23231
848.379	22877
848.515	22862
848.65	22923
848.786	22915
848.921	22987
849.057	23071
849.192	23098
849.328	22889
849.463	22908
849.598	23006
849.734	22957
849.869	22904
850.004	22748
850.14	22843
850.275	22713
850.41	22721
850.545	22824
850.68	22611
850.815	22656
850.95	22713
851.085	22927
851.22	22984
851.355	22774
851.49	22782
851.625	22626
851.76	22641
851.895	22603
852.03	22687
852.165	22672
852.299	22744
852.434	22946
852.569	22862
852.703	22729
852.838	22809
852.973	22889
853.107	22858
853.242	22767
853.376	22497
853.511	22500
853.645	22622
853.78	22710
853.914	22672
854.048	22637
854.183	22546
854.317	22527
854.451	22691
854.585	22611
854.72	22599
854.854	22618
854.988	22535
855.122	22584
855.256	22470
855.39	22550
855.524	22706
855.658	22683
855.792	22607
855.926	22637
856.06	22634
856.194	22607
856.327	22580
856.461	22421
856.595	22584
856.729	22569
856.862	22588
856.996	22740
857.13	22664
857.263	22763
857.397	22733
857.53	22440
857.664	22573
857.797	22721
857.931	22679
858.064	22584
858.197	22725
858.331	22565
858.464	22588
858.597	22508
858.731	22615
858.864	22497
858.997	22474
859.13	22603
859.263	22573
859.396	22634
859.529	22622
859.662	22599
859.795	22580
859.928	22508
860.061	22641
860.194	22805
860.327	22653
860.46	22611
860.592	22733
860.725	22805
860.858	22672
860.99	22580
861.123	22607
861.256	22394
861.388	22565
861.521	23239
861.653	22535
861.786	22432
861.918	22394
862.05	22451
862.183	22474
862.315	22500
862.447	22561
862.58	22596
862.712	22303
862.844	22226
862.976	22314
863.108	22268
863.24	22733
863.372	22329
863.504	22265
863.636	22318
863.768	22337
863.9	22253
864.032	22299
864.164	22303
864.296	22265
864.428	22371
864.559	22325
864.691	22382
864.823	22310
864.954	22215
865.086	22379
865.217	22086
865.349	22150
865.48	22257
865.612	22211
865.743	22265
865.875	22219
866.006	22032
866.137	22215
866.269	22192
866.4	22112
866.531	22158
866.662	22135
866.793	21972
866.924	22025
867.055	22116
867.186	22169
867.317	22051
867.448	21998
867.579	22070
867.71	21998
867.841	21941
867.972	22044
868.103	22051
868.233	22048
868.364	22124
868.495	22226
868.625	22226
868.756	22371
868.886	22367
869.017	22154
869.147	22546
869.278	22481
869.408	22337
869.539	22238
869.669	22508
869.799	22436
869.929	22402
870.06	22371
870.19	22725
870.32	22664
870.45	22588
870.58	22759
870.71	22740
870.84	22858
870.97	22580
871.1	22759
871.23	22984
871.36	22877
871.489	22824
871.619	22850
871.749	22904
871.879	22866
872.008	23052
872.138	22942
872.267	22949
872.397	22843
872.526	22862
872.656	22729
872.785	22748
872.915	22961
873.044	23098
873.173	22961
873.303	23003
873.432	23075
873.561	23086
873.69	22904
873.819	22904
873.948	23086
874.077	22862
874.206	22847
874.335	22900
874.464	23003
874.593	23181
874.722	23143
874.851	23212
874.979	23265
875.108	23265
875.237	22946
875.365	23010
875.494	23166
875.623	23178
875.751	23136
875.88	23166
876.008	23353
876.136	23273
876.265	23452
876.393	23627
876.521	23642
876.65	23619
876.778	23619
876.906	23425
877.034	23395
877.162	23604
877.29	23425
877.418	23421
877.546	23497
877.674	23444
877.802	23490
877.93	23406
878.058	23528
878.185	23395
878.313	23467
878.441	23478
878.568	23269
878.696	23376
878.824	23524
878.951	23543
879.079	23596
879.206	23741
879.333	23695
879.461	23615
879.588	23623
879.715	23695
879.842	23672
879.97	23497
880.097	23436
880.224	23379
880.351	23341
880.478	23280
880.605	23288
880.732	23170
880.859	23566
880.986	23318
881.112	23299
881.239	23105
881.366	23060
881.493	22995
881.619	22984
881.746	22919
881.872	22892
881.999	22942
882.125	22763
882.252	22847
882.378	22790
882.505	22965
882.631	22687
882.757	22500
882.883	22538
883.01	22493
883.136	22382
883.262	22417
883.388	22375
883.514	22409
883.64	22584
883.766	22531
883.892	22299
884.018	22348
884.143	22424
884.269	22535
884.395	22173
884.52	22101
884.646	22169
884.772	22188
884.897	22006
885.023	22177
885.148	22200
885.274	22291
885.399	22291
885.524	22158
885.65	22223
885.775	22067
885.9	22120
886.025	22257
886.15	22196
886.275	22169
886.4	22067
886.525	22265
886.65	22112
886.775	22070
886.9	22196
887.025	22451
887.149	22074
887.274	21865
887.399	21869
887.523	21979
887.648	21945
887.773	21895
887.897	22032
888.021	22010
888.146	21895
888.27	21941
888.395	22036
888.519	21934
888.643	21850
888.767	22021
888.891	21888
889.015	21789
889.139	21793
889.263	21633
889.387	21861
889.511	21953
889.635	21934
889.759	21686
889.883	21698
890.006	21720
890.13	21876
890.254	21686
890.377	21690
890.501	21481
890.624	21291
890.748	21530
890.871	21401
890.995	21298
891.118	21272
891.241	21260
891.364	21287
891.488	21428
891.611	21089
891.734	21294
891.857	21344
891.98	21241
892.103	21230
892.226	21268
892.349	21218
892.471	21074
892.594	21176
892.717	21203
892.839	21165
892.962	21176
893.085	21264
893.207	21142
893.33	21180
893.452	21127
893.575	21222
893.697	21241
893.819	21363
893.941	21367
894.064	21173
894.186	21066
894.308	20986
894.43	21306
894.552	21298
894.674	21272
894.796	21062
894.918	21123
895.04	21199
895.161	21085
895.283	21180
895.405	21085
895.526	21058
895.648	21077
895.769	21249
895.891	21146
896.012	21173
896.134	21184
896.255	21169
896.376	21112
896.498	21062
896.619	21233
896.74	21165
896.861	21146
896.982	21393
897.103	21557
897.224	21351
897.345	21241
897.466	21264
897.587	21462
897.708	21408
897.828	21416
897.949	21283
898.07	21157
898.19	21237
898.311	21443
898.431	21222
898.552	21192
898.672	21317
898.792	21386
898.913	21275
899.033	21192
899.153	21218
899.273	20994
899.393	21032
899.513	21055
899.633	21096
899.753	21058
899.873	21028
899.993	21036
900.113	21024
900.232	21074
900.352	20914
900.472	20857
900.591	20815
900.711	20819
900.83	20682
900.95	20937
901.069	20941
901.189	20716
901.308	20579
901.427	20294
901.546	20393
901.665	20355
901.784	20415
901.904	20358
902.023	20081
902.141	19936
902.26	19974
902.379	19944
902.498	19864
902.617	19849
902.735	19887
902.854	19917
902.973	19742
903.091	19529
903.21	19544
903.328	19529
903.446	19525
903.565	19430
903.683	19358
903.801	19187
903.919	19312
904.038	19278
904.156	19179
904.274	19221
904.392	19080
904.51	19004
904.627	19110
904.745	19171
904.863	19084
904.981	19004
905.098	18757
905.216	18734
905.334	18852
905.451	18825
905.569	18757
905.686	18795
905.803	18730
905.921	18555
906.038	18589
906.155	18692
906.272	18486
906.389	18509
906.506	18254
906.623	18365
906.74	18338
906.857	18182
906.974	18171
907.091	18536
907.208	18407
907.324	18273
907.441	18174
907.557	18110
907.674	17996
907.79	17939
907.907	18041
908.023	18133
908.139	17958
908.256	17980
908.372	17863
908.488	17904
908.604	17752
908.72	17733
908.836	17657
908.952	17737
909.068	17729
909.184	17828
909.3	17718
909.415	17767
909.531	17680
909.647	17440
909.762	17440
909.878	17429
909.993	17440
910.108	17353
910.224	17459
910.339	17299
910.454	17239
910.57	17216
910.685	17166
910.8	17448
910.915	17322
911.03	17170
911.145	16976
911.259	16976
911.374	17041
911.489	16892
911.604	16782
911.718	16653
911.833	16698
911.947	16599
912.062	16580
912.176	16744
912.291	16778
912.405	16801
912.519	16961
912.633	16904
912.748	16858
912.862	16736
912.976	16489
913.09	16459
913.204	16565
913.318	16470
913.431	16611
913.545	16694
913.659	16584
913.772	16512
913.886	16409
914	16352
914.113	16443
914.226	16409
914.34	16363
914.453	16242
914.566	16462
914.68	16234
914.793	16131
914.906	15941
915.019	15972
915.132	15846
915.245	15930
915.358	15911
915.47	15903
915.583	15865
915.696	15895
915.809	16093
915.921	16036
916.034	15861
916.146	15747
916.259	15789
916.371	15842
916.483	15918
916.595	15751
916.708	15793
916.82	15641
916.932	15694
917.044	15667
917.156	15724
917.268	15603
917.38	15545
917.491	15549
917.603	15572
917.715	15660
917.826	15648
917.938	15492
918.049	15332
918.161	15519
918.272	15584
918.384	15580
918.495	15473
918.606	15310
918.717	15218
918.828	15412
918.939	15317
919.05	15184
919.161	15275
919.272	15070
919.383	15135
919.494	15275
919.604	15526
919.715	15275
919.826	15100
919.936	15138
920.047	15310
920.157	15180
920.267	15462
920.378	15207
920.488	15176
920.598	15515
920.708	15450
920.818	15332
920.928	15310
921.038	15515
921.148	15504
921.258	15230
921.368	15112
921.477	14967
921.587	14910
921.697	14762
921.806	14960
921.916	14724
922.025	14602
922.134	14651
922.244	14552
922.353	14556
922.462	14545
922.571	14400
922.68	14404
922.789	14161
922.898	14256
923.007	14244
923.116	14237
923.224	14180
923.333	14153
923.442	14027
923.55	13925
923.659	14096
923.767	14001
923.876	13917
923.984	14126
924.092	13936
924.201	13898
924.309	13925
924.417	13902
924.525	13761
924.633	13803
924.741	14773
924.849	13624
924.956	13696
925.064	13582
925.172	13586
925.279	13571
925.387	13624
925.494	13540
925.602	13715
925.709	13662
925.816	13460
925.924	13529
926.031	13647
926.138	13502
926.245	13525
926.352	13419
926.459	13590
926.566	13643
926.673	13449
926.779	13278
926.886	13369
926.993	13266
927.099	13065
927.206	13137
927.312	13034
927.419	13171
927.525	13206
927.631	13183
927.737	12973
927.843	13004
927.95	12913
928.056	12905
928.162	12890
928.267	12981
928.373	13636
928.479	13042
928.585	12821
928.69	12856
928.796	12768
928.901	12875
929.007	12738
929.112	12859
929.218	12810
929.323	12688
929.428	12646
929.533	12894
929.638	12578
929.743	12620
929.848	12673
929.953	12532
930.058	12486
930.163	12285
930.267	12323
930.372	12456
930.477	12243
930.581	12506
930.685	12254
930.79	12235
930.894	12209
930.998	12213
931.103	12315
931.207	12091
931.311	11790
931.415	11847
931.519	11672
931.623	11592
