Data from test_V78500241_2792.txt Node
Date: Fri Mar 25 16:01:08 CST 2022
User: usil
Spectrometer: V785-0024
Trigger mode: 0
Integration Time (sec): 4.000000E-1
Scans to average: 1
Nonlinearity correction enabled: false
Boxcar width: 0
Storing dark spectrum: false
XAxis mode: Wavelengths
Number of Pixels in Spectrum: 1024
>>>>>Begin Spectral Data<<<<<
801.071	29018
801.214	28953
801.356	28968
801.499	28858
801.641	28691
801.783	28858
801.926	28721
802.068	28557
802.211	28565
802.353	28588
802.496	28512
802.638	28371
802.78	28394
802.923	28306
803.065	28451
803.208	28329
803.35	28398
803.492	28527
803.635	28637
803.777	28516
803.919	28672
804.061	29083
804.204	28778
804.346	28580
804.488	28531
804.63	28599
804.773	28656
804.915	28653
805.057	28702
805.199	28649
805.341	28881
805.483	28710
805.626	28873
805.768	28805
805.91	28733
806.052	28961
806.194	28710
806.336	29060
806.478	28911
806.62	28873
806.762	28949
806.904	29025
807.046	29223
807.188	29395
807.33	29360
807.472	29512
807.614	29273
807.756	29208
807.898	29090
808.04	29014
808.182	29071
808.324	29204
808.465	29242
808.607	29463
808.749	29615
808.891	29718
809.033	29638
809.174	29615
809.316	29535
809.458	29505
809.6	29383
809.741	29558
809.883	29927
810.025	29939
810.166	29935
810.308	29950
810.45	29813
810.591	29878
810.733	29619
810.875	29649
811.016	29444
811.158	29535
811.299	29741
811.441	29630
811.582	29756
811.724	29528
811.865	29558
812.007	29433
812.148	29528
812.29	29570
812.431	29878
812.573	29885
812.714	30034
812.855	30091
812.997	30121
813.138	30391
813.279	30220
813.421	30125
813.562	30114
813.703	29859
813.845	29802
813.986	29490
814.127	29322
814.268	29265
814.41	29318
814.551	29254
814.692	29311
814.833	29140
814.974	29299
815.115	29326
815.256	29181
815.397	29121
815.539	29277
815.68	29151
815.821	29006
815.962	29250
816.103	29105
816.244	28961
816.385	28938
816.526	28881
816.666	28721
816.807	28626
816.948	28687
817.089	28740
817.23	28656
817.371	28584
817.512	28565
817.653	28634
817.793	28656
817.934	28615
818.075	28733
818.216	28535
818.356	28592
818.497	28592
818.638	28322
818.778	28577
818.919	28424
819.06	28440
819.2	28504
819.341	28557
819.481	28691
819.622	28759
819.762	29071
819.903	28949
820.043	28675
820.184	28793
820.324	28835
820.465	28877
820.605	28911
820.746	28744
820.886	28577
821.026	28706
821.167	28744
821.307	28850
821.447	28668
821.588	28622
821.728	28660
821.868	28390
822.008	28097
822.149	28192
822.289	28124
822.429	27865
822.569	27865
822.709	27846
822.849	27610
822.99	27660
823.13	27534
823.27	27637
823.41	27458
823.55	27336
823.69	27450
823.83	27439
823.97	27431
824.11	27222
824.25	27157
824.389	27302
824.529	27466
824.669	27344
824.809	27477
824.949	27462
825.089	27291
825.228	27367
825.368	27195
825.508	27138
825.648	27222
825.787	27169
825.927	27188
826.067	27165
826.206	27180
826.346	27249
826.485	27332
826.625	27275
826.765	27389
826.904	27211
827.044	27001
827.183	26895
827.323	26861
827.462	27043
827.601	27043
827.741	26845
827.88	26849
828.02	26765
828.159	26887
828.298	26971
828.437	26971
828.577	26929
828.716	27135
828.855	26796
828.994	26590
829.134	26640
829.273	26590
829.412	26526
829.551	26590
829.69	26571
829.829	26659
829.968	26617
830.107	26594
830.246	26648
830.385	26609
830.524	26446
830.663	26408
830.802	26263
830.941	26286
831.08	26142
831.219	26332
831.357	26275
831.496	26351
831.635	26187
831.774	26122
831.913	26145
832.051	26001
832.19	25989
832.329	25993
832.467	26039
832.606	25761
832.744	25879
832.883	25856
833.022	25932
833.16	25921
833.299	25750
833.437	25902
833.576	25951
833.714	25909
833.852	25925
833.991	25974
834.129	25917
834.267	26050
834.406	25951
834.544	25944
834.682	25959
834.821	25772
834.959	26111
835.097	25772
835.235	26096
835.373	25913
835.511	25959
835.65	25814
835.788	25715
835.926	25693
836.064	25582
836.202	25567
836.34	25704
836.478	25814
836.615	25757
836.753	25712
836.891	25746
837.029	25616
837.167	25628
837.305	25719
837.443	25582
837.58	25723
837.718	25590
837.856	25658
837.993	25445
838.131	25540
838.269	25381
838.406	25491
838.544	25324
838.681	25122
838.819	25202
838.956	25126
839.094	25072
839.231	25152
839.369	25168
839.506	25259
839.643	25198
839.781	24989
839.918	24985
840.055	25015
840.193	25015
840.33	24943
840.467	24943
840.604	24973
840.742	25141
840.879	24757
841.016	24924
841.153	24821
841.29	24996
841.427	24897
841.564	24916
841.701	24985
841.838	24875
841.975	24719
842.112	24814
842.249	24749
842.385	24631
842.522	24882
842.659	24673
842.796	24711
842.933	24711
843.069	24635
843.206	24646
843.343	24806
843.479	24715
843.616	24745
843.752	24502
843.889	24448
844.025	24635
844.162	24460
844.298	24486
844.435	24410
844.571	24403
844.708	24521
844.844	24604
844.98	24513
845.117	24597
845.253	24254
845.389	24407
845.525	24327
845.661	24285
845.798	24228
845.934	24300
846.07	24136
846.206	24235
846.342	24399
846.478	24224
846.614	24022
846.75	23870
846.886	23889
847.022	23996
847.158	23904
847.294	23901
847.429	24015
847.565	23897
847.701	24064
847.837	23726
847.972	23551
848.108	23722
848.244	23627
848.379	23497
848.515	23589
848.65	23486
848.786	23539
848.921	23459
849.057	23649
849.192	23509
849.328	23486
849.463	23539
849.598	23299
849.734	23410
849.869	23109
850.004	23254
850.14	23315
850.275	23273
850.41	23181
850.545	23307
850.68	23235
850.815	23227
850.95	23178
851.085	23440
851.22	23406
851.355	23277
851.49	23307
851.625	23227
851.76	23170
851.895	23155
852.03	23227
852.165	23246
852.299	23296
852.434	23223
852.569	23356
852.703	23242
852.838	23337
852.973	23395
853.107	23299
853.242	23277
853.376	23010
853.511	23010
853.645	22980
853.78	23132
853.914	23113
854.048	23025
854.183	23155
854.317	23033
854.451	23303
854.585	23010
854.72	23162
854.854	23117
854.988	23037
855.122	23109
855.256	22923
855.39	23185
855.524	23132
855.658	23170
855.792	23143
855.926	22991
856.06	23105
856.194	23064
856.327	23067
856.461	23136
856.595	23048
856.729	23090
856.862	23235
856.996	23121
857.13	23098
857.263	23155
857.397	23185
857.53	22991
857.664	23079
857.797	23193
857.931	23159
858.064	23193
858.197	23246
858.331	23170
858.464	23025
858.597	22885
858.731	23022
858.864	23010
858.997	23060
859.13	23041
859.263	23086
859.396	23124
859.529	23124
859.662	23064
859.795	22991
859.928	23109
860.061	23292
860.194	23345
860.327	23128
860.46	23090
860.592	23387
860.725	23273
860.858	23353
860.99	23189
861.123	22980
861.256	23086
861.388	23204
861.521	23756
861.653	23056
861.786	22835
861.918	22946
862.05	23083
862.183	22991
862.315	23178
862.447	23098
862.58	22942
862.712	22812
862.844	22881
862.976	22908
863.108	22793
863.24	23231
863.372	22736
863.504	22786
863.636	22793
863.768	22801
863.9	22847
864.032	22793
864.164	22691
864.296	22824
864.428	22976
864.559	22911
864.691	22805
864.823	22911
864.954	22790
865.086	22961
865.217	22820
865.349	22649
865.48	22702
865.612	22675
865.743	22809
865.875	22656
866.006	22649
866.137	22656
866.269	22725
866.4	22713
866.531	22744
866.662	22550
866.793	22497
866.924	22675
867.055	22634
867.186	22500
867.317	22615
867.448	22592
867.579	22584
867.71	22512
867.841	22569
867.972	22565
868.103	22474
868.233	22573
868.364	22675
868.495	22618
868.625	22862
868.756	22839
868.886	22755
869.017	22892
869.147	22976
869.278	23006
869.408	22797
869.539	22854
869.669	22972
869.799	22949
869.929	22843
870.06	22961
870.19	23124
870.32	23220
870.45	23181
870.58	23181
870.71	23307
870.84	23330
870.97	23231
871.1	23109
871.23	23402
871.36	23414
871.489	23330
871.619	23452
871.749	23440
871.879	23391
872.008	23474
872.138	23448
872.267	23474
872.397	23421
872.526	23231
872.656	23330
872.785	23299
872.915	23547
873.044	23497
873.173	23509
873.303	23501
873.432	23638
873.561	23577
873.69	23417
873.819	23410
873.948	23356
874.077	23429
874.206	23353
874.335	23539
874.464	23642
874.593	23726
874.722	23642
874.851	23585
874.979	23695
875.108	23745
875.237	23684
875.365	23630
875.494	23707
875.623	23672
875.751	23729
875.88	23718
876.008	23779
876.136	23840
876.265	23977
876.393	24129
876.521	24057
876.65	24216
876.778	24148
876.906	23958
877.034	23923
877.162	24038
877.29	23939
877.418	23958
877.546	24064
877.674	24057
877.802	23893
877.93	23999
878.058	23977
878.185	23821
878.313	23904
878.441	24026
878.568	23901
878.696	23920
878.824	24045
878.951	24087
879.079	24125
879.206	24342
879.333	24140
879.461	23988
879.588	24045
879.715	24239
879.842	24281
879.97	24098
880.097	23885
880.224	23779
880.351	23794
880.478	23832
880.605	23798
880.732	23882
880.859	24015
880.986	23870
881.112	23889
881.239	23710
881.366	23638
881.493	23440
881.619	23398
881.746	23463
881.872	23364
881.999	23372
882.125	23337
882.252	23368
882.378	23307
882.505	23471
882.631	23159
882.757	23052
882.883	23140
883.01	22934
883.136	22930
883.262	22877
883.388	22816
883.514	23003
883.64	23025
883.766	22869
883.892	22725
884.018	22790
884.143	23083
884.269	23086
884.395	22774
884.52	22622
884.646	22812
884.772	22554
884.897	22634
885.023	22668
885.148	22733
885.274	22755
885.399	22710
885.524	22596
885.65	22649
885.775	22611
885.9	22626
886.025	22763
886.15	22713
886.275	22653
886.4	22607
886.525	22588
886.65	22550
886.775	22542
886.9	22786
887.025	22778
887.149	22615
887.274	22508
887.399	22421
887.523	22325
887.648	22447
887.773	22371
887.897	22523
888.021	22382
888.146	22367
888.27	22451
888.395	22485
888.519	22462
888.643	22402
888.767	22436
888.891	22303
889.015	22272
889.139	22333
889.263	22135
889.387	22325
889.511	22485
889.635	22333
889.759	22166
889.883	22261
890.006	22268
890.13	22329
890.254	22063
890.377	21991
890.501	21884
890.624	21873
890.748	21953
890.871	21770
890.995	21671
891.118	21679
891.241	21762
891.364	21793
891.488	21838
891.611	21781
891.734	21797
891.857	21774
891.98	21789
892.103	21869
892.226	21667
892.349	21663
892.471	21523
892.594	21667
892.717	21561
892.839	21610
892.962	21675
893.085	21679
893.207	21572
893.33	21583
893.452	21553
893.575	21542
893.697	21637
893.819	21682
893.941	21804
894.064	21736
894.186	21515
894.308	21549
894.43	21785
894.552	21789
894.674	21622
894.796	21526
894.918	21682
895.04	21549
895.161	21606
895.283	21770
895.405	21583
895.526	21595
895.648	21587
895.769	21542
895.891	21648
896.012	21587
896.134	21622
896.255	21542
896.376	21644
896.498	21492
896.619	21667
896.74	21606
896.861	21625
896.982	21854
897.103	22021
897.224	21785
897.345	21838
897.466	21736
897.587	21747
897.708	21960
897.828	21808
897.949	21671
898.07	21580
898.19	21778
898.311	21759
898.431	21625
898.552	21819
898.672	21823
898.792	21854
898.913	21819
899.033	21595
899.153	21496
899.273	21435
899.393	21641
899.513	21466
899.633	21420
899.753	21538
899.873	21397
899.993	21580
900.113	21401
900.232	21416
900.352	21416
900.472	21268
900.591	21260
900.711	21416
900.83	21245
900.95	21401
901.069	21397
901.189	21112
901.308	20891
901.427	20853
901.546	20876
901.665	20834
901.784	20731
901.904	20727
902.023	20545
902.141	20431
902.26	20328
902.379	20465
902.498	20393
902.617	20256
902.735	20431
902.854	20339
902.973	20218
903.091	19928
903.21	19951
903.328	19944
903.446	19917
903.565	19662
903.683	19807
903.801	19624
903.919	19677
904.038	19723
904.156	19430
904.274	19567
904.392	19518
904.51	19571
904.627	19445
904.745	19571
904.863	19605
904.981	19308
905.098	19141
905.216	19206
905.334	19206
905.451	19217
905.569	19194
905.686	19160
905.803	19148
905.921	18996
906.038	19042
906.155	18958
906.272	18867
906.389	18894
906.506	18734
906.623	18703
906.74	18776
906.857	18654
906.974	18631
907.091	18825
907.208	18635
907.324	18673
907.441	18570
907.557	18464
907.674	18353
907.79	18315
907.907	18369
908.023	18441
908.139	18486
908.256	18292
908.372	18251
908.488	18292
908.604	18178
908.72	18114
908.836	18110
908.952	18148
909.068	18148
909.184	18213
909.3	18144
909.415	18083
909.531	18159
909.647	17893
909.762	17813
909.878	17794
909.993	17695
910.108	17798
910.224	17760
910.339	17672
910.454	17634
910.57	17524
910.685	17532
910.8	17821
910.915	17760
911.03	17573
911.145	17436
911.259	17311
911.374	17330
911.489	17337
911.604	17372
911.718	17121
911.833	17048
911.947	17140
912.062	17079
912.176	17014
912.291	17060
912.405	17045
912.519	17216
912.633	17372
912.748	17193
912.862	17090
912.976	16873
913.09	16835
913.204	16858
913.318	16854
913.431	17064
913.545	17029
913.659	17064
913.772	16911
913.886	16812
914	16626
914.113	16740
914.226	16790
914.34	16630
914.453	16577
914.566	16733
914.68	16527
914.793	16592
914.906	16371
915.019	16360
915.132	16261
915.245	16306
915.358	16238
915.47	16219
915.583	16272
915.696	16295
915.809	16360
915.921	16299
916.034	16306
916.146	16196
916.259	16086
916.371	16303
916.483	16090
916.595	16082
916.708	16173
916.82	16169
916.932	16055
917.044	16097
917.156	16082
917.268	15899
917.38	15956
917.491	15903
917.603	15956
917.715	15975
917.826	15899
917.938	15819
918.049	15797
918.161	15736
918.272	15895
918.384	15888
918.495	15869
918.606	15766
918.717	15580
918.828	15686
918.939	15557
919.05	15553
919.161	15603
919.272	15450
919.383	15374
919.494	15652
919.604	15781
919.715	15610
919.826	15492
919.936	15564
920.047	15618
920.157	15561
920.267	15743
920.378	15504
920.488	15545
920.598	15644
920.708	15861
920.818	15603
920.928	15671
921.038	15838
921.148	15888
921.258	15500
921.368	15355
921.477	15355
921.587	15272
921.697	15112
921.806	15211
921.916	15077
922.025	15028
922.134	14883
922.244	14823
922.353	14921
922.462	14746
922.571	14629
922.68	14507
922.789	14537
922.898	14518
923.007	14434
923.116	14518
923.224	14461
923.333	14473
923.442	14332
923.55	14377
923.659	14370
923.767	14377
923.876	14240
923.984	14317
924.092	14267
924.201	14339
924.309	14225
924.417	14225
924.525	14130
924.633	14240
924.741	15032
924.849	13970
924.956	14027
925.064	13959
925.172	13788
925.279	13772
925.387	13841
925.494	13788
925.602	13909
925.709	13830
925.816	13818
925.924	13830
926.031	13921
926.138	13776
926.245	13845
926.352	13689
926.459	13890
926.566	13879
926.673	13826
926.779	13514
926.886	13613
926.993	13590
927.099	13499
927.206	13445
927.312	13388
927.419	13464
927.525	13487
927.631	13521
927.737	13422
927.843	13206
927.95	13168
928.056	13331
928.162	13278
928.267	13312
928.373	13909
928.479	13407
928.585	13141
928.69	13160
928.796	13171
928.901	13168
929.007	12993
929.112	13129
929.218	13050
929.323	13012
929.428	12977
929.533	13095
929.638	12821
929.743	12890
929.848	12928
929.953	12863
930.058	12829
930.163	12677
930.267	12669
930.372	12802
930.477	12612
930.581	12802
930.685	12719
930.79	12604
930.894	12498
930.998	12494
931.103	12642
931.207	12232
931.311	12079
931.415	12102
931.519	11931
931.623	11927
