Data from test_V78500241_2009.txt Node
Date: Fri Mar 25 15:55:43 CST 2022
User: usil
Spectrometer: V785-0024
Trigger mode: 0
Integration Time (sec): 4.000000E-1
Scans to average: 1
Nonlinearity correction enabled: false
Boxcar width: 0
Storing dark spectrum: false
XAxis mode: Wavelengths
Number of Pixels in Spectrum: 1024
>>>>>Begin Spectral Data<<<<<
801.071	28459
801.214	28440
801.356	28173
801.499	28192
801.641	28002
801.783	28025
801.926	27972
802.068	28040
802.211	27926
802.353	27884
802.496	27808
802.638	27648
802.78	27637
802.923	27515
803.065	27542
803.208	27660
803.35	27637
803.492	27895
803.635	27705
803.777	27781
803.919	27850
804.061	28223
804.204	28048
804.346	27793
804.488	27914
804.63	27732
804.773	27846
804.915	27739
805.057	28101
805.199	27884
805.341	27918
805.483	27930
805.626	28074
805.768	27922
805.91	28093
806.052	28055
806.194	27850
806.336	28181
806.478	27941
806.62	28063
806.762	28131
806.904	28295
807.046	28565
807.188	28550
807.33	28421
807.472	28504
807.614	28512
807.756	28417
807.898	28280
808.04	28287
808.182	28299
808.324	28325
808.465	28318
808.607	28603
808.749	28729
808.891	28702
809.033	28911
809.174	28771
809.316	28828
809.458	28786
809.6	28584
809.741	28888
809.883	28850
810.025	29044
810.166	28885
810.308	29140
810.45	28896
810.591	28927
810.733	28790
810.875	28592
811.016	28603
811.158	28546
811.299	28752
811.441	28713
811.582	28892
811.724	28752
811.865	28561
812.007	28694
812.148	28733
812.29	28755
812.431	28729
812.573	29094
812.714	29132
812.855	29326
812.997	29398
813.138	29391
813.279	29303
813.421	29337
813.562	29246
813.703	28968
813.845	28942
813.986	28641
814.127	28565
814.268	28382
814.41	28341
814.551	28314
814.692	28478
814.833	28367
814.974	28356
815.115	28405
815.256	28147
815.397	28284
815.539	28318
815.68	28067
815.821	28044
815.962	28166
816.103	28112
816.244	28055
816.385	27873
816.526	27975
816.666	27709
816.807	27564
816.948	27838
817.089	27819
817.23	27633
817.371	27705
817.512	27633
817.653	27679
817.793	27686
817.934	27793
818.075	27656
818.216	27644
818.356	27538
818.497	27473
818.638	27256
818.778	27405
818.919	27523
819.06	27389
819.2	27580
819.341	27739
819.481	27736
819.622	27785
819.762	28029
819.903	27960
820.043	27876
820.184	27816
820.324	27846
820.465	27861
820.605	27698
820.746	27800
820.886	27694
821.026	27778
821.167	27800
821.307	27884
821.447	27884
821.588	27576
821.728	27572
821.868	27329
822.008	27241
822.149	27283
822.289	27070
822.429	26948
822.569	26792
822.709	26845
822.849	26773
822.99	26564
823.13	26807
823.27	26629
823.41	26511
823.55	26358
823.69	26499
823.83	26415
823.97	26514
824.11	26240
824.25	26374
824.389	26233
824.529	26332
824.669	26298
824.809	26473
824.949	26423
825.089	26473
825.228	26377
825.368	26267
825.508	26221
825.648	26317
825.787	26282
825.927	26237
826.067	26157
826.206	26142
826.346	26252
826.485	26164
826.625	26145
826.765	26313
826.904	26240
827.044	25993
827.183	25959
827.323	25841
827.462	25955
827.601	25769
827.741	25951
827.88	25928
828.02	25795
828.159	25947
828.298	25875
828.437	26065
828.577	25704
828.716	25871
828.855	25811
828.994	25544
829.134	25601
829.273	25696
829.412	25445
829.551	25552
829.69	25681
829.829	25685
829.968	25567
830.107	25578
830.246	25556
830.385	25438
830.524	25495
830.663	25365
830.802	25331
830.941	25095
831.08	25232
831.219	25206
831.357	25247
831.496	25403
831.635	25133
831.774	25110
831.913	25000
832.051	25034
832.19	24894
832.329	24833
832.467	24837
832.606	24791
832.744	24692
832.883	24829
833.022	24814
833.16	24973
833.299	24768
833.437	24966
833.576	25156
833.714	24894
833.852	25000
833.991	24981
834.129	24947
834.267	24859
834.406	24856
834.544	24966
834.682	24913
834.821	24954
834.959	25084
835.097	24894
835.235	24909
835.373	24825
835.511	24776
835.65	24764
835.788	24787
835.926	24719
836.064	24627
836.202	24604
836.34	24642
836.478	24852
836.615	24795
836.753	24802
836.891	24840
837.029	24859
837.167	24597
837.305	24722
837.443	24711
837.58	24528
837.718	24776
837.856	24547
837.993	24547
838.131	24566
838.269	24365
838.406	24502
838.544	24399
838.681	24152
838.819	24140
838.956	24022
839.094	23950
839.231	24079
839.369	24182
839.506	24414
839.643	24273
839.781	23999
839.918	23969
840.055	24060
840.193	23984
840.33	23999
840.467	23969
840.604	24011
840.742	24235
840.879	23889
841.016	23893
841.153	23756
841.29	23942
841.427	23885
841.564	23843
841.701	23893
841.838	23916
841.975	23931
842.112	23935
842.249	23828
842.385	23783
842.522	23882
842.659	23802
842.796	23649
842.933	23767
843.069	23703
843.206	23665
843.343	23691
843.479	23745
843.616	23642
843.752	23505
843.889	23543
844.025	23608
844.162	23356
844.298	23668
844.435	23512
844.571	23414
844.708	23524
844.844	23608
844.98	23661
845.117	23630
845.253	23436
845.389	23341
845.525	23292
845.661	23307
845.798	23318
845.934	23292
846.07	23288
846.206	23185
846.342	23261
846.478	23162
846.614	23037
846.75	22831
846.886	22809
847.022	22965
847.158	22908
847.294	22938
847.429	22946
847.565	22854
847.701	23159
847.837	22607
847.972	22618
848.108	22694
848.244	22675
848.379	22542
848.515	22561
848.65	22478
848.786	22504
848.921	22580
849.057	22641
849.192	22554
849.328	22527
849.463	22451
849.598	22489
849.734	22436
849.869	22375
850.004	22272
850.14	22310
850.275	22356
850.41	22067
850.545	22261
850.68	22417
850.815	22291
850.95	22447
851.085	22474
851.22	22375
851.355	22310
851.49	22295
851.625	22280
851.76	22230
851.895	22196
852.03	22196
852.165	22268
852.299	22306
852.434	22333
852.569	22276
852.703	22200
852.838	22295
852.973	22341
853.107	22310
853.242	22150
853.376	22215
853.511	21998
853.645	22017
853.78	22207
853.914	22074
854.048	22124
854.183	22070
854.317	22021
854.451	22337
854.585	22082
854.72	22223
854.854	22147
854.988	22097
855.122	22166
855.256	21903
855.39	22097
855.524	22143
855.658	22097
855.792	22109
855.926	22086
856.06	22090
856.194	22188
856.327	22112
856.461	22044
856.595	22074
856.729	22067
856.862	22188
856.996	22109
857.13	22158
857.263	22360
857.397	22272
857.53	22059
857.664	22192
857.797	22135
857.931	22177
858.064	22116
858.197	22147
858.331	22105
858.464	22002
858.597	21835
858.731	22086
858.864	22002
858.997	21926
859.13	22040
859.263	22090
859.396	22128
859.529	22021
859.662	22109
859.795	21991
859.928	22196
860.061	22154
860.194	22291
860.327	22150
860.46	22177
860.592	22325
860.725	22287
860.858	22223
860.99	22181
861.123	22082
861.256	22090
861.388	22192
861.521	22904
861.653	22040
861.786	21911
861.918	21831
862.05	22025
862.183	22002
862.315	22154
862.447	22192
862.58	22101
862.712	21895
862.844	21789
862.976	21838
863.108	21778
863.24	22299
863.372	21816
863.504	21838
863.636	21774
863.768	21850
863.9	21785
864.032	21797
864.164	21785
864.296	21717
864.428	21983
864.559	21949
864.691	21899
864.823	21812
864.954	21781
865.086	21709
865.217	21751
865.349	21641
865.48	21778
865.612	21804
865.743	21857
865.875	21857
866.006	21679
866.137	21713
866.269	21633
866.4	21682
866.531	21679
866.662	21728
866.793	21625
866.924	21572
867.055	21720
867.186	21564
867.317	21545
867.448	21591
867.579	21743
867.71	21538
867.841	21549
867.972	21606
868.103	21736
868.233	21717
868.364	21690
868.495	21713
868.625	21842
868.756	21907
868.886	21759
869.017	21747
869.147	21953
869.278	21983
869.408	21861
869.539	21804
869.669	22082
869.799	21838
869.929	21998
870.06	21895
870.19	22166
870.32	22010
870.45	22246
870.58	22211
870.71	22318
870.84	22409
870.97	22379
871.1	22299
871.23	22497
871.36	22443
871.489	22519
871.619	22542
871.749	22352
871.879	22580
872.008	22523
872.138	22508
872.267	22565
872.397	22451
872.526	22177
872.656	22303
872.785	22314
872.915	22462
873.044	22584
873.173	22531
873.303	22622
873.432	22577
873.561	22645
873.69	22474
873.819	22504
873.948	22546
874.077	22493
874.206	22546
874.335	22474
874.464	22713
874.593	22717
874.722	22607
874.851	22675
874.979	22702
875.108	22664
875.237	22691
875.365	22531
875.494	22634
875.623	22881
875.751	22622
875.88	22767
876.008	22824
876.136	22904
876.265	23075
876.393	23067
876.521	23189
876.65	23143
876.778	23033
876.906	23056
877.034	23056
877.162	23079
877.29	22949
877.418	23022
877.546	23075
877.674	23003
877.802	22995
877.93	23018
878.058	23022
878.185	22949
878.313	22915
878.441	23071
878.568	22862
878.696	22957
878.824	23094
878.951	23128
879.079	23216
879.206	23254
879.333	23071
879.461	23128
879.588	23288
879.715	23121
879.842	23250
879.97	23239
880.097	22850
880.224	22801
880.351	22881
880.478	22824
880.605	22900
880.732	22847
880.859	23143
880.986	22889
881.112	22961
881.239	22733
881.366	22546
881.493	22607
881.619	22451
881.746	22512
881.872	22519
881.999	22352
882.125	22424
882.252	22432
882.378	22417
882.505	22516
882.631	22337
882.757	22059
882.883	22173
883.01	22181
883.136	22082
883.262	22025
883.388	21979
883.514	22223
883.64	22032
883.766	22032
883.892	21918
884.018	21869
884.143	22120
884.269	22162
884.395	21747
884.52	21610
884.646	21739
884.772	21599
884.897	21648
885.023	21739
885.148	21724
885.274	21850
885.399	21865
885.524	21747
885.65	21641
885.775	21899
885.9	21793
886.025	21873
886.15	21892
886.275	21819
886.4	21641
886.525	21720
886.65	21686
886.775	21538
886.9	21884
887.025	21937
887.149	21625
887.274	21576
887.399	21469
887.523	21504
887.648	21606
887.773	21428
887.897	21637
888.021	21523
888.146	21424
888.27	21568
888.395	21572
888.519	21663
888.643	21580
888.767	21610
888.891	21332
889.015	21325
889.139	21447
889.263	21359
889.387	21382
889.511	21534
889.635	21393
889.759	21348
889.883	21142
890.006	21306
890.13	21428
890.254	21245
890.377	21260
890.501	20998
890.624	21055
890.748	21154
890.871	20876
890.995	20765
891.118	20815
891.241	20815
891.364	20921
891.488	21047
891.611	20910
891.734	20876
891.857	21017
891.98	20678
892.103	20906
892.226	20876
892.349	20819
892.471	20613
892.594	20830
892.717	20823
892.839	20674
892.962	20754
893.085	20762
893.207	20823
893.33	20693
893.452	20632
893.575	20796
893.697	20781
893.819	20914
893.941	21028
894.064	20861
894.186	20564
894.308	20644
894.43	20743
894.552	20994
894.674	20975
894.796	20602
894.918	20621
895.04	20629
895.161	20849
895.283	20815
895.405	20705
895.526	20651
895.648	20705
895.769	20754
895.891	20918
896.012	20906
896.134	20804
896.255	20739
896.376	20743
896.498	20781
896.619	20754
896.74	20785
896.861	20880
896.982	21024
897.103	21157
897.224	21127
897.345	20826
897.466	20899
897.587	21005
897.708	21077
897.828	20960
897.949	20785
898.07	20815
898.19	20872
898.311	21017
898.431	20830
898.552	20849
898.672	20971
898.792	20952
898.913	20986
899.033	20834
899.153	20834
899.273	20682
899.393	20785
899.513	20686
899.633	20693
899.753	20754
899.873	20651
899.993	20777
900.113	20526
900.232	20663
900.352	20571
900.472	20480
900.591	20446
900.711	20408
900.83	20404
900.95	20530
901.069	20495
901.189	20404
901.308	20084
901.427	19978
901.546	20164
901.665	20084
901.784	20039
901.904	19967
902.023	19814
902.141	19586
902.26	19559
902.379	19620
902.498	19540
902.617	19544
902.735	19510
902.854	19506
902.973	19426
903.091	19301
903.21	19190
903.328	19107
903.446	19133
903.565	19053
903.683	19000
903.801	18905
903.919	18935
904.038	18954
904.156	18852
904.274	18848
904.392	18711
904.51	18730
904.627	18726
904.745	18795
904.863	18768
904.981	18589
905.098	18456
905.216	18456
905.334	18464
905.451	18502
905.569	18471
905.686	18566
905.803	18422
905.921	18266
906.038	18448
906.155	18152
906.272	18190
906.389	18038
906.506	18083
906.623	17958
906.74	17973
906.857	17802
906.974	17889
907.091	17977
907.208	18057
907.324	17984
907.441	17885
907.557	17699
907.674	17615
907.79	17570
907.907	17668
908.023	17676
908.139	17623
908.256	17581
908.372	17581
908.488	17646
908.604	17322
908.72	17280
908.836	17383
908.952	17440
909.068	17364
909.184	17547
909.3	17410
909.415	17467
909.531	17356
909.647	17159
909.762	17121
909.878	17048
909.993	17117
910.108	17010
910.224	17018
910.339	17079
910.454	16930
910.57	16816
910.685	16828
910.8	17075
910.915	17109
911.03	16896
911.145	16717
911.259	16698
911.374	16687
911.489	16596
911.604	16470
911.718	16459
911.833	16466
911.947	16386
912.062	16246
912.176	16432
912.291	16390
912.405	16356
912.519	16626
912.633	16519
912.748	16470
912.862	16356
912.976	16226
913.09	16048
913.204	16150
913.318	16147
913.431	16363
913.545	16299
913.659	16272
913.772	16200
913.886	16059
914	16006
914.113	16078
914.226	16097
914.34	15945
914.453	15854
914.566	16051
914.68	15884
914.793	15915
914.906	15690
915.019	15660
915.132	15561
915.245	15557
915.358	15561
915.47	15599
915.583	15545
915.696	15644
915.809	15743
915.921	15732
916.034	15496
916.146	15523
916.259	15515
916.371	15553
916.483	15477
916.595	15348
916.708	15408
916.82	15477
916.932	15462
917.044	15351
917.156	15336
917.268	15306
917.38	15218
917.491	15226
917.603	15382
917.715	15344
917.826	15302
917.938	15116
918.049	15165
918.161	15184
918.272	15252
918.384	15317
918.495	15173
918.606	15039
918.717	14918
918.828	14998
918.939	15104
919.05	14857
919.161	14956
919.272	14743
919.383	14853
919.494	15051
919.604	15146
919.715	14921
919.826	14861
919.936	14956
920.047	14975
920.157	14971
920.267	15070
920.378	14933
920.488	14982
920.598	15093
920.708	15298
920.818	15169
920.928	15089
921.038	15279
921.148	15192
921.258	14853
921.368	14842
921.477	14678
921.587	14693
921.697	14438
921.806	14686
921.916	14488
922.025	14320
922.134	14313
922.244	14202
922.353	14332
922.462	14229
922.571	14218
922.68	14020
922.789	13982
922.898	13932
923.007	13879
923.116	13951
923.224	13875
923.333	13871
923.442	13871
923.55	13727
923.659	13852
923.767	13883
923.876	13776
923.984	13807
924.092	13605
924.201	13753
924.309	13670
924.417	13807
924.525	13586
924.633	13518
924.741	14294
924.849	13362
924.956	13563
925.064	13392
925.172	13285
925.279	13316
925.387	13407
925.494	13327
925.602	13480
925.709	13335
925.816	13255
925.924	13304
926.031	13388
926.138	13206
926.245	13346
926.352	13160
926.459	13240
926.566	13403
926.673	13190
926.779	13053
926.886	12996
926.993	12901
927.099	12916
927.206	12837
927.312	12833
927.419	12951
927.525	12817
927.631	13012
927.737	12856
927.843	12749
927.95	12696
928.056	12711
928.162	12753
928.267	12715
928.373	13346
928.479	12741
928.585	12566
928.69	12616
928.796	12635
928.901	12665
929.007	12437
929.112	12551
929.218	12517
929.323	12441
929.428	12384
929.533	12551
929.638	12334
929.743	12330
929.848	12369
929.953	12251
930.058	12235
930.163	12087
930.267	12129
930.372	12285
930.477	12015
930.581	12292
930.685	12155
930.79	12026
930.894	12038
930.998	11942
931.103	12079
931.207	11668
931.311	11657
931.415	11573
931.519	11406
931.623	11254
