Data from test_V78500241_223.txt Node
Date: Fri Mar 25 15:43:20 CST 2022
User: usil
Spectrometer: V785-0024
Trigger mode: 0
Integration Time (sec): 4.000000E-1
Scans to average: 1
Nonlinearity correction enabled: false
Boxcar width: 0
Storing dark spectrum: false
XAxis mode: Wavelengths
Number of Pixels in Spectrum: 1024
>>>>>Begin Spectral Data<<<<<
801.071	28485
801.214	28451
801.356	28169
801.499	28116
801.641	28040
801.783	28147
801.926	28112
802.068	28143
802.211	27949
802.353	28013
802.496	27816
802.638	27660
802.78	27663
802.923	27606
803.065	27488
803.208	27614
803.35	27629
803.492	27724
803.635	27781
803.777	27701
803.919	27808
804.061	28059
804.204	27812
804.346	27618
804.488	27641
804.63	27724
804.773	27572
804.915	27747
805.057	27682
805.199	27751
805.341	27854
805.483	27819
805.626	27667
805.768	27637
805.91	27789
806.052	27793
806.194	27827
806.336	28055
806.478	27892
806.62	27682
806.762	27918
806.904	28051
807.046	28147
807.188	28090
807.33	28135
807.472	28234
807.614	28185
807.756	28158
807.898	27918
808.04	28021
808.182	27983
808.324	28044
808.465	28013
808.607	28295
808.749	28268
808.891	28394
809.033	28603
809.174	28508
809.316	28398
809.458	28276
809.6	28401
809.741	28363
809.883	28360
810.025	28504
810.166	28660
810.308	28672
810.45	28455
810.591	28329
810.733	28329
810.875	28230
811.016	28181
811.158	28276
811.299	28497
811.441	28459
811.582	28531
811.724	28185
811.865	28211
812.007	28295
812.148	28352
812.29	28238
812.431	28409
812.573	28584
812.714	28653
812.855	28850
812.997	28873
813.138	29071
813.279	28915
813.421	28809
813.562	28717
813.703	28596
813.845	28527
813.986	28067
814.127	28010
814.268	27873
814.41	27816
814.551	27903
814.692	27979
814.833	27819
814.974	27873
815.115	27884
815.256	27816
815.397	27793
815.539	27720
815.68	27606
815.821	27576
815.962	27648
816.103	27637
816.244	27557
816.385	27519
816.526	27367
816.666	27176
816.807	27165
816.948	27135
817.089	27230
817.23	27188
817.371	26948
817.512	26982
817.653	26982
817.793	27001
817.934	27100
818.075	27070
818.216	27024
818.356	26823
818.497	26701
818.638	26659
818.778	26746
818.919	26720
819.06	26796
819.2	26826
819.341	26990
819.481	26857
819.622	27024
819.762	27279
819.903	27150
820.043	27066
820.184	27081
820.324	27009
820.465	27043
820.605	27028
820.746	26948
820.886	26883
821.026	27036
821.167	26979
821.307	27138
821.447	26929
821.588	26743
821.728	26640
821.868	26492
822.008	26400
822.149	26366
822.289	26370
822.429	26225
822.569	26092
822.709	26100
822.849	25799
822.99	25769
823.13	25761
823.27	25750
823.41	25662
823.55	25468
823.69	25552
823.83	25765
823.97	25670
824.11	25514
824.25	25510
824.389	25362
824.529	25559
824.669	25403
824.809	25506
824.949	25544
825.089	25415
825.228	25479
825.368	25373
825.508	25236
825.648	25251
825.787	25308
825.927	25388
826.067	25213
826.206	25407
826.346	25350
826.485	25308
826.625	25156
826.765	25282
826.904	25499
827.044	24958
827.183	25053
827.323	24821
827.462	25053
827.601	24844
827.741	24817
827.88	24920
828.02	24806
828.159	24951
828.298	24913
828.437	24973
828.577	24764
828.716	25072
828.855	24894
828.994	24589
829.134	24585
829.273	24635
829.412	24551
829.551	24604
829.69	24658
829.829	24658
829.968	24700
830.107	24677
830.246	24563
830.385	24570
830.524	24418
830.663	24384
830.802	24300
830.941	24220
831.08	24167
831.219	24060
831.357	24098
831.496	24376
831.635	24117
831.774	24076
831.913	24079
832.051	23863
832.19	23931
832.329	24026
832.467	23863
832.606	23668
832.744	23745
832.883	23779
833.022	23748
833.16	23813
833.299	23836
833.437	23767
833.576	23863
833.714	23802
833.852	23863
833.991	23889
834.129	23923
834.267	24053
834.406	23646
834.544	23836
834.682	23794
834.821	23821
834.959	24121
835.097	23726
835.235	23794
835.373	23722
835.511	23718
835.65	23680
835.788	23733
835.926	23531
836.064	23402
836.202	23444
836.34	23665
836.478	23630
836.615	23661
836.753	23653
836.891	23566
837.029	23676
837.167	23570
837.305	23680
837.443	23490
837.58	23440
837.718	23493
837.856	23570
837.993	23368
838.131	23368
838.269	23356
838.406	23315
838.544	23299
838.681	23128
838.819	23147
838.956	22866
839.094	22904
839.231	22980
839.369	22995
839.506	23261
839.643	23159
839.781	22862
839.918	22793
840.055	22900
840.193	22820
840.33	22831
840.467	22854
840.604	22831
840.742	23239
840.879	22622
841.016	22805
841.153	22637
841.29	22850
841.427	22797
841.564	22892
841.701	22687
841.838	22615
841.975	22725
842.112	22668
842.249	22641
842.385	22531
842.522	22710
842.659	22668
842.796	22557
842.933	22485
843.069	22447
843.206	22398
843.343	22527
843.479	22538
843.616	22546
843.752	22196
843.889	22303
844.025	22344
844.162	22147
844.298	22405
844.435	22109
844.571	22207
844.708	22185
844.844	22284
844.98	22341
845.117	22261
845.253	22238
845.389	21991
845.525	22124
845.661	22158
845.798	21934
845.934	21968
846.07	21876
846.206	21956
846.342	22082
846.478	22025
846.614	21625
846.75	21633
846.886	21595
847.022	21797
847.158	21660
847.294	21709
847.429	21709
847.565	21652
847.701	21953
847.837	21428
847.972	21412
848.108	21595
848.244	21568
848.379	21287
848.515	21233
848.65	21241
848.786	21176
848.921	21184
849.057	21268
849.192	21291
849.328	21340
849.463	21237
849.598	21161
849.734	21150
849.869	21127
850.004	20891
850.14	20994
850.275	20921
850.41	20910
850.545	20944
850.68	21005
850.815	20963
850.95	20830
851.085	21119
851.22	21112
851.355	20864
851.49	20963
851.625	20864
851.76	21001
851.895	20910
852.03	20902
852.165	20849
852.299	20937
852.434	20956
852.569	20876
852.703	20906
852.838	21127
852.973	21077
853.107	21135
853.242	20956
853.376	20735
853.511	20613
853.645	20636
853.78	20872
853.914	20754
854.048	20602
854.183	20720
854.317	20826
854.451	21062
854.585	20834
854.72	20800
854.854	20921
854.988	20708
855.122	20762
855.256	20670
855.39	20701
855.524	20769
855.658	20781
855.792	20693
855.926	20872
856.06	20861
856.194	20914
856.327	20800
856.461	20750
856.595	20651
856.729	20667
856.862	20758
856.996	20861
857.13	20746
857.263	20910
857.397	20777
857.53	20743
857.664	20743
857.797	20701
857.931	20914
858.064	20746
858.197	20785
858.331	20655
858.464	20583
858.597	20594
858.731	20670
858.864	20708
858.997	20579
859.13	20769
859.263	20781
859.396	20659
859.529	20549
859.662	20598
859.795	20644
859.928	20689
860.061	20918
860.194	20777
860.327	20693
860.46	20739
860.592	20853
860.725	20823
860.858	20857
860.99	20678
861.123	20743
861.256	20621
861.388	20788
861.521	21397
861.653	20724
861.786	20374
861.918	20556
862.05	20773
862.183	20640
862.315	20804
862.447	20864
862.58	20602
862.712	20484
862.844	20377
862.976	20450
863.108	20541
863.24	20750
863.372	20252
863.504	20248
863.636	20438
863.768	20488
863.9	20366
864.032	20343
864.164	20320
864.296	20339
864.428	20568
864.559	20473
864.691	20339
864.823	20374
864.954	20415
865.086	20339
865.217	20271
865.349	20210
865.48	20278
865.612	20248
865.743	20355
865.875	20366
866.006	20282
866.137	20237
866.269	20358
866.4	20233
866.531	20259
866.662	20210
866.793	20229
866.924	20214
867.055	20317
867.186	20362
867.317	20119
867.448	20103
867.579	20271
867.71	20111
867.841	20122
867.972	20256
868.103	20313
868.233	20168
868.364	20252
868.495	20374
868.625	20438
868.756	20549
868.886	20305
869.017	20480
869.147	20667
869.278	20606
869.408	20450
869.539	20564
869.669	20495
869.799	20469
869.929	20514
870.06	20613
870.19	20750
870.32	20651
870.45	20819
870.58	20842
870.71	20941
870.84	20971
870.97	20804
871.1	20883
871.23	21043
871.36	21058
871.489	20960
871.619	21024
871.749	21043
871.879	21051
872.008	21260
872.138	21135
872.267	21024
872.397	20986
872.526	20792
872.656	21001
872.785	20963
872.915	21009
873.044	21135
873.173	21154
873.303	21169
873.432	21051
873.561	21176
873.69	21135
873.819	21085
873.948	21150
874.077	21047
874.206	21089
874.335	21093
874.464	21222
874.593	21397
874.722	21199
874.851	21393
874.979	21355
875.108	21481
875.237	21249
875.365	21195
875.494	21264
875.623	21302
875.751	21260
875.88	21317
876.008	21408
876.136	21523
876.265	21648
876.393	21838
876.521	21827
876.65	21907
876.778	21614
876.906	21583
877.034	21755
877.162	21709
877.29	21644
877.418	21793
877.546	21610
877.674	21648
877.802	21701
877.93	21724
878.058	21625
878.185	21644
878.313	21587
878.441	21679
878.568	21416
878.696	21637
878.824	21766
878.951	21800
879.079	21857
879.206	22055
879.333	21789
879.461	21743
879.588	21747
879.715	21846
879.842	21888
879.97	21739
880.097	21435
880.224	21477
880.351	21576
880.478	21515
880.605	21291
880.732	21492
880.859	21789
880.986	21504
881.112	21389
881.239	21310
881.366	21359
881.493	21188
881.619	21146
881.746	21100
881.872	21104
881.999	21051
882.125	21096
882.252	21089
882.378	21173
882.505	21207
882.631	21039
882.757	20910
882.883	20910
883.01	20902
883.136	20758
883.262	20746
883.388	20670
883.514	20746
883.64	20895
883.766	20667
883.892	20644
884.018	20617
884.143	20701
884.269	20823
884.395	20651
884.52	20404
884.646	20514
884.772	20446
884.897	20328
885.023	20469
885.148	20499
885.274	20556
885.399	20629
885.524	20564
885.65	20404
885.775	20396
885.9	20434
886.025	20427
886.15	20609
886.275	20355
886.4	20221
886.525	20514
886.65	20419
886.775	20450
886.9	20609
887.025	20689
887.149	20396
887.274	20358
887.399	20214
887.523	20282
887.648	20122
887.773	20138
887.897	20457
888.021	20267
888.146	20043
888.27	20343
888.395	20267
888.519	20134
888.643	20225
888.767	20180
888.891	20153
889.015	19982
889.139	20225
889.263	20088
889.387	20008
889.511	20294
889.635	20081
889.759	19982
889.883	20046
890.006	19925
890.13	20134
890.254	19959
890.377	19936
890.501	19807
890.624	19746
890.748	19738
890.871	19677
890.995	19563
891.118	19571
891.241	19696
891.364	19563
891.488	19704
891.611	19674
891.734	19582
891.857	19601
891.98	19578
892.103	19601
892.226	19643
892.349	19624
892.471	19358
892.594	19426
892.717	19586
892.839	19491
892.962	19502
893.085	19624
893.207	19571
893.33	19540
893.452	19327
893.575	19586
893.697	19499
893.819	19605
893.941	19666
894.064	19761
894.186	19476
894.308	19460
894.43	19590
894.552	19719
894.674	19662
894.796	19472
894.918	19540
895.04	19445
895.161	19635
895.283	19422
895.405	19266
895.526	19491
895.648	19590
895.769	19662
895.891	19552
896.012	19605
896.134	19662
896.255	19434
896.376	19559
896.498	19521
896.619	19605
896.74	19662
896.861	19750
896.982	20031
897.103	20035
897.224	19868
897.345	19761
897.466	19750
897.587	19662
897.708	19890
897.828	19795
897.949	19708
898.07	19689
898.19	19750
898.311	19841
898.431	19643
898.552	19689
898.672	19868
898.792	19852
898.913	19814
899.033	19514
899.153	19510
899.273	19506
899.393	19460
899.513	19537
899.633	19449
899.753	19510
899.873	19419
899.993	19472
900.113	19476
900.232	19392
900.352	19293
900.472	19339
900.591	19327
900.711	19358
900.83	19285
900.95	19388
901.069	19438
901.189	19301
901.308	19034
901.427	18993
901.546	18856
901.665	18875
901.784	18977
901.904	18814
902.023	18506
902.141	18399
902.26	18388
902.379	18380
902.498	18311
902.617	18380
902.735	18422
902.854	18273
902.973	18315
903.091	18057
903.21	17988
903.328	18102
903.446	17916
903.565	17904
903.683	17847
903.801	17794
903.919	17859
904.038	17813
904.156	17672
904.274	17710
904.392	17562
904.51	17539
904.627	17653
904.745	17745
904.863	17539
904.981	17436
905.098	17349
905.216	17185
905.334	17326
905.451	17330
905.569	17242
905.686	17322
905.803	17315
905.921	17136
906.038	17261
906.155	17121
906.272	16976
906.389	16991
906.506	16900
906.623	16729
906.74	16752
906.857	16637
906.974	16668
907.091	16778
907.208	16892
907.324	16843
907.441	16778
907.557	16512
907.674	16447
907.79	16519
907.907	16462
908.023	16493
908.139	16443
908.256	16325
908.372	16405
908.488	16474
908.604	16207
908.72	16249
908.836	16200
908.952	16223
909.068	16242
909.184	16253
909.3	16200
909.415	16238
909.531	16192
909.647	15888
909.762	15918
909.878	15842
909.993	15975
910.108	15968
910.224	15850
910.339	15861
910.454	15747
910.57	15747
910.685	15641
910.8	15949
910.915	15835
911.03	15724
911.145	15526
911.259	15519
911.374	15564
911.489	15370
911.604	15336
911.718	15264
911.833	15256
911.947	15112
912.062	15119
912.176	15222
912.291	15310
912.405	15359
912.519	15496
912.633	15488
912.748	15241
912.862	15237
912.976	15104
913.09	14998
913.204	14944
913.318	14982
913.431	15150
913.545	15070
913.659	15275
913.772	15013
913.886	14887
914	14933
914.113	14990
914.226	15058
914.34	14861
914.453	14800
914.566	14887
914.68	14769
914.793	14796
914.906	14606
915.019	14522
915.132	14415
915.245	14423
915.358	14454
915.47	14575
915.583	14503
915.696	14549
915.809	14518
915.921	14651
916.034	14457
916.146	14328
916.259	14415
916.371	14564
916.483	14377
916.595	14313
916.708	14415
916.82	14320
916.932	14275
917.044	14351
917.156	14351
917.268	14153
917.38	14225
917.491	14050
917.603	14164
917.715	14256
917.826	14214
917.938	14214
918.049	13982
918.161	14111
918.272	14225
918.384	14218
918.495	14145
918.606	13940
918.717	13860
918.828	13902
918.939	14020
919.05	13940
919.161	13921
919.272	13765
919.383	13738
919.494	13967
919.604	14103
919.715	13913
919.826	13757
919.936	13712
920.047	13921
920.157	13883
920.267	14050
920.378	13894
920.488	13791
920.598	14058
920.708	14210
920.818	14050
920.928	14008
921.038	14157
921.148	14161
921.258	13917
921.368	13818
921.477	13685
921.587	13666
921.697	13556
921.806	13628
921.916	13468
922.025	13388
922.134	13350
922.244	13316
922.353	13407
922.462	13187
922.571	13137
922.68	13069
922.789	12932
922.898	12943
923.007	12825
923.116	12837
923.224	12844
923.333	12886
923.442	12764
923.55	12840
923.659	12707
923.767	12867
923.876	12741
923.984	12795
924.092	12715
924.201	12700
924.309	12593
924.417	12631
924.525	12627
924.633	12658
924.741	13388
924.849	12395
924.956	12597
925.064	12448
925.172	12315
925.279	12464
925.387	12399
925.494	12403
925.602	12566
925.709	12475
925.816	12258
925.924	12372
926.031	12426
926.138	12369
926.245	12365
926.352	12327
926.459	12361
926.566	12399
926.673	12292
926.779	12098
926.886	12167
926.993	12095
927.099	11954
927.206	11954
927.312	12011
927.419	12038
927.525	11939
927.631	11977
927.737	11908
927.843	11767
927.95	11775
928.056	11714
928.162	11771
928.267	11813
928.373	12525
928.479	11866
928.585	11649
928.69	11843
928.796	11859
928.901	11707
929.007	11486
929.112	11691
929.218	11619
929.323	11535
929.428	11512
929.533	11630
929.638	11436
929.743	11516
929.848	11577
929.953	11478
930.058	11391
930.163	11299
930.267	11216
930.372	11410
930.477	11212
930.581	11311
930.685	11311
930.79	11155
930.894	11147
930.998	11132
931.103	11299
931.207	10854
931.311	10744
931.415	10736
931.519	10402
931.623	10451
