Data from test_V78500241_464.txt Node
Date: Fri Mar 25 15:45:00 CST 2022
User: usil
Spectrometer: V785-0024
Trigger mode: 0
Integration Time (sec): 4.000000E-1
Scans to average: 1
Nonlinearity correction enabled: false
Boxcar width: 0
Storing dark spectrum: false
XAxis mode: Wavelengths
Number of Pixels in Spectrum: 1024
>>>>>Begin Spectral Data<<<<<
801.071	27800
801.214	27667
801.356	27435
801.499	27351
801.641	27252
801.783	27100
801.926	27150
802.068	27123
802.211	27131
802.353	27112
802.496	26807
802.638	26712
802.78	26880
802.923	26788
803.065	26796
803.208	26720
803.35	26902
803.492	26971
803.635	26960
803.777	26731
803.919	26937
804.061	27241
804.204	27028
804.346	26902
804.488	26819
804.63	26990
804.773	26834
804.915	27089
805.057	27047
805.199	27017
805.341	26925
805.483	27062
805.626	27058
805.768	27074
805.91	27199
806.052	27058
806.194	26895
806.336	27214
806.478	27108
806.62	27077
806.762	27211
806.904	27332
807.046	27652
807.188	27591
807.33	27492
807.472	27587
807.614	27397
807.756	27374
807.898	27336
808.04	27195
808.182	27260
808.324	27447
808.465	27458
808.607	27420
808.749	27663
808.891	27838
809.033	27922
809.174	27736
809.316	27732
809.458	27739
809.6	27724
809.741	27720
809.883	27846
810.025	27926
810.166	27922
810.308	28021
810.45	28013
810.591	27907
810.733	27755
810.875	27812
811.016	27652
811.158	27580
811.299	27778
811.441	27926
811.582	27827
811.724	27633
811.865	27682
812.007	27705
812.148	27648
812.29	27709
812.431	27892
812.573	27975
812.714	28090
812.855	28188
812.997	28265
813.138	28428
813.279	28413
813.421	28287
813.562	28204
813.703	28059
813.845	27850
813.986	27679
814.127	27530
814.268	27511
814.41	27469
814.551	27367
814.692	27416
814.833	27279
814.974	27462
815.115	27427
815.256	27302
815.397	27173
815.539	27344
815.68	27256
815.821	27089
815.962	27131
816.103	27100
816.244	27020
816.385	26864
816.526	26910
816.666	26712
816.807	26598
816.948	26724
817.089	26781
817.23	26636
817.371	26682
817.512	26598
817.653	26522
817.793	26560
817.934	26587
818.075	26606
818.216	26629
818.356	26473
818.497	26438
818.638	26480
818.778	26396
818.919	26309
819.06	26423
819.2	26533
819.341	26549
819.481	26625
819.622	26807
819.762	27024
819.903	26857
820.043	26785
820.184	26663
820.324	26712
820.465	26830
820.605	26708
820.746	26731
820.886	26545
821.026	26621
821.167	26632
821.307	26765
821.447	26606
821.588	26552
821.728	26396
821.868	26278
822.008	26168
822.149	26073
822.289	26054
822.429	25753
822.569	25765
822.709	25746
822.849	25525
822.99	25708
823.13	25666
823.27	25712
823.41	25540
823.55	25339
823.69	25438
823.83	25445
823.97	25247
824.11	25251
824.25	25141
824.389	25282
824.529	25293
824.669	25240
824.809	25339
824.949	25453
825.089	25365
825.228	25343
825.368	25099
825.508	25065
825.648	25118
825.787	25179
825.927	25168
826.067	25225
826.206	25069
826.346	25198
826.485	25107
826.625	24992
826.765	25099
826.904	25141
827.044	24848
827.183	24817
827.323	24715
827.462	24977
827.601	24791
827.741	24673
827.88	24745
828.02	24635
828.159	24681
828.298	24791
828.437	24772
828.577	24525
828.716	24753
828.855	24604
828.994	24441
829.134	24540
829.273	24525
829.412	24445
829.551	24429
829.69	24521
829.829	24544
829.968	24494
830.107	24593
830.246	24578
830.385	24414
830.524	24338
830.663	24338
830.802	24163
830.941	24117
831.08	24087
831.219	24182
831.357	24182
831.496	24213
831.635	24133
831.774	23923
831.913	23908
832.051	23843
832.19	23870
832.329	23851
832.467	23707
832.606	23710
832.744	23668
832.883	23699
833.022	23634
833.16	23630
833.299	23684
833.437	23813
833.576	23805
833.714	23935
833.852	23863
833.991	23893
834.129	23805
834.267	23794
834.406	23687
834.544	23836
834.682	23824
834.821	23798
834.959	23954
835.097	23786
835.235	23699
835.373	23870
835.511	23729
835.65	23608
835.788	23573
835.926	23585
836.064	23406
836.202	23520
836.34	23581
836.478	23604
836.615	23642
836.753	23729
836.891	23733
837.029	23684
837.167	23634
837.305	23486
837.443	23528
837.58	23467
837.718	23592
837.856	23493
837.993	23303
838.131	23429
838.269	23349
838.406	23383
838.544	23288
838.681	23147
838.819	23124
838.956	22900
839.094	22942
839.231	22984
839.369	23147
839.506	23204
839.643	23094
839.781	22919
839.918	22927
840.055	22980
840.193	22919
840.33	22786
840.467	22885
840.604	22957
840.742	23227
840.879	22748
841.016	22869
841.153	22687
841.29	22965
841.427	22847
841.564	23006
841.701	22839
841.838	22816
841.975	22774
842.112	22748
842.249	22668
842.385	22630
842.522	22778
842.659	22691
842.796	22588
842.933	22668
843.069	22588
843.206	22557
843.343	22771
843.479	22569
843.616	22535
843.752	22333
843.889	22268
844.025	22493
844.162	22363
844.298	22451
844.435	22405
844.571	22249
844.708	22459
844.844	22485
844.98	22516
845.117	22542
845.253	22333
845.389	22139
845.525	22306
845.661	22223
845.798	22131
845.934	22074
846.07	22097
846.206	22135
846.342	22238
846.478	22070
846.614	22006
846.75	21876
846.886	21759
847.022	21934
847.158	21915
847.294	21854
847.429	22002
847.565	21869
847.701	22002
847.837	21606
847.972	21492
848.108	21660
848.244	21542
848.379	21469
848.515	21576
848.65	21355
848.786	21447
848.921	21466
849.057	21751
849.192	21515
849.328	21545
849.463	21386
849.598	21431
849.734	21435
849.869	21233
850.004	21317
850.14	21180
850.275	21211
850.41	21135
850.545	21096
850.68	21138
850.815	21207
850.95	21165
851.085	21344
851.22	21256
851.355	21157
851.49	21074
851.625	21157
851.76	21214
851.895	21138
852.03	21119
852.165	21146
852.299	21127
852.434	21268
852.569	21188
852.703	21291
852.838	21340
852.973	21367
853.107	21386
853.242	21222
853.376	21138
853.511	20937
853.645	20937
853.78	21199
853.914	21081
854.048	20868
854.183	20861
854.317	20956
854.451	21192
854.585	21058
854.72	21017
854.854	21089
854.988	21009
855.122	21043
855.256	20941
855.39	21066
855.524	21085
855.658	21058
855.792	21131
855.926	20975
856.06	21017
856.194	21138
856.327	21051
856.461	21047
856.595	20982
856.729	20998
856.862	21051
856.996	21047
857.13	21157
857.263	21203
857.397	21188
857.53	21055
857.664	21138
857.797	21131
857.931	21169
858.064	21089
858.197	21085
858.331	20918
858.464	21028
858.597	21020
858.731	21001
858.864	21009
858.997	20918
859.13	20986
859.263	21024
859.396	21020
859.529	21028
859.662	20979
859.795	21020
859.928	20960
860.061	21180
860.194	21203
860.327	21119
860.46	21036
860.592	21142
860.725	21108
860.858	21207
860.99	21032
861.123	20876
861.256	20872
861.388	21043
861.521	21553
861.653	20838
861.786	20868
861.918	20777
862.05	20921
862.183	20971
862.315	20960
862.447	21089
862.58	21001
862.712	20659
862.844	20621
862.976	20823
863.108	20826
863.24	21207
863.372	20655
863.504	20804
863.636	20811
863.768	20708
863.9	20651
864.032	20629
864.164	20651
864.296	20716
864.428	20826
864.559	20826
864.691	20849
864.823	20731
864.954	20819
865.086	20758
865.217	20579
865.349	20568
865.48	20552
865.612	20689
865.743	20800
865.875	20693
866.006	20625
866.137	20651
866.269	20606
866.4	20606
866.531	20526
866.662	20511
866.793	20640
866.924	20549
867.055	20571
867.186	20530
867.317	20461
867.448	20549
867.579	20549
867.71	20549
867.841	20499
867.972	20526
868.103	20640
868.233	20579
868.364	20648
868.495	20678
868.625	20815
868.756	20921
868.886	20701
869.017	20891
869.147	20937
869.278	20861
869.408	20876
869.539	20765
869.669	20906
869.799	20804
869.929	20986
870.06	20853
870.19	21100
870.32	21093
870.45	21173
870.58	21272
870.71	21329
870.84	21386
870.97	21188
871.1	21195
871.23	21382
871.36	21401
871.489	21306
871.619	21397
871.749	21393
871.879	21439
872.008	21625
872.138	21408
872.267	21496
872.397	21306
872.526	21291
872.656	21142
872.785	21173
872.915	21454
873.044	21485
873.173	21416
873.303	21439
873.432	21454
873.561	21515
873.69	21462
873.819	21397
873.948	21492
874.077	21485
874.206	21447
874.335	21412
874.464	21469
874.593	21667
874.722	21549
874.851	21774
874.979	21770
875.108	21865
875.237	21679
875.365	21443
875.494	21633
875.623	21644
875.751	21587
875.88	21724
876.008	21709
876.136	21865
876.265	21934
876.393	22181
876.521	22150
876.65	22135
876.778	22029
876.906	22029
877.034	21987
877.162	22010
877.29	21854
877.418	22082
877.546	22021
877.674	21968
877.802	22059
877.93	22086
878.058	21991
878.185	21873
878.313	22021
878.441	21903
878.568	21823
878.696	22017
878.824	22139
878.951	22090
879.079	22188
879.206	22329
879.333	22287
879.461	21983
879.588	22162
879.715	22162
879.842	22314
879.97	22192
880.097	21789
880.224	21876
880.351	21899
880.478	21869
880.605	21880
880.732	21816
880.859	22074
880.986	21800
881.112	21835
881.239	21583
881.366	21481
881.493	21477
881.619	21412
881.746	21367
881.872	21542
881.999	21469
882.125	21401
882.252	21428
882.378	21359
882.505	21595
882.631	21370
882.757	21146
882.883	21252
883.01	21184
883.136	21070
883.262	21009
883.388	20998
883.514	21146
883.64	21146
883.766	21028
883.892	20933
884.018	20861
884.143	21043
884.269	21154
884.395	20758
884.52	20705
884.646	20902
884.772	20701
884.897	20659
885.023	20754
885.148	20861
885.274	20845
885.399	20758
885.524	20659
885.65	20708
885.775	20750
885.9	20712
886.025	20861
886.15	20842
886.275	20621
886.4	20575
886.525	20845
886.65	20617
886.775	20606
886.9	20807
887.025	20868
887.149	20674
887.274	20602
887.399	20560
887.523	20465
887.648	20533
887.773	20362
887.897	20678
888.021	20758
888.146	20469
888.27	20575
888.395	20648
888.519	20571
888.643	20609
888.767	20552
888.891	20313
889.015	20351
889.139	20450
889.263	20377
889.387	20412
889.511	20469
889.635	20526
889.759	20358
889.883	20412
890.006	20290
890.13	20355
890.254	20294
890.377	20275
890.501	20001
890.624	20027
890.748	20138
890.871	20046
890.995	19837
891.118	19986
891.241	19890
891.364	20005
891.488	20145
891.611	19947
891.734	19868
891.857	20016
891.98	19902
892.103	20058
892.226	19967
892.349	19871
892.471	19753
892.594	19909
892.717	19822
892.839	19868
892.962	19917
893.085	19947
893.207	19856
893.33	19578
893.452	19620
893.575	19849
893.697	19868
893.819	19940
893.941	19989
894.064	19936
894.186	19734
894.308	19670
894.43	19852
894.552	19856
894.674	19894
894.796	19712
894.918	19852
895.04	19830
895.161	19898
895.283	19849
895.405	19833
895.526	19803
895.648	19841
895.769	19803
895.891	19852
896.012	19902
896.134	19822
896.255	19791
896.376	19830
896.498	19791
896.619	19852
896.74	19940
896.861	19894
896.982	20043
897.103	20278
897.224	20191
897.345	20103
897.466	19978
897.587	20134
897.708	20191
897.828	20024
897.949	20008
898.07	19883
898.19	20016
898.311	20100
898.431	20062
898.552	20020
898.672	20031
898.792	20111
898.913	20058
899.033	19963
899.153	19921
899.273	19723
899.393	19765
899.513	19784
899.633	19898
899.753	19837
899.873	19784
899.993	19849
900.113	19750
900.232	19715
900.352	19704
900.472	19757
900.591	19597
900.711	19696
900.83	19521
900.95	19639
901.069	19734
901.189	19483
901.308	19301
901.427	19190
901.546	19175
901.665	19183
901.784	19206
901.904	19000
902.023	18928
902.141	18825
902.26	18688
902.379	18722
902.498	18741
902.617	18612
902.735	18772
902.854	18703
902.973	18525
903.091	18445
903.21	18334
903.328	18334
903.446	18311
903.565	18152
903.683	18155
903.801	18038
903.919	18213
904.038	18152
904.156	17965
904.274	17999
904.392	17916
904.51	17984
904.627	17882
904.745	17977
904.863	18007
904.981	17680
905.098	17619
905.216	17615
905.334	17718
905.451	17661
905.569	17615
905.686	17646
905.803	17619
905.921	17318
906.038	17433
906.155	17486
906.272	17280
906.389	17459
906.506	17147
906.623	17258
906.74	17132
906.857	16972
906.974	17086
907.091	17239
907.208	17334
907.324	17132
907.441	17113
907.557	16873
907.674	16877
907.79	16710
907.907	16812
908.023	16805
908.139	16877
908.256	16839
908.372	16744
908.488	16748
908.604	16508
908.72	16615
908.836	16611
908.952	16565
909.068	16618
909.184	16774
909.3	16394
909.415	16538
909.531	16573
909.647	16333
909.762	16352
909.878	16344
909.993	16265
910.108	16177
910.224	16223
910.339	16386
910.454	16211
910.57	16097
910.685	15975
910.8	16265
910.915	16185
911.03	16143
911.145	15941
911.259	15922
911.374	15918
911.489	15778
911.604	15739
911.718	15709
911.833	15739
911.947	15477
912.062	15401
912.176	15580
912.291	15622
912.405	15648
912.519	15861
912.633	15835
912.748	15561
912.862	15576
912.976	15519
913.09	15252
913.204	15466
913.318	15481
913.431	15549
913.545	15481
913.659	15545
913.772	15405
913.886	15302
914	15283
914.113	15477
914.226	15332
914.34	15313
914.453	15237
914.566	15348
914.68	15142
914.793	15123
914.906	14929
915.019	14937
915.132	14792
915.245	14830
915.358	14876
915.47	14899
915.583	14849
915.696	14994
915.809	14918
915.921	15017
916.034	14830
916.146	14739
916.259	14705
916.371	14960
916.483	14754
916.595	14777
916.708	14716
916.82	14750
916.932	14674
917.044	14590
917.156	14697
917.268	14393
917.38	14594
917.491	14583
917.603	14560
917.715	14499
917.826	14663
917.938	14488
918.049	14320
918.161	14431
918.272	14727
918.384	14583
918.495	14530
918.606	14313
918.717	14263
918.828	14393
918.939	14347
919.05	14214
919.161	14267
919.272	14035
919.383	14134
919.494	14317
919.604	14495
919.715	14191
919.826	14176
919.936	14328
920.047	14309
920.157	14233
920.267	14415
920.378	14256
920.488	14176
920.598	14465
920.708	14533
920.818	14408
920.928	14419
921.038	14465
921.148	14526
921.258	14263
921.368	14096
921.477	13974
921.587	13989
921.697	13830
921.806	13955
921.916	13913
922.025	13750
922.134	13689
922.244	13628
922.353	13704
922.462	13613
922.571	13449
922.68	13304
922.789	13354
922.898	13350
923.007	13274
923.116	13384
923.224	13312
923.333	13209
923.442	13145
923.55	13088
923.659	13118
923.767	13190
923.876	13004
923.984	13190
924.092	13012
924.201	13152
924.309	13126
924.417	13057
924.525	12962
924.633	13012
924.741	13715
924.849	12749
924.956	13012
925.064	12749
925.172	12677
925.279	12696
925.387	12700
925.494	12783
925.602	12878
925.709	12798
925.816	12642
925.924	12810
926.031	12696
926.138	12715
926.245	12734
926.352	12525
926.459	12673
926.566	12730
926.673	12620
926.779	12551
926.886	12502
926.993	12391
927.099	12342
927.206	12213
927.312	12281
927.419	12353
927.525	12357
927.631	12353
927.737	12266
927.843	12098
927.95	11965
928.056	12114
928.162	12190
928.267	12190
928.373	12821
928.479	12228
928.585	11920
928.69	12121
928.796	12060
928.901	11961
929.007	11885
929.112	12098
929.218	12007
929.323	11912
929.428	11832
929.533	11939
929.638	11802
929.743	11737
929.848	11847
929.953	11859
930.058	11646
930.163	11611
930.267	11676
930.372	11786
930.477	11493
930.581	11695
930.685	11642
930.79	11436
930.894	11509
930.998	11414
931.103	11585
931.207	11220
931.311	11090
931.415	11098
931.519	10835
931.623	10809
