Data from test_V78500241_3640.txt Node
Date: Fri Mar 25 16:07:01 CST 2022
User: usil
Spectrometer: V785-0024
Trigger mode: 0
Integration Time (sec): 4.000000E-1
Scans to average: 1
Nonlinearity correction enabled: false
Boxcar width: 0
Storing dark spectrum: false
XAxis mode: Wavelengths
Number of Pixels in Spectrum: 1024
>>>>>Begin Spectral Data<<<<<
801.071	27842
801.214	27842
801.356	27641
801.499	27538
801.641	27454
801.783	27397
801.926	27534
802.068	27408
802.211	27222
802.353	27344
802.496	27169
802.638	27070
802.78	27032
802.923	27028
803.065	26994
803.208	26986
803.35	27024
803.492	27226
803.635	27195
803.777	27237
803.919	27176
804.061	27454
804.204	27397
804.346	27260
804.488	27112
804.63	27233
804.773	27077
804.915	27298
805.057	27477
805.199	27184
805.341	27519
805.483	27332
805.626	27458
805.768	27302
805.91	27473
806.052	27431
806.194	27264
806.336	27538
806.478	27355
806.62	27443
806.762	27538
806.904	27789
807.046	27941
807.188	27838
807.33	27960
807.472	27926
807.614	27732
807.756	27709
807.898	27713
808.04	27523
808.182	27587
808.324	27774
808.465	27789
808.607	27895
808.749	27979
808.891	28120
809.033	28268
809.174	28158
809.316	28078
809.458	28143
809.6	28032
809.741	28253
809.883	28063
810.025	28348
810.166	28333
810.308	28341
810.45	28306
810.591	28120
810.733	28067
810.875	28082
811.016	28040
811.158	27926
811.299	28177
811.441	28128
811.582	28109
811.724	28131
811.865	27922
812.007	28029
812.148	27941
812.29	28128
812.431	28333
812.573	28478
812.714	28352
812.855	28577
812.997	28717
813.138	28755
813.279	28687
813.421	28455
813.562	28584
813.703	28272
813.845	28242
813.986	27968
814.127	27903
814.268	27580
814.41	27770
814.551	27663
814.692	27823
814.833	27591
814.974	27648
815.115	27797
815.256	27671
815.397	27526
815.539	27656
815.68	27447
815.821	27332
815.962	27424
816.103	27443
816.244	27397
816.385	27382
816.526	27173
816.666	27112
816.807	27173
816.948	27070
817.089	27043
817.23	27077
817.371	27062
817.512	26982
817.653	27017
817.793	26811
817.934	26891
818.075	26925
818.216	26971
818.356	27009
818.497	26834
818.638	26777
818.778	26746
818.919	26697
819.06	26815
819.2	26857
819.341	27077
819.481	27127
819.622	27298
819.762	27500
819.903	27317
820.043	27138
820.184	27207
820.324	27074
820.465	27222
820.605	26986
820.746	27298
820.886	27017
821.026	27131
821.167	27188
821.307	27207
821.447	26940
821.588	27043
821.728	26807
821.868	26697
822.008	26488
822.149	26587
822.289	26526
822.429	26225
822.569	26237
822.709	26256
822.849	26107
822.99	25986
823.13	26020
823.27	25837
823.41	25750
823.55	25719
823.69	25704
823.83	25875
823.97	25734
824.11	25700
824.25	25655
824.389	25590
824.529	25753
824.669	25624
824.809	25818
824.949	25769
825.089	25620
825.228	25677
825.368	25472
825.508	25495
825.648	25426
825.787	25556
825.927	25559
826.067	25525
826.206	25620
826.346	25594
826.485	25696
826.625	25544
826.765	25559
826.904	25662
827.044	25365
827.183	25190
827.323	25118
827.462	25453
827.601	25251
827.741	25183
827.88	25266
828.02	25088
828.159	25304
828.298	25209
828.437	25270
828.577	25050
828.716	25206
828.855	24932
828.994	24932
829.134	24863
829.273	24966
829.412	24871
829.551	24894
829.69	24890
829.829	24962
829.968	24966
830.107	25061
830.246	24935
830.385	24863
830.524	24738
830.663	24753
830.802	24650
830.941	24544
831.08	24460
831.219	24502
831.357	24604
831.496	24650
831.635	24559
831.774	24601
831.913	24372
832.051	24323
832.19	24289
832.329	24369
832.467	24174
832.606	24129
832.744	24079
832.883	24091
833.022	24110
833.16	24144
833.299	24277
833.437	24167
833.576	24277
833.714	24346
833.852	24224
833.991	24365
834.129	24342
834.267	24311
834.406	24285
834.544	24289
834.682	24171
834.821	24235
834.959	24464
835.097	24186
835.235	24300
835.373	24171
835.511	24163
835.65	24095
835.788	24186
835.926	23977
836.064	23828
836.202	23897
836.34	24148
836.478	24152
836.615	24106
836.753	24057
836.891	23923
837.029	24194
837.167	24026
837.305	23988
837.443	23984
837.58	23939
837.718	23946
837.856	23996
837.993	23920
838.131	23927
838.269	23737
838.406	23764
838.544	23748
838.681	23455
838.819	23646
838.956	23383
839.094	23474
839.231	23478
839.369	23604
839.506	23805
839.643	23512
839.781	23433
839.918	23360
840.055	23395
840.193	23345
840.33	23372
840.467	23322
840.604	23322
840.742	23627
840.879	23159
841.016	23277
841.153	23280
841.29	23345
841.427	23094
841.564	23364
841.701	23341
841.838	23463
841.975	23185
842.112	23227
842.249	23128
842.385	23041
842.522	23296
842.659	23216
842.796	23067
842.933	23075
843.069	22957
843.206	23083
843.343	23155
843.479	23113
843.616	23151
843.752	22900
843.889	22923
844.025	22930
844.162	22797
844.298	22911
844.435	22824
844.571	22759
844.708	22843
844.844	22965
844.98	23143
845.117	23090
845.253	22805
845.389	22660
845.525	22611
845.661	22672
845.798	22580
845.934	22767
846.07	22474
846.206	22675
846.342	22839
846.478	22675
846.614	22348
846.75	22219
846.886	22306
847.022	22436
847.158	22413
847.294	22413
847.429	22394
847.565	22344
847.701	22694
847.837	22078
847.972	22070
848.108	22204
848.244	22166
848.379	21983
848.515	21880
848.65	21888
848.786	21918
848.921	21964
849.057	21949
849.192	22048
849.328	21972
849.463	21975
849.598	21861
849.734	21751
849.869	21800
850.004	21762
850.14	21656
850.275	21717
850.41	21580
850.545	21587
850.68	21507
850.815	21728
850.95	21713
851.085	21808
851.22	21808
851.355	21606
851.49	21778
851.625	21694
851.76	21618
851.895	21603
852.03	21671
852.165	21572
852.299	21652
852.434	21717
852.569	21686
852.703	21698
852.838	21785
852.973	21762
853.107	21934
853.242	21622
853.376	21428
853.511	21454
853.645	21488
853.78	21739
853.914	21568
854.048	21477
854.183	21473
854.317	21576
854.451	21648
854.585	21492
854.72	21504
854.854	21591
854.988	21374
855.122	21587
855.256	21386
855.39	21511
855.524	21720
855.658	21641
855.792	21477
855.926	21504
856.06	21545
856.194	21709
856.327	21530
856.461	21469
856.595	21439
856.729	21458
856.862	21641
856.996	21576
857.13	21633
857.263	21652
857.397	21549
857.53	21610
857.664	21580
857.797	21629
857.931	21557
858.064	21450
858.197	21652
858.331	21526
858.464	21481
858.597	21367
858.731	21561
858.864	21564
858.997	21633
859.13	21583
859.263	21431
859.396	21576
859.529	21477
859.662	21500
859.795	21583
859.928	21576
860.061	21690
860.194	21663
860.327	21580
860.46	21534
860.592	21618
860.725	21629
860.858	21561
860.99	21439
861.123	21348
861.256	21549
861.388	21469
861.521	22242
861.653	21370
861.786	21344
861.918	21325
862.05	21351
862.183	21469
862.315	21530
862.447	21469
862.58	21462
862.712	21233
862.844	21096
862.976	21420
863.108	21313
863.24	21766
863.372	21241
863.504	21218
863.636	21188
863.768	21256
863.9	21233
864.032	21165
864.164	21180
864.296	21173
864.428	21260
864.559	21351
864.691	21317
864.823	21150
864.954	21306
865.086	21157
865.217	21081
865.349	21188
865.48	21085
865.612	21169
865.743	21184
865.875	21081
866.006	21039
866.137	21135
866.269	21165
866.4	21192
866.531	21093
866.662	20975
866.793	21039
866.924	21081
867.055	21093
867.186	21036
867.317	20986
867.448	20971
867.579	21055
867.71	21017
867.841	20918
867.972	21001
868.103	21009
868.233	21077
868.364	20982
868.495	21074
868.625	21287
868.756	21408
868.886	21176
869.017	21230
869.147	21367
869.278	21534
869.408	21340
869.539	21268
869.669	21355
869.799	21272
869.929	21481
870.06	21439
870.19	21625
870.32	21576
870.45	21679
870.58	21698
870.71	21774
870.84	21724
870.97	21644
871.1	21667
871.23	21823
871.36	21804
871.489	21766
871.619	21949
871.749	21903
871.879	21911
872.008	22036
872.138	21937
872.267	21899
872.397	21884
872.526	21812
872.656	21739
872.785	21804
872.915	21964
873.044	21979
873.173	21998
873.303	21926
873.432	21968
873.561	22101
873.69	21926
873.819	21869
873.948	21991
874.077	21941
874.206	21865
874.335	22029
874.464	22090
874.593	22147
874.722	22093
874.851	22188
874.979	22238
875.108	22177
875.237	22124
875.365	22131
875.494	22074
875.623	22329
875.751	22109
875.88	22192
876.008	22223
876.136	22394
876.265	22626
876.393	22645
876.521	22748
876.65	22630
876.778	22637
876.906	22493
877.034	22519
877.162	22455
877.29	22478
877.418	22637
877.546	22485
877.674	22542
877.802	22546
877.93	22421
878.058	22417
878.185	22310
878.313	22466
878.441	22481
878.568	22337
878.696	22405
878.824	22516
878.951	22554
879.079	22717
879.206	22809
879.333	22721
879.461	22451
879.588	22599
879.715	22748
879.842	22748
879.97	22630
880.097	22379
880.224	22284
880.351	22459
880.478	22337
880.605	22356
880.732	22363
880.859	22504
880.986	22360
881.112	22367
881.239	22219
881.366	22147
881.493	22086
881.619	21975
881.746	21857
881.872	21827
881.999	21819
882.125	21823
882.252	22006
882.378	21755
882.505	22021
882.631	21759
882.757	21538
882.883	21679
883.01	21511
883.136	21564
883.262	21500
883.388	21424
883.514	21603
883.64	21648
883.766	21397
883.892	21317
884.018	21275
884.143	21477
884.269	21568
884.395	21447
884.52	21226
884.646	21287
884.772	21123
884.897	21154
885.023	21218
885.148	21313
885.274	21317
885.399	21287
885.524	21302
885.65	21287
885.775	21348
885.9	21249
886.025	21233
886.15	21355
886.275	21127
886.4	21093
886.525	21203
886.65	21028
886.775	21195
886.9	21329
887.025	21462
887.149	21184
887.274	21047
887.399	20887
887.523	21051
887.648	20990
887.773	20796
887.897	21036
888.021	21005
888.146	20998
888.27	20982
888.395	21135
888.519	21001
888.643	21009
888.767	21123
888.891	20876
889.015	20864
889.139	20937
889.263	20781
889.387	20929
889.511	20979
889.635	20880
889.759	20739
889.883	20792
890.006	20720
890.13	20918
890.254	20800
890.377	20788
890.501	20629
890.624	20476
890.748	20648
890.871	20461
890.995	20396
891.118	20267
891.241	20332
891.364	20278
891.488	20511
891.611	20438
891.734	20377
891.857	20454
891.98	20309
892.103	20431
892.226	20271
892.349	20305
892.471	20229
892.594	20377
892.717	20153
892.839	20282
892.962	20320
893.085	20355
893.207	20248
893.33	20195
893.452	20237
893.575	20374
893.697	20237
893.819	20385
893.941	20503
894.064	20522
894.186	20202
894.308	20206
894.43	20317
894.552	20320
894.674	20336
894.796	20199
894.918	20278
895.04	20195
895.161	20294
895.283	20336
895.405	20221
895.526	20358
895.648	20278
895.769	20278
895.891	20336
896.012	20362
896.134	20278
896.255	20396
896.376	20153
896.498	20225
896.619	20271
896.74	20229
896.861	20248
896.982	20530
897.103	20743
897.224	20537
897.345	20385
897.466	20469
897.587	20511
897.708	20583
897.828	20484
897.949	20518
898.07	20267
898.19	20400
898.311	20537
898.431	20404
898.552	20507
898.672	20522
898.792	20495
898.913	20484
899.033	20385
899.153	20282
899.273	20130
899.393	20237
899.513	20210
899.633	20248
899.753	20290
899.873	20157
899.993	20149
900.113	20183
900.232	20259
900.352	20081
900.472	20046
900.591	19967
900.711	20065
900.83	20008
900.95	20111
901.069	20092
901.189	19871
901.308	19723
901.427	19632
901.546	19567
901.665	19662
901.784	19586
901.904	19445
902.023	19213
902.141	19103
902.26	19084
902.379	19152
902.498	19080
902.617	19088
902.735	19137
902.854	19012
902.973	18993
903.091	18878
903.21	18787
903.328	18768
903.446	18654
903.565	18601
903.683	18555
903.801	18471
903.919	18509
904.038	18521
904.156	18452
904.274	18433
904.392	18380
904.51	18270
904.627	18251
904.745	18471
904.863	18369
904.981	18220
905.098	17958
905.216	18022
905.334	18034
905.451	17920
905.569	17912
905.686	18030
905.803	17980
905.921	17813
906.038	17931
906.155	17836
906.272	17729
906.389	17764
906.506	17558
906.623	17608
906.74	17459
906.857	17414
906.974	17417
907.091	17551
907.208	17722
907.324	17535
907.441	17532
907.557	17254
907.674	17204
907.79	17239
907.907	17124
908.023	17299
908.139	17166
908.256	17280
908.372	17079
908.488	17128
908.604	17052
908.72	16972
908.836	17018
908.952	17003
909.068	16953
909.184	17052
909.3	17006
909.415	17003
909.531	16843
909.647	16744
909.762	16805
909.878	16675
909.993	16615
910.108	16554
910.224	16592
910.339	16649
910.454	16497
910.57	16535
910.685	16436
910.8	16580
910.915	16622
911.03	16478
911.145	16284
911.259	16337
911.374	16325
911.489	16265
911.604	16192
911.718	16040
911.833	15945
911.947	16006
912.062	15804
912.176	16120
912.291	15895
912.405	15983
912.519	16093
912.633	16139
912.748	16169
912.862	15937
912.976	15945
913.09	15667
913.204	15819
913.318	15774
913.431	15968
913.545	15884
913.659	15941
913.772	15804
913.886	15755
914	15549
914.113	15641
914.226	15705
914.34	15656
914.453	15576
914.566	15629
914.68	15458
914.793	15500
914.906	15325
915.019	15256
915.132	15119
915.245	15207
915.358	15344
915.47	15363
915.583	15226
915.696	15237
915.809	15298
915.921	15264
916.034	15154
916.146	15157
916.259	15123
916.371	15306
916.483	15260
916.595	15077
916.708	15119
916.82	15047
916.932	14998
917.044	15066
917.156	14948
917.268	14861
917.38	14963
917.491	14807
917.603	14849
917.715	14956
917.826	15024
917.938	14864
918.049	14735
918.161	14902
918.272	14994
918.384	14994
918.495	14883
918.606	14663
918.717	14583
918.828	14663
918.939	14636
919.05	14571
919.161	14613
919.272	14457
919.383	14507
919.494	14750
919.604	14864
919.715	14602
919.826	14579
919.936	14659
920.047	14743
920.157	14552
920.267	14762
920.378	14617
920.488	14541
920.598	14842
920.708	14971
920.818	14651
920.928	14762
921.038	14933
921.148	14823
921.258	14670
921.368	14492
921.477	14423
921.587	14393
921.697	14134
921.806	14351
921.916	14244
922.025	14020
922.134	13955
922.244	14001
922.353	14062
922.462	13894
922.571	13795
922.68	13689
922.789	13647
922.898	13696
923.007	13601
923.116	13609
923.224	13651
923.333	13651
923.442	13533
923.55	13544
923.659	13525
923.767	13491
923.876	13480
923.984	13525
924.092	13335
924.201	13354
924.309	13415
924.417	13362
924.525	13343
924.633	13320
924.741	14218
924.849	13110
924.956	13221
925.064	13095
925.172	12996
925.279	12947
925.387	13069
925.494	13076
925.602	13209
925.709	13080
925.816	12985
925.924	13019
926.031	13122
926.138	12871
926.245	13084
926.352	12920
926.459	13069
926.566	13095
926.673	12962
926.779	12840
926.886	12875
926.993	12654
927.099	12601
927.206	12620
927.312	12631
927.419	12711
927.525	12665
927.631	12684
927.737	12544
927.843	12479
927.95	12399
928.056	12448
928.162	12414
928.267	12475
928.373	13084
928.479	12475
928.585	12224
928.69	12429
928.796	12429
928.901	12266
929.007	12110
929.112	12292
929.218	12277
929.323	12239
929.428	12136
929.533	12304
929.638	12125
929.743	12079
929.848	12243
929.953	12171
930.058	12026
930.163	11946
930.267	11809
930.372	11969
930.477	11840
930.581	12098
930.685	11908
930.79	11710
930.894	11805
930.998	11653
931.103	11870
931.207	11482
931.311	11440
931.415	11318
931.519	11124
931.623	11201
