Data from test_V78500241_2526.txt Node
Date: Fri Mar 25 15:59:17 CST 2022
User: usil
Spectrometer: V785-0024
Trigger mode: 0
Integration Time (sec): 4.000000E-1
Scans to average: 1
Nonlinearity correction enabled: false
Boxcar width: 0
Storing dark spectrum: false
XAxis mode: Wavelengths
Number of Pixels in Spectrum: 1024
>>>>>Begin Spectral Data<<<<<
801.071	28843
801.214	28736
801.356	28523
801.499	28379
801.641	28295
801.783	28169
801.926	28246
802.068	28261
802.211	28272
802.353	28150
802.496	28093
802.638	28002
802.78	27869
802.923	27838
803.065	27797
803.208	28002
803.35	27922
803.492	28177
803.635	28280
803.777	28116
803.919	28238
804.061	28500
804.204	28253
804.346	28188
804.488	28010
804.63	28257
804.773	28238
804.915	28246
805.057	28299
805.199	28219
805.341	28276
805.483	28363
805.626	28451
805.768	28272
805.91	28280
806.052	28390
806.194	28291
806.336	28485
806.478	28428
806.62	28409
806.762	28550
806.904	28683
807.046	28691
807.188	28915
807.33	28888
807.472	28725
807.614	28839
807.756	28877
807.898	28660
808.04	28641
808.182	28694
808.324	28816
808.465	28843
808.607	29037
808.749	29014
808.891	29155
809.033	29261
809.174	29117
809.316	29094
809.458	29098
809.6	29071
809.741	29273
809.883	29250
810.025	29334
810.166	29250
810.308	29471
810.45	29322
810.591	29315
810.733	29193
810.875	29147
811.016	29010
811.158	29117
811.299	29098
811.441	29296
811.582	29128
811.724	28995
811.865	29056
812.007	29128
812.148	29132
812.29	29162
812.431	29235
812.573	29383
812.714	29524
812.855	29592
812.997	29760
813.138	29752
813.279	29707
813.421	29638
813.562	29410
813.703	29520
813.845	29368
813.986	28904
814.127	28991
814.268	28790
814.41	28797
814.551	28752
814.692	28858
814.833	28592
814.974	28706
815.115	28748
815.256	28702
815.397	28801
815.539	28634
815.68	28687
815.821	28466
815.962	28755
816.103	28668
816.244	28565
816.385	28356
816.526	28459
816.666	28246
816.807	28101
816.948	28303
817.089	28329
817.23	28124
817.371	28238
817.512	28131
817.653	28090
817.793	28032
817.934	28032
818.075	28074
818.216	28105
818.356	27960
818.497	28162
818.638	27808
818.778	27766
818.919	27823
819.06	27941
819.2	27953
819.341	28280
819.481	28192
819.622	28253
819.762	28626
819.903	28310
820.043	28424
820.184	28158
820.324	28322
820.465	28344
820.605	28226
820.746	28215
820.886	28135
821.026	28265
821.167	28200
821.307	28169
821.447	28040
821.588	27994
821.728	28025
821.868	27766
822.008	27637
822.149	27606
822.289	27747
822.429	27370
822.569	27260
822.709	27260
822.849	27131
822.99	27123
823.13	27230
823.27	26994
823.41	27036
823.55	26830
823.69	27001
823.83	26944
823.97	26891
824.11	26743
824.25	26655
824.389	26644
824.529	26861
824.669	26746
824.809	26902
824.949	26864
825.089	26838
825.228	26838
825.368	26609
825.508	26716
825.648	26648
825.787	26796
825.927	26823
826.067	26606
826.206	26686
826.346	26785
826.485	26743
826.625	26549
826.765	26693
826.904	26701
827.044	26450
827.183	26476
827.323	26355
827.462	26377
827.601	26267
827.741	26320
827.88	26377
828.02	26256
828.159	26282
828.298	26412
828.437	26419
828.577	26221
828.716	26351
828.855	26237
828.994	26081
829.134	26035
829.273	26081
829.412	26035
829.551	25966
829.69	26081
829.829	26073
829.968	26142
830.107	26088
830.246	26020
830.385	26027
830.524	25982
830.663	25890
830.802	25753
830.941	25738
831.08	25708
831.219	25837
831.357	25765
831.496	25868
831.635	25597
831.774	25586
831.913	25468
832.051	25422
832.19	25324
832.329	25479
832.467	25392
832.606	25278
832.744	25228
832.883	25316
833.022	25320
833.16	25289
833.299	25415
833.437	25335
833.576	25441
833.714	25392
833.852	25514
833.991	25483
834.129	25358
834.267	25384
834.406	25324
834.544	25453
834.682	25499
834.821	25403
834.959	25441
835.097	25168
835.235	25407
835.373	25411
835.511	25320
835.65	25236
835.788	25206
835.926	25091
836.064	25065
836.202	25000
836.34	25183
836.478	25240
836.615	25194
836.753	25187
836.891	25304
837.029	25263
837.167	25175
837.305	25088
837.443	24897
837.58	25046
837.718	25103
837.856	25118
837.993	24875
838.131	25118
838.269	24935
838.406	24939
838.544	24665
838.681	24684
838.819	24741
838.956	24578
839.094	24593
839.231	24540
839.369	24681
839.506	24981
839.643	24589
839.781	24589
839.918	24544
840.055	24578
840.193	24289
840.33	24319
840.467	24433
840.604	24475
840.742	24745
840.879	24334
841.016	24327
841.153	24311
841.29	24361
841.427	24460
841.564	24369
841.701	24429
841.838	24448
841.975	24232
842.112	24311
842.249	24300
842.385	24091
842.522	24414
842.659	24270
842.796	24159
842.933	24201
843.069	24133
843.206	24167
843.343	24289
843.479	24129
843.616	24220
843.752	23889
843.889	23931
844.025	24091
844.162	23889
844.298	23931
844.435	23999
844.571	23901
844.708	24003
844.844	24098
844.98	24117
845.117	23897
845.253	23946
845.389	23813
845.525	23775
845.661	23783
845.798	23638
845.934	23722
846.07	23627
846.206	23733
846.342	23760
846.478	23615
846.614	23269
846.75	23239
846.886	23379
847.022	23315
847.158	23356
847.294	23444
847.429	23414
847.565	23440
847.701	23562
847.837	23197
847.972	23136
848.108	23170
848.244	23292
848.379	22984
848.515	22873
848.65	22892
848.786	23022
848.921	23037
849.057	23079
849.192	23052
849.328	22946
849.463	23071
849.598	22877
849.734	22900
849.869	22809
850.004	22759
850.14	22740
850.275	22744
850.41	22706
850.545	22675
850.68	22588
850.815	22752
850.95	22710
851.085	22984
851.22	22812
851.355	22733
851.49	22668
851.625	22706
851.76	22805
851.895	22618
852.03	22573
852.165	22710
852.299	22820
852.434	22866
852.569	22767
852.703	22656
852.838	22733
852.973	22843
853.107	22892
853.242	22550
853.376	22637
853.511	22447
853.645	22542
853.78	22599
853.914	22618
854.048	22523
854.183	22485
854.317	22660
854.451	22729
854.585	22550
854.72	22618
854.854	22687
854.988	22550
855.122	22546
855.256	22443
855.39	22421
855.524	22569
855.658	22546
855.792	22656
855.926	22622
856.06	22653
856.194	22672
856.327	22474
856.461	22466
856.595	22428
856.729	22523
856.862	22668
856.996	22630
857.13	22599
857.263	22607
857.397	22736
857.53	22580
857.664	22557
857.797	22592
857.931	22637
858.064	22618
858.197	22523
858.331	22379
858.464	22436
858.597	22481
858.731	22542
858.864	22580
858.997	22390
859.13	22649
859.263	22455
859.396	22535
859.529	22443
859.662	22584
859.795	22519
859.928	22607
860.061	22679
860.194	22805
860.327	22607
860.46	22573
860.592	22733
860.725	22698
860.858	22759
860.99	22713
861.123	22436
861.256	22481
861.388	22634
861.521	23200
861.653	22394
861.786	22303
861.918	22356
862.05	22512
862.183	22394
862.315	22500
862.447	22626
862.58	22493
862.712	22261
862.844	22173
862.976	22394
863.108	22287
863.24	22748
863.372	22139
863.504	22295
863.636	22143
863.768	22234
863.9	22192
864.032	22303
864.164	22181
864.296	22310
864.428	22356
864.559	22428
864.691	22344
864.823	22249
864.954	22246
865.086	22253
865.217	22188
865.349	22135
865.48	22135
865.612	22135
865.743	22211
865.875	22029
866.006	22082
866.137	22246
866.269	22036
866.4	22086
866.531	22090
866.662	21975
866.793	22120
866.924	22116
867.055	22006
867.186	22025
867.317	22029
867.448	21918
867.579	22013
867.71	22002
867.841	21964
867.972	22120
868.103	22070
868.233	22010
868.364	22017
868.495	22261
868.625	22299
868.756	22367
868.886	22238
869.017	22318
869.147	22421
869.278	22462
869.408	22329
869.539	22303
869.669	22246
869.799	22462
869.929	22356
870.06	22306
870.19	22634
870.32	22630
870.45	22538
870.58	22687
870.71	22847
870.84	22755
870.97	22816
871.1	22744
871.23	22805
871.36	22873
871.489	22782
871.619	22900
871.749	22881
871.879	22980
872.008	22934
872.138	22995
872.267	22816
872.397	22942
872.526	22672
872.656	22752
872.785	22797
872.915	22984
873.044	22987
873.173	22858
873.303	22938
873.432	22934
873.561	23029
873.69	22972
873.819	22930
873.948	23041
874.077	22987
874.206	22736
874.335	22881
874.464	23014
874.593	23204
874.722	23109
874.851	23200
874.979	23231
875.108	23166
875.237	23067
875.365	23003
875.494	23109
875.623	23128
875.751	23048
875.88	23231
876.008	23197
876.136	23334
876.265	23463
876.393	23703
876.521	23501
876.65	23547
876.778	23505
876.906	23547
877.034	23570
877.162	23444
877.29	23547
877.418	23516
877.546	23558
877.674	23349
877.802	23463
877.93	23459
878.058	23486
878.185	23341
878.313	23398
878.441	23482
878.568	23261
878.696	23356
878.824	23562
878.951	23585
879.079	23680
879.206	23866
879.333	23573
879.461	23474
879.588	23611
879.715	23745
879.842	23634
879.97	23627
880.097	23315
880.224	23318
880.351	23391
880.478	23398
880.605	23185
880.732	23162
880.859	23436
880.986	23212
881.112	23223
881.239	23105
881.366	23151
881.493	23022
881.619	22919
881.746	22915
881.872	22866
881.999	22839
882.125	22786
882.252	22896
882.378	22786
882.505	22774
882.631	22710
882.757	22542
882.883	22565
883.01	22596
883.136	22394
883.262	22348
883.388	22409
883.514	22481
883.64	22550
883.766	22447
883.892	22318
884.018	22329
884.143	22504
884.269	22557
884.395	22276
884.52	22192
884.646	22185
884.772	22120
884.897	22162
885.023	22295
885.148	22284
885.274	22249
885.399	22272
885.524	22128
885.65	22162
885.775	22158
885.9	22112
886.025	22219
886.15	22196
886.275	22200
886.4	22090
886.525	22150
886.65	22070
886.775	22059
886.9	22272
887.025	22451
887.149	22147
887.274	21991
887.399	21835
887.523	21922
887.648	21937
887.773	21918
887.897	22067
888.021	22006
888.146	21926
888.27	21934
888.395	21941
888.519	21892
888.643	21991
888.767	21987
888.891	21892
889.015	21641
889.139	21800
889.263	21576
889.387	21831
889.511	22029
889.635	21797
889.759	21663
889.883	21785
890.006	21778
890.13	21762
890.254	21599
890.377	21595
890.501	21591
890.624	21466
890.748	21515
890.871	21298
890.995	21226
891.118	21222
891.241	21218
891.364	21233
891.488	21393
891.611	21313
891.734	21161
891.857	21306
891.98	21256
892.103	21218
892.226	21275
892.349	21214
892.471	21157
892.594	21077
892.717	21161
892.839	21161
892.962	21313
893.085	21233
893.207	21112
893.33	21051
893.452	20994
893.575	21184
893.697	21157
893.819	21252
893.941	21317
894.064	21332
894.186	21058
894.308	20933
894.43	21230
894.552	21279
894.674	21176
894.796	21077
894.918	21176
895.04	21055
895.161	21268
895.283	21211
895.405	21009
895.526	21192
895.648	21169
895.769	21199
895.891	21214
896.012	21249
896.134	21154
896.255	21100
896.376	21009
896.498	21203
896.619	21081
896.74	21138
896.861	21256
896.982	21454
897.103	21557
897.224	21428
897.345	21252
897.466	21211
897.587	21306
897.708	21374
897.828	21393
897.949	21264
898.07	21070
898.19	21203
898.311	21405
898.431	21306
898.552	21382
898.672	21363
898.792	21389
898.913	21401
899.033	21252
899.153	21165
899.273	21028
899.393	21089
899.513	20914
899.633	21085
899.753	21001
899.873	20994
899.993	20979
900.113	21017
900.232	21043
900.352	20948
900.472	20883
900.591	20739
900.711	20788
900.83	20712
900.95	20941
901.069	20727
901.189	20800
901.308	20511
901.427	20427
901.546	20461
901.665	20355
901.784	20412
901.904	20278
902.023	20161
902.141	19963
902.26	20001
902.379	20050
902.498	19944
902.617	19830
902.735	19944
902.854	19670
902.973	19795
903.091	19643
903.21	19415
903.328	19495
903.446	19438
903.565	19297
903.683	19400
903.801	19282
903.919	19202
904.038	19297
904.156	19129
904.274	19213
904.392	19057
904.51	19118
904.627	19206
904.745	19160
904.863	19122
904.981	18916
905.098	18776
905.216	18844
905.334	18783
905.451	18726
905.569	18722
905.686	18878
905.803	18760
905.921	18490
906.038	18669
906.155	18490
906.272	18395
906.389	18536
906.506	18330
906.623	18407
906.74	18327
906.857	18174
906.974	18235
907.091	18388
907.208	18365
907.324	18243
907.441	18205
907.557	18060
907.674	18041
907.79	17942
907.907	17946
908.023	18068
908.139	18049
908.256	18015
908.372	17954
908.488	17939
908.604	17752
908.72	17630
908.836	17821
908.952	17665
909.068	17752
909.184	17771
909.3	17718
909.415	17729
909.531	17687
909.647	17402
909.762	17433
909.878	17406
909.993	17391
910.108	17360
910.224	17296
910.339	17444
910.454	17250
910.57	17235
910.685	17124
910.8	17425
910.915	17261
911.03	17254
911.145	17033
911.259	17014
911.374	17022
911.489	16923
911.604	16885
911.718	16797
911.833	16691
911.947	16698
912.062	16580
912.176	16748
912.291	16850
912.405	16702
912.519	16858
912.633	16953
912.748	16869
912.862	16721
912.976	16538
913.09	16474
913.204	16489
913.318	16466
913.431	16546
913.545	16622
913.659	16592
913.772	16504
913.886	16405
914	16356
914.113	16356
914.226	16462
914.34	16379
914.453	16169
914.566	16280
914.68	16318
914.793	16147
914.906	16032
915.019	15983
915.132	15960
915.245	15895
915.358	15888
915.47	15888
915.583	15892
915.696	15892
915.809	16063
915.921	16002
916.034	15819
916.146	15854
916.259	15819
916.371	15873
916.483	15835
916.595	15694
916.708	15644
916.82	15755
916.932	15671
917.044	15751
917.156	15698
917.268	15515
917.38	15545
917.491	15458
917.603	15637
917.715	15591
917.826	15675
917.938	15519
918.049	15435
918.161	15439
918.272	15576
918.384	15603
918.495	15386
918.606	15302
918.717	15279
918.828	15344
918.939	15386
919.05	15184
919.161	15233
919.272	15028
919.383	15123
919.494	15233
919.604	15367
919.715	15272
919.826	15089
919.936	15233
920.047	15230
920.157	15184
920.267	15351
920.378	15203
920.488	15176
920.598	15317
920.708	15477
920.818	15310
920.928	15386
921.038	15542
921.148	15454
921.258	15112
921.368	14948
921.477	15036
921.587	14895
921.697	14777
921.806	14914
921.916	14739
922.025	14674
922.134	14663
922.244	14503
922.353	14758
922.462	14434
922.571	14385
922.68	14233
922.789	14286
922.898	14214
923.007	14123
923.116	14286
923.224	14138
923.333	14180
923.442	14092
923.55	14027
923.659	14039
923.767	14119
923.876	13986
923.984	14050
924.092	13932
924.201	14027
924.309	13879
924.417	13936
924.525	13887
924.633	13841
924.741	14640
924.849	13636
924.956	13734
925.064	13605
925.172	13480
925.279	13510
925.387	13597
925.494	13556
925.602	13685
925.709	13658
925.816	13540
925.924	13502
926.031	13594
926.138	13582
926.245	13521
926.352	13449
926.459	13533
926.566	13601
926.673	13502
926.779	13335
926.886	13422
926.993	13194
927.099	13175
927.206	13149
927.312	13061
927.419	13164
927.525	13118
927.631	13225
927.737	13080
927.843	13031
927.95	12894
928.056	12981
928.162	12977
928.267	12909
928.373	13571
928.479	13084
928.585	12662
928.69	12871
928.796	12932
928.901	12871
929.007	12700
929.112	12768
929.218	12814
929.323	12760
929.428	12662
929.533	12776
929.638	12623
929.743	12650
929.848	12688
929.953	12578
930.058	12498
930.163	12311
930.267	12395
930.372	12437
930.477	12251
930.581	12555
930.685	12300
930.79	12167
930.894	12273
930.998	12197
931.103	12270
931.207	11927
931.311	11821
931.415	11798
931.519	11646
931.623	11596
