Data from test_V78500241_703.txt Node
Date: Fri Mar 25 15:46:40 CST 2022
User: usil
Spectrometer: V785-0024
Trigger mode: 0
Integration Time (sec): 4.000000E-1
Scans to average: 1
Nonlinearity correction enabled: false
Boxcar width: 0
Storing dark spectrum: false
XAxis mode: Wavelengths
Number of Pixels in Spectrum: 1024
>>>>>Begin Spectral Data<<<<<
801.071	27861
801.214	27686
801.356	27701
801.499	27481
801.641	27332
801.783	27393
801.926	27599
802.068	27397
802.211	27500
802.353	27382
802.496	27138
802.638	27135
802.78	27066
802.923	27127
803.065	27096
803.208	27108
803.35	27058
803.492	27199
803.635	27325
803.777	27176
803.919	27313
804.061	27808
804.204	27332
804.346	27287
804.488	27180
804.63	27370
804.773	27116
804.915	27386
805.057	27485
805.199	27176
805.341	27241
805.483	27564
805.626	27447
805.768	27321
805.91	27370
806.052	27386
806.194	27370
806.336	27587
806.478	27526
806.62	27485
806.762	27629
806.904	27698
807.046	27945
807.188	27918
807.33	27884
807.472	27854
807.614	27785
807.756	27736
807.898	27698
808.04	27583
808.182	27618
808.324	27557
808.465	27857
808.607	27846
808.749	28112
808.891	28181
809.033	28223
809.174	28143
809.316	28059
809.458	28063
809.6	28120
809.741	28257
809.883	28219
810.025	28459
810.166	28451
810.308	28371
810.45	28234
810.591	28367
810.733	28010
810.875	28063
811.016	28051
811.158	28112
811.299	28139
811.441	28280
811.582	28337
811.724	28059
811.865	28109
812.007	28124
812.148	28166
812.29	28154
812.431	28204
812.573	28436
812.714	28489
812.855	28672
812.997	28679
813.138	28938
813.279	28656
813.421	28672
813.562	28641
813.703	28398
813.845	28253
813.986	28093
814.127	27926
814.268	27755
814.41	27812
814.551	27892
814.692	27888
814.833	27686
814.974	27812
815.115	27759
815.256	27709
815.397	27663
815.539	27618
815.68	27576
815.821	27412
815.962	27610
816.103	27633
816.244	27408
816.385	27275
816.526	27264
816.666	27161
816.807	27131
816.948	27028
817.089	27218
817.23	27062
817.371	27089
817.512	27017
817.653	27112
817.793	27180
817.934	27096
818.075	27127
818.216	27142
818.356	27043
818.497	26998
818.638	26834
818.778	26868
818.919	26777
819.06	26921
819.2	27017
819.341	26937
819.481	27142
819.622	27192
819.762	27378
819.903	27412
820.043	27329
820.184	27211
820.324	27237
820.465	27260
820.605	27245
820.746	27138
820.886	27157
821.026	27100
821.167	27131
821.307	27203
821.447	27249
821.588	26979
821.728	26792
821.868	26720
822.008	26640
822.149	26651
822.289	26682
822.429	26377
822.569	26210
822.709	26191
822.849	25993
822.99	26145
823.13	26008
823.27	25989
823.41	25909
823.55	25852
823.69	25856
823.83	25837
823.97	25791
824.11	25708
824.25	25674
824.389	25708
824.529	25776
824.669	25753
824.809	25712
824.949	25765
825.089	25746
825.228	25788
825.368	25502
825.508	25658
825.648	25537
825.787	25556
825.927	25761
826.067	25594
826.206	25677
826.346	25696
826.485	25666
826.625	25552
826.765	25578
826.904	25624
827.044	25354
827.183	25362
827.323	25377
827.462	25331
827.601	25304
827.741	25225
827.88	25327
828.02	25179
828.159	25221
828.298	25324
828.437	25449
828.577	25293
828.716	25502
828.855	25206
828.994	25065
829.134	24943
829.273	25110
829.412	25046
829.551	24989
829.69	25061
829.829	24909
829.968	25129
830.107	25004
830.246	25015
830.385	24901
830.524	24817
830.663	24696
830.802	24665
830.941	24741
831.08	24483
831.219	24646
831.357	24494
831.496	24882
831.635	24525
831.774	24601
831.913	24570
832.051	24426
832.19	24570
832.329	24407
832.467	24437
832.606	24190
832.744	24338
832.883	24247
833.022	24201
833.16	24281
833.299	24197
833.437	24194
833.576	24330
833.714	24376
833.852	24353
833.991	24357
834.129	24441
834.267	24350
834.406	24353
834.544	24384
834.682	24376
834.821	24262
834.959	24517
835.097	24213
835.235	24292
835.373	24209
835.511	24399
835.65	24216
835.788	24167
835.926	24026
836.064	23927
836.202	23965
836.34	24228
836.478	24296
836.615	24285
836.753	24129
836.891	24277
837.029	24152
837.167	24205
837.305	24087
837.443	24072
837.58	24102
837.718	23984
837.856	24091
837.993	24057
838.131	24041
838.269	23882
838.406	23988
838.544	23813
838.681	23775
838.819	23676
838.956	23551
839.094	23429
839.231	23486
839.369	23455
839.506	23859
839.643	23684
839.781	23455
839.918	23436
840.055	23478
840.193	23421
840.33	23330
840.467	23459
840.604	23383
840.742	23627
840.879	23212
841.016	23288
841.153	23402
841.29	23528
841.427	23277
841.564	23337
841.701	23296
841.838	23463
841.975	23246
842.112	23307
842.249	23303
842.385	23166
842.522	23406
842.659	23132
842.796	23105
842.933	23033
843.069	23090
843.206	23067
843.343	23235
843.479	23185
843.616	22987
843.752	22919
843.889	22869
844.025	23014
844.162	22809
844.298	23037
844.435	22927
844.571	22930
844.708	23041
844.844	23018
844.98	23071
845.117	22984
845.253	22892
845.389	22790
845.525	22828
845.661	22858
845.798	22668
845.934	22725
846.07	22481
846.206	22649
846.342	22774
846.478	22542
846.614	22413
846.75	22196
846.886	22325
847.022	22402
847.158	22348
847.294	22417
847.429	22478
847.565	22314
847.701	22656
847.837	22196
847.972	21953
848.108	22192
848.244	22097
848.379	22200
848.515	21956
848.65	21926
848.786	22059
848.921	21998
849.057	22139
849.192	21972
849.328	21983
849.463	21926
849.598	21911
849.734	21934
849.869	21816
850.004	21770
850.14	21785
850.275	21747
850.41	21660
850.545	21629
850.68	21618
850.815	21823
850.95	21698
851.085	21895
851.22	21884
851.355	21686
851.49	21580
851.625	21690
851.76	21774
851.895	21667
852.03	21652
852.165	21724
852.299	21675
852.434	21827
852.569	21819
852.703	21800
852.838	21884
852.973	21937
853.107	21880
853.242	21606
853.376	21606
853.511	21450
853.645	21652
853.78	21610
853.914	21523
854.048	21515
854.183	21523
854.317	21553
854.451	21804
854.585	21614
854.72	21545
854.854	21534
854.988	21519
855.122	21534
855.256	21435
855.39	21595
855.524	21652
855.658	21504
855.792	21595
855.926	21606
856.06	21587
856.194	21580
856.327	21553
856.461	21466
856.595	21462
856.729	21435
856.862	21682
856.996	21511
857.13	21675
857.263	21694
857.397	21663
857.53	21583
857.664	21614
857.797	21644
857.931	21652
858.064	21526
858.197	21675
858.331	21507
858.464	21564
858.597	21431
858.731	21564
858.864	21625
858.997	21553
859.13	21583
859.263	21576
859.396	21538
859.529	21416
859.662	21507
859.795	21583
859.928	21557
860.061	21770
860.194	21762
860.327	21591
860.46	21564
860.592	21637
860.725	21682
860.858	21656
860.99	21557
861.123	21477
861.256	21485
861.388	21523
861.521	22090
861.653	21405
861.786	21268
861.918	21469
862.05	21473
862.183	21450
862.315	21473
862.447	21591
862.58	21382
862.712	21447
862.844	21203
862.976	21386
863.108	21378
863.24	21751
863.372	21176
863.504	21317
863.636	21279
863.768	21351
863.9	21226
864.032	21188
864.164	21245
864.296	21374
864.428	21325
864.559	21351
864.691	21351
864.823	21310
864.954	21203
865.086	21241
865.217	21340
865.349	21169
865.48	21199
865.612	21104
865.743	21310
865.875	21173
866.006	21180
866.137	21135
866.269	21108
866.4	21211
866.531	21173
866.662	21123
866.793	21093
866.924	21161
867.055	21161
867.186	21089
867.317	21036
867.448	20944
867.579	21058
867.71	21013
867.841	20937
867.972	21074
868.103	21100
868.233	21135
868.364	21066
868.495	21184
868.625	21207
868.756	21401
868.886	21161
869.017	21382
869.147	21431
869.278	21435
869.408	21405
869.539	21283
869.669	21348
869.799	21294
869.929	21462
870.06	21405
870.19	21587
870.32	21641
870.45	21713
870.58	21720
870.71	21857
870.84	21865
870.97	21778
871.1	21812
871.23	21838
871.36	21895
871.489	21819
871.619	21926
871.749	21953
871.879	21876
872.008	22124
872.138	21880
872.267	21823
872.397	21831
872.526	21755
872.656	21789
872.785	21793
872.915	21998
873.044	22021
873.173	22055
873.303	22021
873.432	22040
873.561	21934
873.69	21922
873.819	21808
873.948	22101
874.077	22093
874.206	21861
874.335	21922
874.464	22093
874.593	22207
874.722	22112
874.851	22158
874.979	22188
875.108	22185
875.237	22124
875.365	22139
875.494	22150
875.623	22223
875.751	22226
875.88	22131
876.008	22246
876.136	22337
876.265	22634
876.393	22660
876.521	22672
876.65	22641
876.778	22584
876.906	22519
877.034	22481
877.162	22577
877.29	22497
877.418	22542
877.546	22542
877.674	22512
877.802	22527
877.93	22504
878.058	22531
878.185	22424
878.313	22512
878.441	22516
878.568	22325
878.696	22405
878.824	22459
878.951	22508
879.079	22573
879.206	22858
879.333	22748
879.461	22603
879.588	22584
879.715	22759
879.842	22839
879.97	22474
880.097	22310
880.224	22371
880.351	22455
880.478	22398
880.605	22261
880.732	22367
880.859	22519
880.986	22261
881.112	22287
881.239	22200
881.366	22029
881.493	21953
881.619	21911
881.746	21857
881.872	21956
881.999	21911
882.125	21816
882.252	21861
882.378	21892
882.505	21930
882.631	21884
882.757	21625
882.883	21701
883.01	21614
883.136	21568
883.262	21405
883.388	21412
883.514	21542
883.64	21690
883.766	21545
883.892	21317
884.018	21450
884.143	21549
884.269	21583
884.395	21287
884.52	21184
884.646	21218
884.772	21226
884.897	21074
885.023	21226
885.148	21233
885.274	21511
885.399	21370
885.524	21233
885.65	21272
885.775	21275
885.9	21211
886.025	21428
886.15	21325
886.275	21272
886.4	21222
886.525	21249
886.65	21298
886.775	21176
886.9	21359
887.025	21450
887.149	21321
887.274	21127
887.399	20914
887.523	20948
887.648	20982
887.773	20864
887.897	21043
888.021	21104
888.146	21036
888.27	21005
888.395	21017
888.519	21051
888.643	21081
888.767	21112
888.891	20823
889.015	20807
889.139	20853
889.263	20800
889.387	20857
889.511	20941
889.635	20853
889.759	20838
889.883	20792
890.006	20800
890.13	20785
890.254	20811
890.377	20746
890.501	20678
890.624	20537
890.748	20648
890.871	20473
890.995	20324
891.118	20191
891.241	20313
891.364	20400
891.488	20415
891.611	20358
891.734	20301
891.857	20271
891.98	20320
892.103	20396
892.226	20404
892.349	20362
892.471	20134
892.594	20259
892.717	20336
892.839	20328
892.962	20358
893.085	20374
893.207	20244
893.33	20172
893.452	20263
893.575	20389
893.697	20298
893.819	20396
893.941	20473
894.064	20355
894.186	20259
894.308	20153
894.43	20377
894.552	20328
894.674	20393
894.796	20138
894.918	20149
895.04	20164
895.161	20328
895.283	20309
895.405	20142
895.526	20309
895.648	20214
895.769	20149
895.891	20313
896.012	20469
896.134	20290
896.255	20237
896.376	20267
896.498	20256
896.619	20248
896.74	20294
896.861	20400
896.982	20644
897.103	20716
897.224	20659
897.345	20541
897.466	20412
897.587	20495
897.708	20583
897.828	20461
897.949	20427
898.07	20309
898.19	20431
898.311	20571
898.431	20492
898.552	20587
898.672	20587
898.792	20579
898.913	20438
899.033	20347
899.153	20259
899.273	20100
899.393	20320
899.513	20351
899.633	20259
899.753	20263
899.873	20161
899.993	20286
900.113	20168
900.232	20328
900.352	20202
900.472	20176
900.591	19894
900.711	19986
900.83	20016
900.95	20084
901.069	20065
901.189	19944
901.308	19830
901.427	19521
901.546	19537
901.665	19548
901.784	19548
901.904	19529
902.023	19362
902.141	19316
902.26	19050
902.379	19145
902.498	19126
902.617	19091
902.735	19084
902.854	19076
902.973	18977
903.091	18833
903.21	18669
903.328	18776
903.446	18715
903.565	18631
903.683	18635
903.801	18509
903.919	18597
904.038	18410
904.156	18300
904.274	18433
904.392	18365
904.51	18277
904.627	18327
904.745	18456
904.863	18353
904.981	18155
905.098	18098
905.216	18026
905.334	18091
905.451	18076
905.569	18030
905.686	18015
905.803	18114
905.921	17859
906.038	17828
906.155	17847
906.272	17592
906.389	17737
906.506	17547
906.623	17520
906.74	17570
906.857	17376
906.974	17463
907.091	17524
907.208	17676
907.324	17543
907.441	17497
907.557	17315
907.674	17284
907.79	17117
907.907	17239
908.023	17303
908.139	17307
908.256	17315
908.372	17204
908.488	17235
908.604	17025
908.72	17041
908.836	16968
908.952	16938
909.068	16942
909.184	17105
909.3	16927
909.415	16877
909.531	16961
909.647	16694
909.762	16744
909.878	16717
909.993	16694
910.108	16744
910.224	16710
910.339	16675
910.454	16455
910.57	16542
910.685	16470
910.8	16660
910.915	16645
911.03	16527
911.145	16284
911.259	16314
911.374	16265
911.489	16276
911.604	16154
911.718	16002
911.833	16128
911.947	16158
912.062	15884
912.176	16078
912.291	16059
912.405	16055
912.519	16234
912.633	16379
912.748	16124
912.862	16032
912.976	15876
913.09	15838
913.204	15835
913.318	15949
913.431	16006
913.545	15911
913.659	15945
913.772	15823
913.886	15762
914	15667
914.113	15804
914.226	15838
914.34	15675
914.453	15545
914.566	15827
914.68	15587
914.793	15549
914.906	15374
915.019	15325
915.132	15214
915.245	15287
915.358	15252
915.47	15374
915.583	15245
915.696	15351
915.809	15329
915.921	15431
916.034	15252
916.146	15256
916.259	15161
916.371	15272
916.483	15169
916.595	15081
916.708	15112
916.82	15104
916.932	15112
917.044	15097
917.156	15093
917.268	14982
917.38	14941
917.491	14819
917.603	14914
917.715	14929
917.826	15047
917.938	14914
918.049	14785
918.161	14872
918.272	15036
918.384	15009
918.495	14819
918.606	14651
918.717	14556
918.828	14762
918.939	14701
919.05	14602
919.161	14632
919.272	14434
919.383	14571
919.494	14629
919.604	14975
919.715	14644
919.826	14575
919.936	14636
920.047	14708
920.157	14659
920.267	14826
920.378	14583
920.488	14655
920.598	14735
920.708	14956
920.818	14826
920.928	14845
921.038	14899
921.148	14868
921.258	14560
921.368	14514
921.477	14469
921.587	14339
921.697	14248
921.806	14355
921.916	14309
922.025	14107
922.134	14088
922.244	13940
922.353	14065
922.462	13875
922.571	13833
922.68	13647
922.789	13651
922.898	13742
923.007	13655
923.116	13693
923.224	13681
923.333	13601
923.442	13457
923.55	13445
923.659	13506
923.767	13559
923.876	13472
923.984	13487
924.092	13381
924.201	13468
924.309	13339
924.417	13521
924.525	13335
924.633	13335
924.741	14286
924.849	13137
924.956	13190
925.064	13091
925.172	12996
925.279	13057
925.387	13221
925.494	13053
925.602	13228
925.709	13149
925.816	13069
925.924	13000
926.031	13137
926.138	12909
926.245	13099
926.352	12867
926.459	12993
926.566	12970
926.673	12871
926.779	12825
926.886	12840
926.993	12696
927.099	12677
927.206	12566
927.312	12563
927.419	12627
927.525	12506
927.631	12593
927.737	12540
927.843	12502
927.95	12361
928.056	12498
928.162	12483
928.267	12403
928.373	13156
928.479	12555
928.585	12243
928.69	12410
928.796	12509
928.901	12311
929.007	12163
929.112	12376
929.218	12209
929.323	12197
929.428	12197
929.533	12216
929.638	12182
929.743	12144
929.848	12155
929.953	12148
930.058	11920
930.163	11889
930.267	11851
930.372	11939
930.477	11805
930.581	12060
930.685	11923
930.79	11733
930.894	11737
930.998	11752
931.103	11863
931.207	11528
931.311	11425
931.415	11269
931.519	11128
931.623	11155
