Data from test_V78500241_832.txt Node
Date: Fri Mar 25 15:47:33 CST 2022
User: usil
Spectrometer: V785-0024
Trigger mode: 0
Integration Time (sec): 4.000000E-1
Scans to average: 1
Nonlinearity correction enabled: false
Boxcar width: 0
Storing dark spectrum: false
XAxis mode: Wavelengths
Number of Pixels in Spectrum: 1024
>>>>>Begin Spectral Data<<<<<
801.071	26906
801.214	26788
801.356	26651
801.499	26404
801.641	26294
801.783	26317
801.926	26465
802.068	26275
802.211	26309
802.353	26122
802.496	26096
802.638	25997
802.78	25944
802.923	25887
803.065	25932
803.208	25890
803.35	26103
803.492	26050
803.635	26191
803.777	26054
803.919	26050
804.061	26434
804.204	26164
804.346	26157
804.488	25963
804.63	26153
804.773	25978
804.915	26180
805.057	26229
805.199	26096
805.341	26263
805.483	26168
805.626	26305
805.768	26027
805.91	26229
806.052	26210
806.194	26172
806.336	26396
806.478	26263
806.62	26294
806.762	26259
806.904	26640
807.046	26754
807.188	26541
807.33	26526
807.472	26697
807.614	26522
807.756	26453
807.898	26488
808.04	26484
808.182	26404
808.324	26575
808.465	26488
808.607	26720
808.749	26765
808.891	26861
809.033	26986
809.174	26963
809.316	26629
809.458	26788
809.6	26636
809.741	27001
809.883	26971
810.025	27077
810.166	27051
810.308	27142
810.45	27146
810.591	27077
810.733	26773
810.875	26819
811.016	26640
811.158	26720
811.299	26883
811.441	26861
811.582	27036
811.724	26864
811.865	26872
812.007	26724
812.148	26921
812.29	26781
812.431	27058
812.573	27135
812.714	27157
812.855	27279
812.997	27424
813.138	27557
813.279	27427
813.421	27389
813.562	27359
813.703	27192
813.845	27070
813.986	26632
814.127	26522
814.268	26549
814.41	26492
814.551	26389
814.692	26518
814.833	26362
814.974	26556
815.115	26492
815.256	26256
815.397	26130
815.539	26336
815.68	26168
815.821	26107
815.962	26343
816.103	26275
816.244	26225
816.385	26062
816.526	25963
816.666	25765
816.807	25849
816.948	25772
817.089	25799
817.23	25753
817.371	25833
817.512	25780
817.653	25761
817.793	25658
817.934	25643
818.075	25689
818.216	25693
818.356	25677
818.497	25567
818.638	25369
818.778	25468
818.919	25457
819.06	25521
819.2	25552
819.341	25693
819.481	25662
819.622	25818
819.762	26001
819.903	25890
820.043	25879
820.184	25795
820.324	25753
820.465	25822
820.605	25936
820.746	25887
820.886	25632
821.026	25837
821.167	25708
821.307	25913
821.447	25727
821.588	25495
821.728	25358
821.868	25400
822.008	25232
822.149	25236
822.289	25156
822.429	25012
822.569	24905
822.709	24802
822.849	24661
822.99	24684
823.13	24642
823.27	24563
823.41	24471
823.55	24285
823.69	24589
823.83	24467
823.97	24445
824.11	24414
824.25	24232
824.389	24361
824.529	24311
824.669	24201
824.809	24505
824.949	24505
825.089	24376
825.228	24403
825.368	24049
825.508	24228
825.648	24087
825.787	24239
825.927	24296
826.067	24247
826.206	24106
826.346	24190
826.485	24155
826.625	24136
826.765	24323
826.904	24186
827.044	24007
827.183	23969
827.323	23821
827.462	24015
827.601	23821
827.741	23802
827.88	23832
828.02	23680
828.159	23920
828.298	23859
828.437	24030
828.577	23802
828.716	23927
828.855	23836
828.994	23573
829.134	23551
829.273	23703
829.412	23611
829.551	23471
829.69	23589
829.829	23570
829.968	23790
830.107	23600
830.246	23600
830.385	23425
830.524	23448
830.663	23337
830.802	23322
830.941	23273
831.08	23143
831.219	23269
831.357	23288
831.496	23410
831.635	23075
831.774	23113
831.913	22968
832.051	22972
832.19	22991
832.329	22934
832.467	22938
832.606	22790
832.744	22691
832.883	22866
833.022	22812
833.16	22934
833.299	22980
833.437	22763
833.576	22946
833.714	22919
833.852	22927
833.991	22881
834.129	23060
834.267	22904
834.406	22949
834.544	22934
834.682	22889
834.821	22831
834.959	22946
835.097	22797
835.235	22919
835.373	22790
835.511	22858
835.65	22713
835.788	22812
835.926	22550
836.064	22478
836.202	22557
836.34	22828
836.478	22835
836.615	22698
836.753	22679
836.891	22919
837.029	22786
837.167	22656
837.305	22809
837.443	22698
837.58	22618
837.718	22759
837.856	22634
837.993	22474
838.131	22672
838.269	22466
838.406	22561
838.544	22310
838.681	22325
838.819	22257
838.956	22070
839.094	21991
839.231	22044
839.369	22215
839.506	22508
839.643	22310
839.781	22086
839.918	21979
840.055	22093
840.193	22013
840.33	21991
840.467	22067
840.604	22040
840.742	22158
840.879	21759
841.016	21972
841.153	21998
841.29	22101
841.427	21949
841.564	22150
841.701	21953
841.838	21899
841.975	21945
842.112	21899
842.249	21823
842.385	21785
842.522	21991
842.659	21884
842.796	21774
842.933	21759
843.069	21644
843.206	21766
843.343	21774
843.479	21816
843.616	21656
843.752	21405
843.889	21580
844.025	21743
844.162	21591
844.298	21576
844.435	21530
844.571	21583
844.708	21534
844.844	21713
844.98	21717
845.117	21675
845.253	21477
845.389	21447
845.525	21469
845.661	21538
845.798	21321
845.934	21279
846.07	21207
846.206	21370
846.342	21332
846.478	21344
846.614	21123
846.75	21085
846.886	21024
847.022	21070
847.158	21085
847.294	21032
847.429	21017
847.565	21062
847.701	21283
847.837	20731
847.972	20667
848.108	20785
848.244	20861
848.379	20648
848.515	20636
848.65	20514
848.786	20621
848.921	20705
849.057	20701
849.192	20678
849.328	20655
849.463	20743
849.598	20575
849.734	20594
849.869	20545
850.004	20480
850.14	20412
850.275	20336
850.41	20210
850.545	20259
850.68	20290
850.815	20499
850.95	20336
851.085	20469
851.22	20530
851.355	20313
851.49	20252
851.625	20336
851.76	20256
851.895	20423
852.03	20294
852.165	20355
852.299	20465
852.434	20552
852.569	20400
852.703	20351
852.838	20480
852.973	20465
853.107	20473
853.242	20347
853.376	20298
853.511	20161
853.645	20347
853.78	20412
853.914	20294
854.048	20195
854.183	20172
854.317	20301
854.451	20355
854.585	20172
854.72	20062
854.854	20328
854.988	20096
855.122	20218
855.256	20107
855.39	20130
855.524	20233
855.658	20278
855.792	20187
855.926	20206
856.06	20278
856.194	20248
856.327	20142
856.461	20153
856.595	20065
856.729	20248
856.862	20320
856.996	20202
857.13	20290
857.263	20347
857.397	20317
857.53	20180
857.664	20233
857.797	20191
857.931	20259
858.064	20084
858.197	20298
858.331	20130
858.464	20092
858.597	20054
858.731	20183
858.864	20096
858.997	20164
859.13	20206
859.263	20210
859.396	20301
859.529	20122
859.662	20218
859.795	20149
859.928	20191
860.061	20374
860.194	20480
860.327	20339
860.46	20187
860.592	20256
860.725	20389
860.858	20366
860.99	20248
861.123	20122
861.256	20100
861.388	20221
861.521	20765
861.653	20180
861.786	19947
861.918	19967
862.05	20077
862.183	20134
862.315	20092
862.447	20202
862.58	20183
862.712	19883
862.844	19841
862.976	20084
863.108	19963
863.24	20446
863.372	19887
863.504	19868
863.636	20027
863.768	19974
863.9	19906
864.032	19811
864.164	19860
864.296	19959
864.428	20035
864.559	20084
864.691	20024
864.823	19989
864.954	19822
865.086	19852
865.217	19879
865.349	19807
865.48	19871
865.612	19883
865.743	19982
865.875	19833
866.006	19852
866.137	19788
866.269	19868
866.4	19887
866.531	19738
866.662	19655
866.793	19887
866.924	19723
867.055	19772
867.186	19727
867.317	19723
867.448	19727
867.579	19795
867.71	19746
867.841	19727
867.972	19856
868.103	19769
868.233	19776
868.364	19750
868.495	19944
868.625	20050
868.756	20103
868.886	19860
869.017	19963
869.147	20054
869.278	20081
869.408	20020
869.539	20039
869.669	20176
869.799	20142
869.929	20157
870.06	20073
870.19	20355
870.32	20259
870.45	20400
870.58	20492
870.71	20488
870.84	20655
870.97	20438
871.1	20469
871.23	20575
871.36	20663
871.489	20545
871.619	20518
871.749	20701
871.879	20682
872.008	20815
872.138	20564
872.267	20632
872.397	20450
872.526	20480
872.656	20351
872.785	20461
872.915	20663
873.044	20590
873.173	20663
873.303	20758
873.432	20609
873.561	20682
873.69	20659
873.819	20663
873.948	20689
874.077	20731
874.206	20651
874.335	20636
874.464	20929
874.593	21047
874.722	20872
874.851	20834
874.979	20971
875.108	20963
875.237	20781
875.365	20864
875.494	20925
875.623	20937
875.751	20857
875.88	20902
876.008	20994
876.136	21108
876.265	21252
876.393	21405
876.521	21428
876.65	21374
876.778	21306
876.906	21272
877.034	21332
877.162	21252
877.29	21237
877.418	21256
877.546	21222
877.674	21336
877.802	21264
877.93	21211
878.058	21112
878.185	21058
878.313	21119
878.441	21302
878.568	21104
878.696	21180
878.824	21245
878.951	21378
879.079	21412
879.206	21625
879.333	21443
879.461	21367
879.588	21363
879.715	21450
879.842	21526
879.97	21256
880.097	20986
880.224	21020
880.351	21123
880.478	21062
880.605	20990
880.732	21005
880.859	21355
880.986	21032
881.112	21184
881.239	20872
881.366	20724
881.493	20743
881.619	20670
881.746	20743
881.872	20667
881.999	20667
882.125	20602
882.252	20708
882.378	20731
882.505	20796
882.631	20507
882.757	20389
882.883	20469
883.01	20355
883.136	20305
883.262	20294
883.388	20202
883.514	20419
883.64	20412
883.766	20355
883.892	20187
884.018	20305
884.143	20343
884.269	20469
884.395	20115
884.52	20043
884.646	19940
884.772	19986
884.897	19967
885.023	20115
885.148	20176
885.274	20138
885.399	20031
885.524	20001
885.65	20084
885.775	20069
885.9	20035
886.025	20157
886.15	20020
886.275	20046
886.4	20001
886.525	20043
886.65	19898
886.775	19967
886.9	20172
887.025	20259
887.149	19955
887.274	19788
887.399	19803
887.523	19791
887.648	19761
887.773	19693
887.897	19879
888.021	19925
888.146	19753
888.27	19864
888.395	19909
888.519	19932
888.643	19769
888.767	19864
888.891	19696
889.015	19674
889.139	19590
889.263	19643
889.387	19833
889.511	19776
889.635	19704
889.759	19571
889.883	19578
890.006	19658
890.13	19811
890.254	19533
890.377	19571
890.501	19384
890.624	19483
890.748	19426
890.871	19266
890.995	19316
891.118	19244
891.241	19114
891.364	19194
891.488	19263
891.611	19278
891.734	19190
891.857	19270
891.98	19213
892.103	19225
892.226	19187
892.349	19164
892.471	19065
892.594	19145
892.717	19148
892.839	19080
892.962	19164
893.085	19110
893.207	19034
893.33	19031
893.452	19034
893.575	19251
893.697	19164
893.819	19251
893.941	19198
894.064	19263
894.186	19069
894.308	19103
894.43	19274
894.552	19278
894.674	19270
894.796	19114
894.918	19088
895.04	19137
895.161	19145
895.283	19209
895.405	19168
895.526	19133
895.648	19198
895.769	19168
895.891	19213
896.012	19179
896.134	19122
896.255	19228
896.376	19164
896.498	19164
896.619	19160
896.74	19091
896.861	19293
896.982	19586
897.103	19693
897.224	19422
897.345	19400
897.466	19381
897.587	19457
897.708	19495
897.828	19365
897.949	19285
898.07	19240
898.19	19221
898.311	19438
898.431	19320
898.552	19499
898.672	19533
898.792	19449
898.913	19495
899.033	19259
899.153	19183
899.273	18996
899.393	19145
899.513	19129
899.633	19156
899.753	19107
899.873	19194
899.993	19202
900.113	19076
900.232	19107
900.352	19129
900.472	19156
900.591	18875
900.711	19057
900.83	19034
900.95	19072
901.069	18996
901.189	18814
901.308	18639
901.427	18483
901.546	18521
901.665	18597
901.784	18566
901.904	18437
902.023	18384
902.141	18114
902.26	18205
902.379	18186
902.498	18057
902.617	17992
902.735	18072
902.854	18015
902.973	18041
903.091	17813
903.21	17703
903.328	17668
903.446	17680
903.565	17672
903.683	17604
903.801	17440
903.919	17573
904.038	17653
904.156	17402
904.274	17406
904.392	17376
904.51	17242
904.627	17318
904.745	17231
904.863	17383
904.981	17105
905.098	16949
905.216	17025
905.334	17014
905.451	17037
905.569	17018
905.686	17098
905.803	17052
905.921	16839
906.038	17064
906.155	16790
906.272	16771
906.389	16713
906.506	16538
906.623	16546
906.74	16527
906.857	16531
906.974	16402
907.091	16641
907.208	16656
907.324	16588
907.441	16493
907.557	16234
907.674	16287
907.79	16234
907.907	16257
908.023	16348
908.139	16257
908.256	16147
908.372	16154
908.488	16097
908.604	15960
908.72	15903
908.836	16006
908.952	15998
909.068	16013
909.184	16204
909.3	15975
909.415	16025
909.531	16006
909.647	15823
909.762	15747
909.878	15709
909.993	15698
910.108	15736
910.224	15713
910.339	15739
910.454	15633
910.57	15534
910.685	15431
910.8	15694
910.915	15701
911.03	15622
911.145	15488
911.259	15302
911.374	15408
911.489	15340
911.604	15226
911.718	14998
911.833	15116
911.947	14982
912.062	15009
912.176	15081
912.291	15222
912.405	15188
912.519	15268
912.633	15192
912.748	15119
912.862	14990
912.976	14937
913.09	14941
913.204	14857
913.318	14994
913.431	15001
913.545	14979
913.659	14956
913.772	14857
913.886	14750
914	14701
914.113	14826
914.226	14769
914.34	14800
914.453	14621
914.566	14769
914.68	14712
914.793	14579
914.906	14389
915.019	14404
915.132	14252
915.245	14332
915.358	14434
915.47	14351
915.583	14362
915.696	14362
915.809	14533
915.921	14511
916.034	14313
916.146	14199
916.259	14248
916.371	14317
916.483	14343
916.595	14199
916.708	14206
916.82	14157
916.932	14176
917.044	14161
917.156	14126
917.268	14134
917.38	14164
917.491	13974
917.603	14077
917.715	14046
917.826	14149
917.938	13967
918.049	13951
918.161	14027
918.272	14103
918.384	14024
918.495	14016
918.606	13932
918.717	13712
918.828	13928
918.939	13849
919.05	13761
919.161	13761
919.272	13651
919.383	13670
919.494	13944
919.604	14027
919.715	13826
919.826	13780
919.936	13830
920.047	13883
920.157	13841
920.267	14073
920.378	13791
920.488	13837
920.598	14031
920.708	14092
920.818	13860
920.928	13959
921.038	14081
921.148	14039
921.258	13807
921.368	13704
921.477	13715
921.587	13575
921.697	13388
921.806	13544
921.916	13457
922.025	13225
922.134	13129
922.244	13228
922.353	13228
922.462	13084
922.571	13080
922.68	12935
922.789	12890
922.898	12886
923.007	12848
923.116	12878
923.224	12856
923.333	12833
923.442	12757
923.55	12612
923.659	12764
923.767	12760
923.876	12597
923.984	12646
924.092	12509
924.201	12646
924.309	12745
924.417	12612
924.525	12555
924.633	12635
924.741	13464
924.849	12365
924.956	12452
925.064	12433
925.172	12289
925.279	12277
925.387	12323
925.494	12266
925.602	12448
925.709	12338
925.816	12296
925.924	12285
926.031	12300
926.138	12262
926.245	12319
926.352	12213
926.459	12292
926.566	12380
926.673	12213
926.779	12026
926.886	12121
926.993	12011
927.099	11904
927.206	11882
927.312	11882
927.419	11828
927.525	11897
927.631	11889
927.737	11783
927.843	11726
927.95	11649
928.056	11688
928.162	11794
928.267	11794
928.373	12342
928.479	11847
928.585	11573
928.69	11741
928.796	11729
928.901	11638
929.007	11573
929.112	11608
929.218	11478
929.323	11471
929.428	11505
929.533	11573
929.638	11383
929.743	11395
929.848	11512
929.953	11459
930.058	11307
930.163	11246
930.267	11193
930.372	11383
930.477	11208
930.581	11398
930.685	11204
930.79	11128
930.894	11086
930.998	11037
931.103	11174
931.207	10843
931.311	10736
931.415	10717
931.519	10485
931.623	10481
