Data from test_V78500241_1254.txt Node
Date: Fri Mar 25 15:50:29 CST 2022
User: usil
Spectrometer: V785-0024
Trigger mode: 0
Integration Time (sec): 4.000000E-1
Scans to average: 1
Nonlinearity correction enabled: false
Boxcar width: 0
Storing dark spectrum: false
XAxis mode: Wavelengths
Number of Pixels in Spectrum: 1024
>>>>>Begin Spectral Data<<<<<
801.071	28713
801.214	28843
801.356	28565
801.499	28352
801.641	28284
801.783	28474
801.926	28531
802.068	28295
802.211	28325
802.353	28188
802.496	28002
802.638	27991
802.78	27926
802.923	27991
803.065	27895
803.208	27914
803.35	28025
803.492	28200
803.635	28192
803.777	28032
803.919	28234
804.061	28596
804.204	28504
804.346	28303
804.488	28238
804.63	28276
804.773	28169
804.915	28329
805.057	28531
805.199	28329
805.341	28363
805.483	28573
805.626	28405
805.768	28390
805.91	28519
806.052	28447
806.194	28337
806.336	28565
806.478	28443
806.62	28611
806.762	28588
806.904	28702
807.046	28976
807.188	29041
807.33	28908
807.472	29052
807.614	28854
807.756	28961
807.898	28786
808.04	28793
808.182	28771
808.324	28816
808.465	28896
808.607	28965
808.749	29136
808.891	29212
809.033	29181
809.174	29204
809.316	29288
809.458	29140
809.6	29090
809.741	29311
809.883	29349
810.025	29497
810.166	29512
810.308	29372
810.45	29455
810.591	29406
810.733	29181
810.875	29178
811.016	29064
811.158	29075
811.299	29220
811.441	29398
811.582	29406
811.724	29204
811.865	29197
812.007	29113
812.148	29113
812.29	29204
812.431	29356
812.573	29589
812.714	29493
812.855	29882
812.997	29771
813.138	29939
813.279	29821
813.421	29627
813.562	29573
813.703	29440
813.845	29330
813.986	29121
814.127	29006
814.268	28965
814.41	28934
814.551	28995
814.692	28991
814.833	28862
814.974	28809
815.115	28961
815.256	28797
815.397	28873
815.539	28911
815.68	28824
815.821	28618
815.962	28816
816.103	28687
816.244	28615
816.385	28519
816.526	28371
816.666	28367
816.807	28223
816.948	28356
817.089	28322
817.23	28207
817.371	28207
817.512	28276
817.653	28204
817.793	28082
817.934	28314
818.075	28287
818.216	28234
818.356	28238
818.497	28082
818.638	27987
818.778	28055
818.919	27945
819.06	28040
819.2	28032
819.341	28261
819.481	28173
819.622	28398
819.762	28542
819.903	28424
820.043	28451
820.184	28257
820.324	28367
820.465	28181
820.605	28382
820.746	28466
820.886	28211
821.026	28348
821.167	28261
821.307	28325
821.447	28185
821.588	28154
821.728	28044
821.868	27956
822.008	27732
822.149	27789
822.289	27572
822.429	27348
822.569	27275
822.709	27439
822.849	27264
822.99	27272
823.13	27188
823.27	27230
823.41	27005
823.55	27028
823.69	27043
823.83	27047
823.97	27047
824.11	26838
824.25	26963
824.389	26975
824.529	26914
824.669	26788
824.809	26998
824.949	27032
825.089	26902
825.228	26921
825.368	26727
825.508	26705
825.648	26861
825.787	26765
825.927	26857
826.067	26750
826.206	26830
826.346	26849
826.485	26697
826.625	26689
826.765	26910
826.904	26792
827.044	26545
827.183	26431
827.323	26526
827.462	26621
827.601	26415
827.741	26530
827.88	26541
828.02	26507
828.159	26507
828.298	26332
828.437	26587
828.577	26434
828.716	26492
828.855	26518
828.994	26221
829.134	26252
829.273	26119
829.412	26195
829.551	26039
829.69	26069
829.829	26119
829.968	26355
830.107	26062
830.246	26221
830.385	26005
830.524	26103
830.663	26065
830.802	25852
830.941	25887
831.08	25731
831.219	25974
831.357	25875
831.496	26016
831.635	25780
831.774	25689
831.913	25689
832.051	25605
832.19	25597
832.329	25518
832.467	25464
832.606	25457
832.744	25304
832.883	25331
833.022	25449
833.16	25263
833.299	25479
833.437	25476
833.576	25525
833.714	25430
833.852	25616
833.991	25632
834.129	25533
834.267	25582
834.406	25396
834.544	25495
834.682	25525
834.821	25464
834.959	25666
835.097	25495
835.235	25556
835.373	25476
835.511	25457
835.65	25327
835.788	25350
835.926	25171
836.064	25213
836.202	25213
836.34	25270
836.478	25350
836.615	25202
836.753	25270
836.891	25457
837.029	25228
837.167	25304
837.305	25160
837.443	25217
837.58	25148
837.718	25095
837.856	25053
837.993	25057
838.131	24886
838.269	24966
838.406	25084
838.544	24951
838.681	24897
838.819	24688
838.956	24642
839.094	24631
839.231	24639
839.369	24726
839.506	24909
839.643	24863
839.781	24616
839.918	24623
840.055	24635
840.193	24547
840.33	24498
840.467	24589
840.604	24608
840.742	24878
840.879	24228
841.016	24380
841.153	24346
841.29	24612
841.427	24585
841.564	24464
841.701	24502
841.838	24585
841.975	24311
842.112	24296
842.249	24277
842.385	24338
842.522	24448
842.659	24270
842.796	24315
842.933	24311
843.069	24178
843.206	24270
843.343	24209
843.479	24281
843.616	24194
843.752	24121
843.889	24079
844.025	24129
844.162	24114
844.298	24095
844.435	24026
844.571	24045
844.708	24030
844.844	24224
844.98	24174
845.117	24224
845.253	24011
845.389	23893
845.525	23996
845.661	23832
845.798	23817
845.934	23737
846.07	23691
846.206	23687
846.342	23836
846.478	23684
846.614	23535
846.75	23448
846.886	23379
847.022	23615
847.158	23676
847.294	23497
847.429	23551
847.565	23383
847.701	23676
847.837	23303
847.972	23204
848.108	23318
848.244	23216
848.379	23090
848.515	22984
848.65	23151
848.786	23113
848.921	23102
849.057	23185
849.192	23235
849.328	23006
849.463	22968
849.598	22942
849.734	22987
849.869	22896
850.004	22763
850.14	22866
850.275	22873
850.41	22873
850.545	22744
850.68	22812
850.815	22812
850.95	22702
851.085	23029
851.22	22999
851.355	22831
851.49	22900
851.625	22809
851.76	22930
851.895	22535
852.03	22774
852.165	22843
852.299	22873
852.434	22961
852.569	22885
852.703	22786
852.838	22919
852.973	22820
853.107	22972
853.242	22687
853.376	22592
853.511	22637
853.645	22596
853.78	22744
853.914	22675
854.048	22538
854.183	22550
854.317	22740
854.451	22850
854.585	22580
854.72	22554
854.854	22668
854.988	22584
855.122	22618
855.256	22577
855.39	22538
855.524	22622
855.658	22668
855.792	22645
855.926	22755
856.06	22645
856.194	22664
856.327	22603
856.461	22645
856.595	22622
856.729	22634
856.862	22615
856.996	22660
857.13	22691
857.263	22809
857.397	22683
857.53	22691
857.664	22744
857.797	22649
857.931	22801
858.064	22687
858.197	22862
858.331	22584
858.464	22527
858.597	22573
858.731	22512
858.864	22717
858.997	22641
859.13	22592
859.263	22664
859.396	22702
859.529	22668
859.662	22596
859.795	22599
859.928	22706
860.061	22736
860.194	22908
860.327	22664
860.46	22736
860.592	22782
860.725	22843
860.858	22843
860.99	22664
861.123	22645
861.256	22622
861.388	22660
861.521	23193
861.653	22561
861.786	22447
861.918	22523
862.05	22504
862.183	22592
862.315	22580
862.447	22615
862.58	22516
862.712	22379
862.844	22261
862.976	22470
863.108	22432
863.24	22782
863.372	22211
863.504	22409
863.636	22329
863.768	22455
863.9	22322
864.032	22344
864.164	22310
864.296	22371
864.428	22485
864.559	22371
864.691	22318
864.823	22417
864.954	22405
865.086	22363
865.217	22181
865.349	22143
865.48	22200
865.612	22238
865.743	22356
865.875	22226
866.006	22139
866.137	22238
866.269	22246
866.4	22158
866.531	22154
866.662	22131
866.793	22196
866.924	22097
867.055	22242
867.186	22223
867.317	22109
867.448	22010
867.579	22211
867.71	22051
867.841	22063
867.972	22086
868.103	22192
868.233	22154
868.364	22185
868.495	22280
868.625	22398
868.756	22436
868.886	22333
869.017	22348
869.147	22519
869.278	22516
869.408	22462
869.539	22432
869.669	22455
869.799	22531
869.929	22519
870.06	22538
870.19	22748
870.32	22702
870.45	22793
870.58	22740
870.71	22961
870.84	22915
870.97	22706
871.1	22892
871.23	22908
871.36	22999
871.489	22908
871.619	22892
871.749	22911
871.879	23090
872.008	23140
872.138	23025
872.267	22923
872.397	22843
872.526	22866
872.656	22755
872.785	22782
872.915	22965
873.044	23071
873.173	23037
873.303	23029
873.432	23025
873.561	23086
873.69	22911
873.819	23048
873.948	23022
874.077	23029
874.206	22782
874.335	23003
874.464	23109
874.593	23220
874.722	23231
874.851	23216
874.979	23204
875.108	23360
875.237	23193
875.365	23056
875.494	23060
875.623	23265
875.751	23079
875.88	23147
876.008	23296
876.136	23349
876.265	23566
876.393	23668
876.521	23649
876.65	23608
876.778	23676
876.906	23577
877.034	23490
877.162	23535
877.29	23573
877.418	23547
877.546	23558
877.674	23486
877.802	23512
877.93	23524
878.058	23520
878.185	23402
878.313	23410
878.441	23463
878.568	23421
878.696	23448
878.824	23646
878.951	23638
879.079	23657
879.206	23870
879.333	23661
879.461	23596
879.588	23691
879.715	23665
879.842	23843
879.97	23668
880.097	23372
880.224	23303
880.351	23417
880.478	23337
880.605	23254
880.732	23326
880.859	23589
880.986	23349
881.112	23383
881.239	23258
881.366	23052
881.493	22995
881.619	22835
881.746	22957
881.872	22934
881.999	22991
882.125	22828
882.252	22896
882.378	22790
882.505	22873
882.631	22675
882.757	22634
882.883	22649
883.01	22668
883.136	22603
883.262	22462
883.388	22382
883.514	22603
883.64	22542
883.766	22466
883.892	22455
884.018	22325
884.143	22424
884.269	22611
884.395	22284
884.52	22246
884.646	22249
884.772	22173
884.897	22188
885.023	22280
885.148	22303
885.274	22341
885.399	22333
885.524	22318
885.65	22223
885.775	22219
885.9	22162
886.025	22424
886.15	22352
886.275	22246
886.4	22063
886.525	22215
886.65	22162
886.775	22044
886.9	22325
887.025	22493
887.149	22086
887.274	22010
887.399	22093
887.523	22010
887.648	21979
887.773	21895
887.897	22078
888.021	22002
888.146	21854
888.27	22173
888.395	22101
888.519	21876
888.643	22078
888.767	21956
888.891	21808
889.015	21800
889.139	21964
889.263	21804
889.387	21873
889.511	21895
889.635	21975
889.759	21652
889.883	21667
890.006	21800
890.13	21808
890.254	21671
890.377	21698
890.501	21553
890.624	21462
890.748	21519
890.871	21428
890.995	21382
891.118	21165
891.241	21306
891.364	21226
891.488	21336
891.611	21249
891.734	21386
891.857	21412
891.98	21237
892.103	21310
892.226	21329
892.349	21378
892.471	21188
892.594	21222
892.717	21173
892.839	21108
892.962	21241
893.085	21344
893.207	21180
893.33	21176
893.452	21112
893.575	21169
893.697	21161
893.819	21199
893.941	21348
894.064	21306
894.186	21123
894.308	21017
894.43	21332
894.552	21321
894.674	21264
894.796	21116
894.918	21180
895.04	21062
895.161	21283
895.283	21222
895.405	21131
895.526	21157
895.648	21161
895.769	21256
895.891	21321
896.012	21249
896.134	21306
896.255	21154
896.376	21093
896.498	21310
896.619	21127
896.74	21157
896.861	21348
896.982	21443
897.103	21679
897.224	21500
897.345	21416
897.466	21294
897.587	21492
897.708	21526
897.828	21488
897.949	21321
898.07	21116
898.19	21336
898.311	21492
898.431	21428
898.552	21431
898.672	21519
898.792	21485
898.913	21469
899.033	21176
899.153	21249
899.273	21199
899.393	21245
899.513	21214
899.633	21127
899.753	21169
899.873	21055
899.993	21116
900.113	21089
900.232	20979
900.352	21043
900.472	21009
900.591	20948
900.711	20914
900.83	20883
900.95	21077
901.069	21017
901.189	20807
901.308	20503
901.427	20617
901.546	20461
901.665	20351
901.784	20434
901.904	20351
902.023	20221
902.141	19936
902.26	20054
902.379	20077
902.498	20008
902.617	19955
902.735	19944
902.854	19879
902.973	19936
903.091	19605
903.21	19643
903.328	19582
903.446	19563
903.565	19438
903.683	19369
903.801	19339
903.919	19415
904.038	19441
904.156	19228
904.274	19240
904.392	19129
904.51	19240
904.627	19133
904.745	19209
904.863	19255
904.981	19133
905.098	18844
905.216	18840
905.334	18981
905.451	18905
905.569	18749
905.686	18806
905.803	18760
905.921	18631
906.038	18623
906.155	18654
906.272	18635
906.389	18578
906.506	18391
906.623	18388
906.74	18346
906.857	18270
906.974	18281
907.091	18414
907.208	18563
907.324	18384
907.441	18270
907.557	18140
907.674	18083
907.79	17897
907.907	18087
908.023	18076
908.139	18163
908.256	17999
908.372	17969
908.488	17859
908.604	17817
908.72	17722
908.836	17737
908.952	17771
909.068	17760
909.184	18011
909.3	17779
909.415	17790
909.531	17794
909.647	17493
909.762	17505
909.878	17444
909.993	17535
910.108	17463
910.224	17303
910.339	17379
910.454	17208
910.57	17254
910.685	17315
910.8	17383
910.915	17398
911.03	17189
911.145	17200
911.259	17083
911.374	17204
911.489	17041
911.604	16835
911.718	16862
911.833	16809
911.947	16797
912.062	16717
912.176	16717
912.291	16767
912.405	16786
912.519	16953
912.633	16900
912.748	16850
912.862	16790
912.976	16649
913.09	16542
913.204	16523
913.318	16577
913.431	16664
913.545	16641
913.659	16694
913.772	16618
913.886	16478
914	16421
914.113	16459
914.226	16428
914.34	16523
914.453	16223
914.566	16432
914.68	16265
914.793	16306
914.906	16013
915.019	16006
915.132	15941
915.245	15880
915.358	15922
915.47	15991
915.583	15960
915.696	16002
915.809	16082
915.921	16055
916.034	15968
916.146	15918
916.259	15865
916.371	15884
916.483	15835
916.595	15732
916.708	15800
916.82	15835
916.932	15633
917.044	15671
917.156	15648
917.268	15591
917.38	15622
917.491	15549
917.603	15549
917.715	15709
917.826	15652
917.938	15542
918.049	15477
918.161	15492
918.272	15591
918.384	15717
918.495	15549
918.606	15348
918.717	15287
918.828	15412
918.939	15439
919.05	15298
919.161	15355
919.272	15146
919.383	15161
919.494	15412
919.604	15492
919.715	15363
919.826	15176
919.936	15310
920.047	15332
920.157	15302
920.267	15530
920.378	15317
920.488	15279
920.598	15416
920.708	15523
920.818	15370
920.928	15393
921.038	15629
921.148	15481
921.258	15230
921.368	15203
921.477	15009
921.587	15024
921.697	14891
921.806	14994
921.916	14861
922.025	14781
922.134	14651
922.244	14632
922.353	14629
922.462	14492
922.571	14434
922.68	14355
922.789	14218
922.898	14317
923.007	14210
923.116	14248
923.224	14305
923.333	14248
923.442	14073
923.55	14092
923.659	14115
923.767	14103
923.876	14081
923.984	14088
924.092	13997
924.201	13989
924.309	13837
924.417	13982
924.525	13932
924.633	13932
924.741	14853
924.849	13696
924.956	13894
925.064	13715
925.172	13647
925.279	13677
925.387	13696
925.494	13590
925.602	13864
925.709	13662
925.816	13559
925.924	13647
926.031	13719
926.138	13620
926.245	13548
926.352	13445
926.459	13643
926.566	13632
926.673	13419
926.779	13396
926.886	13396
926.993	13206
927.099	13179
927.206	13137
927.312	13118
927.419	13259
927.525	13129
927.631	13118
927.737	13160
927.843	12996
927.95	12939
928.056	13008
928.162	13053
928.267	13084
928.373	13636
928.479	13072
928.585	12833
928.69	12894
928.796	13050
928.901	12863
929.007	12757
929.112	12852
929.218	12791
929.323	12764
929.428	12688
929.533	12867
929.638	12589
929.743	12642
929.848	12711
929.953	12654
930.058	12639
930.163	12380
930.267	12361
930.372	12540
930.477	12220
930.581	12525
930.685	12410
930.79	12201
930.894	12292
930.998	12251
931.103	12403
931.207	11984
931.311	11870
931.415	11851
931.519	11668
931.623	11634
