Data from test_V78500241_2503.txt Node
Date: Fri Mar 25 15:59:08 CST 2022
User: usil
Spectrometer: V785-0024
Trigger mode: 0
Integration Time (sec): 4.000000E-1
Scans to average: 1
Nonlinearity correction enabled: false
Boxcar width: 0
Storing dark spectrum: false
XAxis mode: Wavelengths
Number of Pixels in Spectrum: 1024
>>>>>Begin Spectral Data<<<<<
801.071	28322
801.214	28356
801.356	28051
801.499	28013
801.641	27960
801.783	27808
801.926	27960
802.068	27892
802.211	27907
802.353	27751
802.496	27618
802.638	27660
802.78	27545
802.923	27450
803.065	27553
803.208	27500
803.35	27610
803.492	27762
803.635	27895
803.777	27778
803.919	27880
804.061	28169
804.204	27812
804.346	27857
804.488	27766
804.63	27846
804.773	27781
804.915	27994
805.057	27964
805.199	27778
805.341	27918
805.483	27979
805.626	27998
805.768	27873
805.91	28044
806.052	28154
806.194	27850
806.336	28200
806.478	27991
806.62	28093
806.762	28090
806.904	28204
807.046	28592
807.188	28424
807.33	28500
807.472	28497
807.614	28337
807.756	28500
807.898	28128
808.04	28185
808.182	28196
808.324	28367
808.465	28128
808.607	28489
808.749	28649
808.891	28797
809.033	28820
809.174	28763
809.316	28702
809.458	28801
809.6	28622
809.741	28930
809.883	28744
810.025	28896
810.166	28888
810.308	29044
810.45	28885
810.591	28873
810.733	28542
810.875	28634
811.016	28683
811.158	28622
811.299	28824
811.441	28767
811.582	28831
811.724	28630
811.865	28538
812.007	28771
812.148	28710
812.29	28713
812.431	28942
812.573	29022
812.714	29121
812.855	29231
812.997	29277
813.138	29467
813.279	29349
813.421	29277
813.562	29242
813.703	28980
813.845	28843
813.986	28748
814.127	28542
814.268	28421
814.41	28329
814.551	28348
814.692	28428
814.833	28238
814.974	28394
815.115	28516
815.256	28242
815.397	28280
815.539	28207
815.68	28162
815.821	28158
815.962	28310
816.103	28284
816.244	28109
816.385	27953
816.526	27983
816.666	27759
816.807	27682
816.948	27781
817.089	27778
817.23	27720
817.371	27633
817.512	27755
817.653	27511
817.793	27488
817.934	27641
818.075	27610
818.216	27629
818.356	27667
818.497	27583
818.638	27469
818.778	27416
818.919	27389
819.06	27416
819.2	27519
819.341	27610
819.481	27819
819.622	27804
819.762	27964
819.903	27907
820.043	27937
820.184	27941
820.324	27842
820.465	27865
820.605	27850
820.746	27732
820.886	27755
821.026	27835
821.167	27637
821.307	27922
821.447	27656
821.588	27610
821.728	27576
821.868	27344
822.008	27214
822.149	27222
822.289	27100
822.429	27028
822.569	26739
822.709	26902
822.849	26750
822.99	26712
823.13	26571
823.27	26636
823.41	26537
823.55	26408
823.69	26495
823.83	26533
823.97	26450
824.11	26248
824.25	26214
824.389	26290
824.529	26400
824.669	26210
824.809	26400
824.949	26446
825.089	26328
825.228	26396
825.368	26168
825.508	26119
825.648	26130
825.787	26286
825.927	26218
826.067	26305
826.206	26031
826.346	26301
826.485	26092
826.625	26267
826.765	26320
826.904	26046
827.044	25978
827.183	26016
827.323	25814
827.462	25909
827.601	25906
827.741	25776
827.88	25982
828.02	25841
828.159	25799
828.298	25822
828.437	25906
828.577	25795
828.716	25883
828.855	25742
828.994	25556
829.134	25552
829.273	25594
829.412	25495
829.551	25521
829.69	25738
829.829	25510
829.968	25696
830.107	25727
830.246	25616
830.385	25533
830.524	25457
830.663	25400
830.802	25350
830.941	25129
831.08	25114
831.219	25350
831.357	25331
831.496	25274
831.635	25247
831.774	25046
831.913	25069
832.051	25004
832.19	24992
832.329	25034
832.467	24863
832.606	24787
832.744	24901
832.883	24882
833.022	24776
833.16	24928
833.299	24840
833.437	24905
833.576	25015
833.714	24958
833.852	24897
833.991	25023
834.129	24962
834.267	25065
834.406	24973
834.544	24894
834.682	24882
834.821	24924
834.959	24932
835.097	24821
835.235	24958
835.373	24856
835.511	24992
835.65	24878
835.788	24791
835.926	24635
836.064	24536
836.202	24654
836.34	24745
836.478	25034
836.615	24817
836.753	24764
836.891	24741
837.029	24677
837.167	24616
837.305	24604
837.443	24517
837.58	24536
837.718	24601
837.856	24639
837.993	24475
838.131	24604
838.269	24494
838.406	24498
838.544	24437
838.681	24319
838.819	24133
838.956	24076
839.094	24194
839.231	24201
839.369	24262
839.506	24471
839.643	24357
839.781	24083
839.918	24057
840.055	24076
840.193	23992
840.33	23897
840.467	23931
840.604	24167
840.742	24186
840.879	23874
841.016	23840
841.153	23958
841.29	24091
841.427	23999
841.564	23889
841.701	23893
841.838	24022
841.975	23756
842.112	23916
842.249	23798
842.385	23752
842.522	23912
842.659	23695
842.796	23726
842.933	23661
843.069	23668
843.206	23608
843.343	23805
843.479	23695
843.616	23726
843.752	23566
843.889	23562
844.025	23592
844.162	23482
844.298	23524
844.435	23440
844.571	23410
844.708	23509
844.844	23611
844.98	23653
845.117	23703
845.253	23448
845.389	23292
845.525	23440
845.661	23261
845.798	23151
845.934	23284
846.07	23086
846.206	23292
846.342	23189
846.478	23113
846.614	23041
846.75	22835
846.886	22987
847.022	23056
847.158	23006
847.294	22927
847.429	22957
847.565	22930
847.701	23189
847.837	22580
847.972	22710
848.108	22725
848.244	22828
848.379	22535
848.515	22592
848.65	22546
848.786	22630
848.921	22500
849.057	22706
849.192	22584
849.328	22679
849.463	22531
849.598	22432
849.734	22394
849.869	22356
850.004	22280
850.14	22291
850.275	22276
850.41	22200
850.545	22333
850.68	22246
850.815	22344
850.95	22356
851.085	22402
851.22	22489
851.355	22249
851.49	22219
851.625	22158
851.76	22299
851.895	22226
852.03	22226
852.165	22211
852.299	22356
852.434	22371
852.569	22299
852.703	22261
852.838	22284
852.973	22375
853.107	22485
853.242	22230
853.376	22048
853.511	22074
853.645	22116
853.78	22162
853.914	22135
854.048	22097
854.183	22223
854.317	22162
854.451	22280
854.585	22162
854.72	22268
854.854	22188
854.988	22131
855.122	22188
855.256	21941
855.39	22036
855.524	22253
855.658	22139
855.792	22143
855.926	22139
856.06	22101
856.194	22158
856.327	22128
856.461	22006
856.595	22010
856.729	22124
856.862	22246
856.996	22105
857.13	22154
857.263	22207
857.397	22348
857.53	22124
857.664	22181
857.797	22097
857.931	22257
858.064	21934
858.197	22177
858.331	22059
858.464	22055
858.597	22017
858.731	22086
858.864	22105
858.997	22112
859.13	22188
859.263	22090
859.396	22211
859.529	22036
859.662	22063
859.795	22051
859.928	22082
860.061	22371
860.194	22367
860.327	22272
860.46	22074
860.592	22329
860.725	22276
860.858	22363
860.99	22150
861.123	21998
861.256	21998
861.388	22070
861.521	22908
861.653	22055
861.786	21846
861.918	21915
862.05	22013
862.183	22109
862.315	21991
862.447	22135
862.58	21964
862.712	21945
862.844	21873
862.976	21972
863.108	21918
863.24	22215
863.372	21827
863.504	21759
863.636	21918
863.768	21857
863.9	21857
864.032	21789
864.164	21926
864.296	21819
864.428	21899
864.559	21804
864.691	22010
864.823	21797
864.954	21865
865.086	21789
865.217	21762
865.349	21717
865.48	21751
865.612	21789
865.743	21819
865.875	21682
866.006	21675
866.137	21709
866.269	21690
866.4	21739
866.531	21686
866.662	21561
866.793	21747
866.924	21705
867.055	21694
867.186	21713
867.317	21686
867.448	21580
867.579	21625
867.71	21561
867.841	21599
867.972	21701
868.103	21663
868.233	21603
868.364	21717
868.495	21534
868.625	21899
868.756	22051
868.886	21926
869.017	21880
869.147	22048
869.278	21964
869.408	21880
869.539	21850
869.669	22059
869.799	21850
869.929	22048
870.06	22055
870.19	22219
870.32	22181
870.45	22257
870.58	22238
870.71	22390
870.84	22409
870.97	22223
871.1	22295
871.23	22443
871.36	22413
871.489	22398
871.619	22451
871.749	22478
871.879	22485
872.008	22596
872.138	22462
872.267	22493
872.397	22432
872.526	22314
872.656	22440
872.785	22314
872.915	22580
873.044	22592
873.173	22565
873.303	22519
873.432	22573
873.561	22611
873.69	22531
873.819	22588
873.948	22630
874.077	22443
874.206	22462
874.335	22485
874.464	22656
874.593	22767
874.722	22740
874.851	22778
874.979	22691
875.108	22763
875.237	22683
875.365	22774
875.494	22668
875.623	22717
875.751	22664
875.88	22717
876.008	22828
876.136	22748
876.265	23151
876.393	23220
876.521	23227
876.65	23174
876.778	23079
876.906	23003
877.034	23105
877.162	22938
877.29	22976
877.418	23128
877.546	23105
877.674	22991
877.802	23022
877.93	23033
878.058	23113
878.185	22957
878.313	23044
878.441	23003
878.568	22786
878.696	23162
878.824	22995
878.951	23003
879.079	23299
879.206	23265
879.333	23303
879.461	23185
879.588	23155
879.715	23181
879.842	23326
879.97	23037
880.097	22965
880.224	22873
880.351	22877
880.478	22858
880.605	22923
880.732	22877
880.859	23174
880.986	22828
881.112	22984
881.239	22759
881.366	22653
881.493	22637
881.619	22474
881.746	22519
881.872	22455
881.999	22417
882.125	22402
882.252	22436
882.378	22402
882.505	22421
882.631	22440
882.757	22135
882.883	22147
883.01	22169
883.136	21998
883.262	21991
883.388	22006
883.514	22124
883.64	22150
883.766	22086
883.892	21911
884.018	21994
884.143	22044
884.269	22063
884.395	21876
884.52	21728
884.646	21797
884.772	21713
884.897	21686
885.023	21720
885.148	21808
885.274	22010
885.399	21888
885.524	21701
885.65	21884
885.775	21823
885.9	21675
886.025	21895
886.15	21842
886.275	21682
886.4	21743
886.525	21812
886.65	21755
886.775	21686
886.9	21819
887.025	21991
887.149	21713
887.274	21557
887.399	21492
887.523	21492
887.648	21519
887.773	21435
887.897	21473
888.021	21424
888.146	21504
888.27	21679
888.395	21603
888.519	21542
888.643	21603
888.767	21606
888.891	21428
889.015	21340
889.139	21370
889.263	21355
889.387	21488
889.511	21515
889.635	21477
889.759	21275
889.883	21317
890.006	21325
890.13	21397
890.254	21283
890.377	21302
890.501	21058
890.624	21112
890.748	21176
890.871	20963
890.995	20914
891.118	20823
891.241	20876
891.364	20933
891.488	21032
891.611	20746
891.734	20876
891.857	20910
891.98	20868
892.103	20925
892.226	20864
892.349	20853
892.471	20606
892.594	20838
892.717	20765
892.839	20834
892.962	20861
893.085	20807
893.207	20773
893.33	20716
893.452	20754
893.575	20796
893.697	20800
893.819	20823
893.941	20891
894.064	20880
894.186	20804
894.308	20724
894.43	20849
894.552	20842
894.674	20735
894.796	20708
894.918	20735
895.04	20670
895.161	20883
895.283	20785
895.405	20697
895.526	20769
895.648	20785
895.769	20785
895.891	20811
896.012	20838
896.134	20735
896.255	20811
896.376	20655
896.498	20773
896.619	20861
896.74	20754
896.861	20743
896.982	21123
897.103	21230
897.224	21028
897.345	20929
897.466	20914
897.587	20982
897.708	21055
897.828	20963
897.949	20914
898.07	20781
898.19	20944
898.311	20975
898.431	20823
898.552	20842
898.672	21020
898.792	21005
898.913	20937
899.033	20941
899.153	20830
899.273	20617
899.393	20727
899.513	20792
899.633	20613
899.753	20705
899.873	20632
899.993	20758
900.113	20735
900.232	20632
900.352	20549
900.472	20473
900.591	20393
900.711	20564
900.83	20362
900.95	20564
901.069	20526
901.189	20450
901.308	20145
901.427	20069
901.546	20096
901.665	20172
901.784	20172
901.904	19925
902.023	19822
902.141	19628
902.26	19578
902.379	19635
902.498	19590
902.617	19567
902.735	19624
902.854	19559
902.973	19445
903.091	19206
903.21	19168
903.328	19198
903.446	19156
903.565	19091
903.683	18996
903.801	18932
903.919	19008
904.038	19031
904.156	18810
904.274	18840
904.392	18829
904.51	18711
904.627	18779
904.745	18856
904.863	18764
904.981	18703
905.098	18490
905.216	18486
905.334	18528
905.451	18467
905.569	18369
905.686	18460
905.803	18388
905.921	18197
906.038	18296
906.155	18300
906.272	18064
906.389	18057
906.506	17977
906.623	17878
906.74	17992
906.857	17916
906.974	17805
907.091	17984
907.208	18098
907.324	17954
907.441	17885
907.557	17836
907.674	17764
907.79	17611
907.907	17691
908.023	17729
908.139	17687
908.256	17684
908.372	17733
908.488	17558
908.604	17493
908.72	17482
908.836	17360
908.952	17398
909.068	17398
909.184	17596
909.3	17463
909.415	17356
909.531	17436
909.647	17121
909.762	17121
909.878	17109
909.993	17155
910.108	17102
910.224	17025
910.339	17075
910.454	17052
910.57	16862
910.685	16847
910.8	17037
910.915	17022
911.03	16965
911.145	16752
911.259	16683
911.374	16725
911.489	16630
911.604	16615
911.718	16485
911.833	16512
911.947	16344
912.062	16280
912.176	16390
912.291	16352
912.405	16348
912.519	16675
912.633	16546
912.748	16447
912.862	16356
912.976	16280
913.09	16139
913.204	16192
913.318	16329
913.431	16329
913.545	16367
913.659	16329
913.772	16188
913.886	16090
914	16051
914.113	16116
914.226	16093
914.34	16105
914.453	15895
914.566	16105
914.68	15911
914.793	15876
914.906	15679
915.019	15580
915.132	15595
915.245	15599
915.358	15625
915.47	15656
915.583	15595
915.696	15709
915.809	15819
915.921	15739
916.034	15553
916.146	15450
916.259	15469
916.371	15526
916.483	15580
916.595	15526
916.708	15477
916.82	15416
916.932	15458
917.044	15359
917.156	15359
917.268	15237
917.38	15264
917.491	15131
917.603	15351
917.715	15405
917.826	15294
917.938	15131
918.049	15089
918.161	15207
918.272	15435
918.384	15283
918.495	15161
918.606	14941
918.717	14971
918.828	14952
918.939	15077
919.05	14979
919.161	14967
919.272	14746
919.383	14861
919.494	15047
919.604	15180
919.715	15028
919.826	14845
919.936	14921
920.047	15024
920.157	14925
920.267	15104
920.378	15001
920.488	14861
920.598	15218
920.708	15176
920.818	15104
920.928	15066
921.038	15256
921.148	15112
921.258	14910
921.368	14777
921.477	14663
921.587	14590
921.697	14590
921.806	14670
921.916	14492
922.025	14332
922.134	14317
922.244	14290
922.353	14351
922.462	14225
922.571	14161
922.68	13944
922.789	14039
922.898	14001
923.007	14005
923.116	13963
923.224	13951
923.333	13864
923.442	13788
923.55	13731
923.659	13799
923.767	13852
923.876	13712
923.984	13784
924.092	13639
924.201	13651
924.309	13742
924.417	13719
924.525	13696
924.633	13685
924.741	14320
924.849	13354
924.956	13609
925.064	13384
925.172	13324
925.279	13285
925.387	13396
925.494	13358
925.602	13502
925.709	13396
925.816	13297
925.924	13240
926.031	13411
926.138	13415
926.245	13346
926.352	13209
926.459	13388
926.566	13324
926.673	13244
926.779	13053
926.886	13126
926.993	13008
927.099	12943
927.206	12844
927.312	12977
927.419	12859
927.525	12863
927.631	13015
927.737	12821
927.843	12677
927.95	12585
928.056	12696
928.162	12681
928.267	12730
928.373	13354
928.479	12776
928.585	12559
928.69	12700
928.796	12650
928.901	12642
929.007	12475
929.112	12608
929.218	12559
929.323	12498
929.428	12361
929.533	12597
929.638	12365
929.743	12365
929.848	12414
929.953	12445
930.058	12254
930.163	12155
930.267	12155
930.372	12213
930.477	12083
930.581	12304
930.685	12117
930.79	11897
930.894	12079
930.998	11931
931.103	12163
931.207	11684
931.311	11657
931.415	11581
931.519	11360
931.623	11364
