Data from test_V78500241_3607.txt Node
Date: Fri Mar 25 16:06:47 CST 2022
User: usil
Spectrometer: V785-0024
Trigger mode: 0
Integration Time (sec): 4.000000E-1
Scans to average: 1
Nonlinearity correction enabled: false
Boxcar width: 0
Storing dark spectrum: false
XAxis mode: Wavelengths
Number of Pixels in Spectrum: 1024
>>>>>Begin Spectral Data<<<<<
801.071	28767
801.214	28706
801.356	28535
801.499	28474
801.641	28409
801.783	28299
801.926	28519
802.068	28379
802.211	28246
802.353	28246
802.496	27994
802.638	28059
802.78	27918
802.923	27941
803.065	27930
803.208	27949
803.35	28029
803.492	28268
803.635	28299
803.777	28185
803.919	28394
804.061	28470
804.204	28348
804.346	28177
804.488	28188
804.63	28234
804.773	28242
804.915	28360
805.057	28421
805.199	28314
805.341	28360
805.483	28421
805.626	28440
805.768	28440
805.91	28341
806.052	28493
806.194	28421
806.336	28603
806.478	28440
806.62	28516
806.762	28550
806.904	28694
807.046	29018
807.188	28938
807.33	28862
807.472	28850
807.614	28820
807.756	28900
807.898	28748
808.04	28660
808.182	28622
808.324	28733
808.465	28824
808.607	28949
808.749	29128
808.891	29273
809.033	29212
809.174	29273
809.316	29159
809.458	29193
809.6	29064
809.741	29212
809.883	29258
810.025	29520
810.166	29474
810.308	29455
810.45	29402
810.591	29269
810.733	29140
810.875	29071
811.016	28949
811.158	29048
811.299	29318
811.441	29379
811.582	29284
811.724	29124
811.865	29220
812.007	29025
812.148	29208
812.29	29246
812.431	29417
812.573	29372
812.714	29657
812.855	29634
812.997	29710
813.138	29893
813.279	29634
813.421	29828
813.562	29478
813.703	29448
813.845	29311
813.986	29037
814.127	29037
814.268	28835
814.41	28835
814.551	28835
814.692	28949
814.833	28812
814.974	28862
815.115	28736
815.256	28713
815.397	28778
815.539	28748
815.68	28702
815.821	28641
815.962	28679
816.103	28569
816.244	28497
816.385	28523
816.526	28310
816.666	28314
816.807	28139
816.948	28147
817.089	28341
817.23	28105
817.371	28242
817.512	28173
817.653	28135
817.793	28101
817.934	28051
818.075	28223
818.216	28116
818.356	28109
818.497	28036
818.638	27937
818.778	27876
818.919	28063
819.06	28048
819.2	28112
819.341	28097
819.481	28223
819.622	28367
819.762	28554
819.903	28561
820.043	28348
820.184	28295
820.324	28519
820.465	28348
820.605	28352
820.746	28173
820.886	28253
821.026	28215
821.167	28257
821.307	28257
821.447	28211
821.588	28044
821.728	27975
821.868	27759
822.008	27576
822.149	27610
822.289	27553
822.429	27473
822.569	27370
822.709	27443
822.849	27085
822.99	27066
823.13	27222
823.27	27195
823.41	26998
823.55	26940
823.69	26918
823.83	26830
823.97	26960
824.11	26765
824.25	26792
824.389	26857
824.529	26906
824.669	26891
824.809	26830
824.949	26933
825.089	26883
825.228	26777
825.368	26678
825.508	26606
825.648	26731
825.787	26792
825.927	26765
826.067	26731
826.206	26640
826.346	26739
826.485	26758
826.625	26731
826.765	26758
826.904	26826
827.044	26400
827.183	26480
827.323	26522
827.462	26488
827.601	26499
827.741	26484
827.88	26484
828.02	26328
828.159	26393
828.298	26530
828.437	26549
828.577	26278
828.716	26522
828.855	26259
828.994	26138
829.134	26122
829.273	26149
829.412	26081
829.551	26001
829.69	26115
829.829	26164
829.968	26142
830.107	26149
830.246	26191
830.385	26077
830.524	25997
830.663	25959
830.802	25791
830.941	25689
831.08	25696
831.219	25780
831.357	25856
831.496	25871
831.635	25791
831.774	25708
831.913	25575
832.051	25521
832.19	25453
832.329	25441
832.467	25297
832.606	25453
832.744	25343
832.883	25354
833.022	25438
833.16	25453
833.299	25316
833.437	25449
833.576	25312
833.714	25567
833.852	25362
833.991	25449
834.129	25563
834.267	25483
834.406	25350
834.544	25540
834.682	25388
834.821	25548
834.959	25696
835.097	25373
835.235	25468
835.373	25460
835.511	25483
835.65	25278
835.788	25335
835.926	25168
836.064	25072
836.202	25164
836.34	25278
836.478	25225
836.615	25331
836.753	25365
836.891	25438
837.029	25285
837.167	25190
837.305	25202
837.443	25187
837.58	25213
837.718	25160
837.856	25255
837.993	24932
838.131	25069
838.269	24966
838.406	25084
838.544	24932
838.681	24722
838.819	24783
838.956	24570
839.094	24490
839.231	24566
839.369	24779
839.506	24989
839.643	24806
839.781	24578
839.918	24490
840.055	24517
840.193	24563
840.33	24414
840.467	24490
840.604	24467
840.742	24810
840.879	24289
841.016	24353
841.153	24220
841.29	24589
841.427	24494
841.564	24369
841.701	24486
841.838	24418
841.975	24346
842.112	24437
842.249	24289
842.385	24201
842.522	24441
842.659	24365
842.796	24167
842.933	24178
843.069	24110
843.206	24163
843.343	24182
843.479	24346
843.616	24300
843.752	23950
843.889	24030
844.025	24125
844.162	23958
844.298	24171
844.435	24022
844.571	23927
844.708	24098
844.844	24140
844.98	24159
845.117	24060
845.253	24007
845.389	23859
845.525	23965
845.661	23855
845.798	23752
845.934	23817
846.07	23676
846.206	23843
846.342	23847
846.478	23668
846.614	23501
846.75	23322
846.886	23452
847.022	23615
847.158	23570
847.294	23547
847.429	23391
847.565	23459
847.701	23573
847.837	23227
847.972	23140
848.108	23341
848.244	23143
848.379	23109
848.515	23018
848.65	23018
848.786	22934
848.921	23166
849.057	23102
849.192	23071
849.328	23044
849.463	23048
849.598	23083
849.734	22938
849.869	22896
850.004	22790
850.14	22683
850.275	22877
850.41	22740
850.545	22660
850.68	22847
850.815	22778
850.95	22778
851.085	22881
851.22	22927
851.355	22786
851.49	22797
851.625	22713
851.76	22748
851.895	22839
852.03	22790
852.165	22710
852.299	22854
852.434	22847
852.569	22831
852.703	22710
852.838	22771
852.973	22866
853.107	22858
853.242	22831
853.376	22584
853.511	22474
853.645	22626
853.78	22687
853.914	22653
854.048	22561
854.183	22622
854.317	22637
854.451	22797
854.585	22592
854.72	22592
854.854	22725
854.988	22519
855.122	22611
855.256	22489
855.39	22577
855.524	22717
855.658	22653
855.792	22527
855.926	22675
856.06	22596
856.194	22660
856.327	22660
856.461	22618
856.595	22538
856.729	22698
856.862	22774
856.996	22694
857.13	22649
857.263	22755
857.397	22767
857.53	22550
857.664	22603
857.797	22580
857.931	22782
858.064	22774
858.197	22782
858.331	22679
858.464	22618
858.597	22512
858.731	22565
858.864	22485
858.997	22649
859.13	22542
859.263	22588
859.396	22603
859.529	22634
859.662	22622
859.795	22508
859.928	22611
860.061	22687
860.194	22892
860.327	22672
860.46	22683
860.592	22820
860.725	22786
860.858	22771
860.99	22702
861.123	22653
861.256	22565
861.388	22672
861.521	23337
861.653	22424
861.786	22424
861.918	22573
862.05	22554
862.183	22649
862.315	22557
862.447	22557
862.58	22599
862.712	22306
862.844	22329
862.976	22417
863.108	22329
863.24	22790
863.372	22234
863.504	22432
863.636	22291
863.768	22344
863.9	22276
864.032	22379
864.164	22200
864.296	22322
864.428	22440
864.559	22337
864.691	22261
864.823	22291
864.954	22295
865.086	22280
865.217	22226
865.349	22082
865.48	22238
865.612	22185
865.743	22375
865.875	22086
866.006	22196
866.137	22166
866.269	22048
866.4	22177
866.531	22211
866.662	22040
866.793	22177
866.924	22143
867.055	22147
867.186	22230
867.317	22109
867.448	22021
867.579	22044
867.71	22128
867.841	22029
867.972	22173
868.103	21972
868.233	22059
868.364	22226
868.495	22234
868.625	22493
868.756	22481
868.886	22306
869.017	22348
869.147	22432
869.278	22538
869.408	22538
869.539	22409
869.669	22500
869.799	22485
869.929	22580
870.06	22447
870.19	22748
870.32	22759
870.45	22668
870.58	22786
870.71	22831
870.84	22828
870.97	22782
871.1	22831
871.23	22946
871.36	23003
871.489	22927
871.619	22892
871.749	22911
871.879	22919
872.008	23060
872.138	23086
872.267	23204
872.397	22949
872.526	22771
872.656	22904
872.785	22767
872.915	23067
873.044	23159
873.173	22972
873.303	23018
873.432	23067
873.561	23117
873.69	22949
873.819	22938
873.948	22968
874.077	23075
874.206	23018
874.335	22881
874.464	23052
874.593	23227
874.722	23200
874.851	23185
874.979	23159
875.108	23239
875.237	23090
875.365	23155
875.494	23136
875.623	23379
875.751	23185
875.88	23216
876.008	23292
876.136	23395
876.265	23562
876.393	23821
876.521	23707
876.65	23619
876.778	23657
876.906	23611
877.034	23551
877.162	23444
877.29	23516
877.418	23535
877.546	23528
877.674	23467
877.802	23581
877.93	23539
878.058	23512
878.185	23387
878.313	23570
878.441	23547
878.568	23353
878.696	23509
878.824	23516
878.951	23668
879.079	23760
879.206	23809
879.333	23726
879.461	23547
879.588	23703
879.715	23722
879.842	23802
879.97	23661
880.097	23345
880.224	23315
880.351	23452
880.478	23417
880.605	23501
880.732	23326
880.859	23714
880.986	23398
881.112	23296
881.239	23223
881.366	23044
881.493	23003
881.619	22946
881.746	22934
881.872	22999
881.999	22889
882.125	23056
882.252	22999
882.378	22831
882.505	23010
882.631	22679
882.757	22481
882.883	22679
883.01	22615
883.136	22580
883.262	22569
883.388	22390
883.514	22577
883.64	22702
883.766	22447
883.892	22314
884.018	22516
884.143	22512
884.269	22557
884.395	22352
884.52	22169
884.646	22417
884.772	22166
884.897	22078
885.023	22215
885.148	22280
885.274	22447
885.399	22394
885.524	22242
885.65	22276
885.775	22303
885.9	22173
886.025	22291
886.15	22272
886.275	22173
886.4	22093
886.525	22211
886.65	22120
886.775	22185
886.9	22287
887.025	22402
887.149	22234
887.274	21998
887.399	22036
887.523	22067
887.648	21937
887.773	21846
887.897	22139
888.021	22032
888.146	21991
888.27	22036
888.395	22207
888.519	21979
888.643	22032
888.767	22063
888.891	21812
889.015	21880
889.139	21956
889.263	21797
889.387	22013
889.511	22055
889.635	21789
889.759	21778
889.883	21819
890.006	21865
890.13	21949
890.254	21732
890.377	21671
890.501	21580
890.624	21663
890.748	21751
890.871	21511
890.995	21344
891.118	21405
891.241	21302
891.364	21382
891.488	21477
891.611	21310
891.734	21367
891.857	21416
891.98	21397
892.103	21435
892.226	21393
892.349	21275
892.471	21051
892.594	21226
892.717	21150
892.839	21203
892.962	21306
893.085	21424
893.207	21233
893.33	21138
893.452	21203
893.575	21313
893.697	21275
893.819	21374
893.941	21481
894.064	21348
894.186	21256
894.308	21157
894.43	21313
894.552	21298
894.674	21393
894.796	21142
894.918	21169
895.04	21131
895.161	21241
895.283	21260
895.405	21195
895.526	21184
895.648	21302
895.769	21294
895.891	21199
896.012	21245
896.134	21272
896.255	21180
896.376	21165
896.498	21252
896.619	21306
896.74	21199
896.861	21252
896.982	21515
897.103	21644
897.224	21545
897.345	21477
897.466	21348
897.587	21412
897.708	21519
897.828	21454
897.949	21397
898.07	21233
898.19	21306
898.311	21504
898.431	21408
898.552	21283
898.672	21450
898.792	21450
898.913	21454
899.033	21332
899.153	21188
899.273	21051
899.393	21112
899.513	21214
899.633	21169
899.753	21135
899.873	21123
899.993	21157
900.113	21036
900.232	21169
900.352	21043
900.472	20925
900.591	20777
900.711	20956
900.83	20880
900.95	20921
901.069	20982
901.189	20891
901.308	20549
901.427	20583
901.546	20423
901.665	20442
901.784	20492
901.904	20385
902.023	20229
902.141	20084
902.26	19989
902.379	20096
902.498	20043
902.617	19974
902.735	20024
902.854	19830
902.973	19913
903.091	19624
903.21	19628
903.328	19582
903.446	19514
903.565	19540
903.683	19567
903.801	19304
903.919	19369
904.038	19312
904.156	19088
904.274	19247
904.392	19194
904.51	19175
904.627	19114
904.745	19320
904.863	19251
904.981	18985
905.098	18878
905.216	18882
905.334	18833
905.451	18878
905.569	18741
905.686	18833
905.803	18844
905.921	18650
906.038	18692
906.155	18703
906.272	18544
906.389	18574
906.506	18350
906.623	18376
906.74	18353
906.857	18220
906.974	18334
907.091	18506
907.208	18429
907.324	18494
907.441	18289
907.557	18114
907.674	18095
907.79	18148
907.907	18030
908.023	18087
908.139	18114
908.256	18057
908.372	18011
908.488	17961
908.604	17889
908.72	17904
908.836	17878
908.952	17745
909.068	17786
909.184	17859
909.3	17851
909.415	17707
909.531	17794
909.647	17532
909.762	17528
909.878	17562
909.993	17459
910.108	17512
910.224	17532
910.339	17455
910.454	17356
910.57	17303
910.685	17330
910.8	17505
910.915	17440
911.03	17318
911.145	17147
911.259	17132
911.374	17075
911.489	16976
911.604	16995
911.718	16790
911.833	16828
911.947	16668
912.062	16656
912.176	16729
912.291	16866
912.405	16774
912.519	17022
912.633	16980
912.748	16892
912.862	16847
912.976	16599
913.09	16516
913.204	16679
913.318	16721
913.431	16774
913.545	16763
913.659	16702
913.772	16561
913.886	16455
914	16322
914.113	16512
914.226	16489
914.34	16615
914.453	16291
914.566	16459
914.68	16352
914.793	16287
914.906	16067
915.019	15964
915.132	15911
915.245	15991
915.358	15983
915.47	15979
915.583	15945
915.696	15949
915.809	16131
915.921	16097
916.034	15934
916.146	15949
916.259	15869
916.371	15926
916.483	15922
916.595	15789
916.708	15854
916.82	15793
916.932	15819
917.044	15698
917.156	15701
917.268	15587
917.38	15622
917.491	15637
917.603	15652
917.715	15644
917.826	15759
917.938	15408
918.049	15386
918.161	15587
918.272	15682
918.384	15610
918.495	15576
918.606	15447
918.717	15351
918.828	15378
918.939	15382
919.05	15370
919.161	15245
919.272	15074
919.383	15233
919.494	15382
919.604	15538
919.715	15367
919.826	15203
919.936	15260
920.047	15291
920.157	15359
920.267	15504
920.378	15241
920.488	15214
920.598	15526
920.708	15542
920.818	15359
920.928	15424
921.038	15595
921.148	15481
921.258	15199
921.368	15100
921.477	14986
921.587	14982
921.697	14906
921.806	15043
921.916	14948
922.025	14720
922.134	14724
922.244	14670
922.353	14716
922.462	14610
922.571	14438
922.68	14374
922.789	14221
922.898	14320
923.007	14221
923.116	14336
923.224	14229
923.333	14237
923.442	14142
923.55	14134
923.659	14073
923.767	14153
923.876	14035
923.984	14126
924.092	14069
924.201	14058
924.309	13986
924.417	14039
924.525	13917
924.633	13955
924.741	14819
924.849	13681
924.956	13898
925.064	13734
925.172	13597
925.279	13597
925.387	13696
925.494	13700
925.602	13761
925.709	13700
925.816	13476
925.924	13651
926.031	13719
926.138	13628
926.245	13658
926.352	13556
926.459	13639
926.566	13590
926.673	13514
926.779	13426
926.886	13419
926.993	13293
927.099	13247
927.206	13118
927.312	13088
927.419	13225
927.525	13137
927.631	13240
927.737	13080
927.843	13061
927.95	12867
928.056	13053
928.162	13038
928.267	13034
928.373	13681
928.479	13164
928.585	12859
928.69	12977
928.796	12958
928.901	12848
929.007	12791
929.112	12833
929.218	12844
929.323	12700
929.428	12715
929.533	12764
929.638	12631
929.743	12692
929.848	12722
929.953	12578
930.058	12540
930.163	12456
930.267	12372
930.372	12536
930.477	12380
930.581	12574
930.685	12414
930.79	12296
930.894	12289
930.998	12266
931.103	12353
931.207	12079
931.311	11939
931.415	11897
931.519	11668
931.623	11570
