Data from test_V78500241_3083.txt Node
Date: Fri Mar 25 16:03:09 CST 2022
User: usil
Spectrometer: V785-0024
Trigger mode: 0
Integration Time (sec): 4.000000E-1
Scans to average: 1
Nonlinearity correction enabled: false
Boxcar width: 0
Storing dark spectrum: false
XAxis mode: Wavelengths
Number of Pixels in Spectrum: 1024
>>>>>Begin Spectral Data<<<<<
801.071	28752
801.214	28733
801.356	28577
801.499	28538
801.641	28443
801.783	28401
801.926	28462
802.068	28337
802.211	28185
802.353	28261
802.496	28105
802.638	28219
802.78	28021
802.923	27956
803.065	28013
803.208	28010
803.35	28280
803.492	28105
803.635	28348
803.777	28055
803.919	28303
804.061	28687
804.204	28367
804.346	28272
804.488	28188
804.63	28398
804.773	28215
804.915	28314
805.057	28493
805.199	28322
805.341	28474
805.483	28584
805.626	28443
805.768	28569
805.91	28531
806.052	28577
806.194	28516
806.336	28634
806.478	28580
806.62	28493
806.762	28634
806.904	28908
807.046	28995
807.188	29014
807.33	29033
807.472	29022
807.614	29056
807.756	28869
807.898	28858
808.04	28786
808.182	28771
808.324	28782
808.465	28881
808.607	28976
808.749	29269
808.891	29231
809.033	29273
809.174	29216
809.316	29223
809.458	29280
809.6	29178
809.741	29254
809.883	29318
810.025	29368
810.166	29440
810.308	29600
810.45	29501
810.591	29467
810.733	29292
810.875	29212
811.016	29204
811.158	29170
811.299	29463
811.441	29364
811.582	29387
811.724	29231
811.865	29220
812.007	29193
812.148	29296
812.29	29212
812.431	29535
812.573	29573
812.714	29630
812.855	29714
812.997	30034
813.138	30057
813.279	29824
813.421	29771
813.562	29813
813.703	29547
813.845	29520
813.986	29094
814.127	29071
814.268	29086
814.41	29128
814.551	28816
814.692	28946
814.833	28946
814.974	29029
815.115	29079
815.256	28911
815.397	28862
815.539	28675
815.68	28828
815.821	28607
815.962	28759
816.103	28752
816.244	28805
816.385	28649
816.526	28596
816.666	28344
816.807	28211
816.948	28489
817.089	28352
817.23	28382
817.371	28310
817.512	28401
817.653	28295
817.793	28169
817.934	28306
818.075	28291
818.216	28230
818.356	28276
818.497	28158
818.638	28032
818.778	27998
818.919	28059
819.06	28067
819.2	28261
819.341	28325
819.481	28413
819.622	28417
819.762	28561
819.903	28538
820.043	28626
820.184	28314
820.324	28401
820.465	28481
820.605	28371
820.746	28451
820.886	28394
821.026	28249
821.167	28375
821.307	28493
821.447	28428
821.588	28169
821.728	28032
821.868	27880
822.008	27835
822.149	27888
822.289	27778
822.429	27504
822.569	27439
822.709	27507
822.849	27279
822.99	27279
823.13	27469
823.27	27298
823.41	27070
823.55	27150
823.69	27116
823.83	27074
823.97	26994
824.11	26960
824.25	27001
824.389	26940
824.529	26960
824.669	26979
824.809	27024
824.949	27017
825.089	26998
825.228	27009
825.368	26705
825.508	26842
825.648	26720
825.787	26845
825.927	26876
826.067	26739
826.206	26864
826.346	26853
826.485	26796
826.625	26823
826.765	26899
826.904	26845
827.044	26606
827.183	26705
827.323	26549
827.462	26537
827.601	26602
827.741	26644
827.88	26648
828.02	26324
828.159	26438
828.298	26613
828.437	26511
828.577	26636
828.716	26583
828.855	26434
828.994	26313
829.134	26244
829.273	26214
829.412	26210
829.551	26073
829.69	26183
829.829	26233
829.968	26301
830.107	26282
830.246	26263
830.385	26134
830.524	26115
830.663	25887
830.802	25974
830.941	25795
831.08	25826
831.219	25966
831.357	25856
831.496	26069
831.635	25753
831.774	25883
831.913	25746
832.051	25624
832.19	25666
832.329	25674
832.467	25597
832.606	25422
832.744	25571
832.883	25537
833.022	25346
833.16	25540
833.299	25502
833.437	25601
833.576	25552
833.714	25578
833.852	25502
833.991	25746
834.129	25742
834.267	25689
834.406	25601
834.544	25548
834.682	25552
834.821	25616
834.959	25643
835.097	25453
835.235	25582
835.373	25556
835.511	25529
835.65	25449
835.788	25430
835.926	25343
836.064	25293
836.202	25160
836.34	25411
836.478	25476
836.615	25331
836.753	25354
836.891	25495
837.029	25464
837.167	25320
837.305	25236
837.443	25232
837.58	25129
837.718	25358
837.856	25232
837.993	25168
838.131	25194
838.269	25061
838.406	25080
838.544	24985
838.681	24939
838.819	24817
838.956	24692
839.094	24547
839.231	24833
839.369	24920
839.506	25099
839.643	24954
839.781	24665
839.918	24673
840.055	24528
840.193	24696
840.33	24555
840.467	24650
840.604	24669
840.742	24909
840.879	24585
841.016	24483
841.153	24433
841.29	24589
841.427	24585
841.564	24551
841.701	24566
841.838	24551
841.975	24464
842.112	24505
842.249	24498
842.385	24433
842.522	24601
842.659	24346
842.796	24414
842.933	24426
843.069	24327
843.206	24311
843.343	24418
843.479	24361
843.616	24254
843.752	24224
843.889	23984
844.025	24079
844.162	24079
844.298	24110
844.435	24079
844.571	24205
844.708	24144
844.844	24251
844.98	24315
845.117	24262
845.253	24117
845.389	23980
845.525	24034
845.661	23885
845.798	23878
845.934	23916
846.07	23802
846.206	23954
846.342	24098
846.478	23977
846.614	23672
846.75	23608
846.886	23589
847.022	23581
847.158	23630
847.294	23608
847.429	23592
847.565	23775
847.701	23798
847.837	23353
847.972	23292
848.108	23433
848.244	23387
848.379	23334
848.515	23143
848.65	23227
848.786	23223
848.921	23102
849.057	23368
849.192	23124
849.328	23220
849.463	23204
849.598	23193
849.734	23048
849.869	23014
850.004	23018
850.14	23018
850.275	22953
850.41	22839
850.545	22858
850.68	22953
850.815	23033
850.95	22862
851.085	23204
851.22	23109
851.355	23003
851.49	22854
851.625	22984
851.76	22885
851.895	22809
852.03	22854
852.165	22854
852.299	22885
852.434	23003
852.569	22889
852.703	22930
852.838	23086
852.973	23014
853.107	22934
853.242	22816
853.376	22797
853.511	22489
853.645	22645
853.78	22866
853.914	22740
854.048	22645
854.183	22812
854.317	22736
854.451	22976
854.585	22687
854.72	22725
854.854	22927
854.988	22698
855.122	22721
855.256	22626
855.39	22675
855.524	22778
855.658	22793
855.792	22645
855.926	22831
856.06	22717
856.194	22850
856.327	22702
856.461	22755
856.595	22675
856.729	22713
856.862	22904
856.996	22710
857.13	22771
857.263	22949
857.397	22831
857.53	22698
857.664	22618
857.797	22809
857.931	22771
858.064	22782
858.197	22877
858.331	22805
858.464	22733
858.597	22736
858.731	22721
858.864	22698
858.997	22637
859.13	22755
859.263	22782
859.396	22843
859.529	22698
859.662	22691
859.795	22721
859.928	22634
860.061	22980
860.194	22938
860.327	22812
860.46	22710
860.592	22984
860.725	22828
860.858	22900
860.99	22782
861.123	22733
861.256	22660
861.388	22805
861.521	23341
861.653	22630
861.786	22459
861.918	22497
862.05	22630
862.183	22596
862.315	22687
862.447	22675
862.58	22725
862.712	22470
862.844	22398
862.976	22459
863.108	22588
863.24	22873
863.372	22432
863.504	22459
863.636	22402
863.768	22417
863.9	22405
864.032	22306
864.164	22379
864.296	22481
864.428	22519
864.559	22527
864.691	22508
864.823	22428
864.954	22474
865.086	22341
865.217	22436
865.349	22082
865.48	22360
865.612	22265
865.743	22413
865.875	22287
866.006	22325
866.137	22185
866.269	22257
866.4	22344
866.531	22268
866.662	22276
866.793	22219
866.924	22131
867.055	22329
867.186	22314
867.317	22215
867.448	22166
867.579	22105
867.71	22185
867.841	22200
867.972	22284
868.103	22306
868.233	22253
868.364	22188
868.495	22360
868.625	22405
868.756	22557
868.886	22375
869.017	22489
869.147	22527
869.278	22550
869.408	22516
869.539	22398
869.669	22546
869.799	22611
869.929	22588
870.06	22554
870.19	22843
870.32	22679
870.45	22793
870.58	22622
870.71	23086
870.84	22938
870.97	22987
871.1	22919
871.23	23010
871.36	23143
871.489	22972
871.619	22991
871.749	23037
871.879	23098
872.008	23162
872.138	23136
872.267	22938
872.397	23025
872.526	22946
872.656	22953
872.785	23006
872.915	23159
873.044	23147
873.173	23200
873.303	23197
873.432	23018
873.561	23311
873.69	23128
873.819	23056
873.948	23273
874.077	23166
874.206	23197
874.335	23159
874.464	23296
874.593	23356
874.722	23391
874.851	23284
874.979	23356
875.108	23395
875.237	23307
875.365	23254
875.494	23250
875.623	23360
875.751	23265
875.88	23277
876.008	23516
876.136	23493
876.265	23638
876.393	23908
876.521	23813
876.65	23714
876.778	23687
876.906	23691
877.034	23585
877.162	23741
877.29	23668
877.418	23600
877.546	23699
877.674	23642
877.802	23608
877.93	23733
878.058	23661
878.185	23467
878.313	23539
878.441	23623
878.568	23509
878.696	23577
878.824	23611
878.951	23615
879.079	23904
879.206	23942
879.333	23855
879.461	23577
879.588	23779
879.715	23893
879.842	23870
879.97	23748
880.097	23383
880.224	23531
880.351	23478
880.478	23566
880.605	23429
880.732	23406
880.859	23767
880.986	23417
881.112	23455
881.239	23200
881.366	23208
881.493	23067
881.619	23052
881.746	23273
881.872	23117
881.999	22862
882.125	22919
882.252	23136
882.378	22911
882.505	23071
882.631	22915
882.757	22740
882.883	22896
883.01	22755
883.136	22637
883.262	22672
883.388	22546
883.514	22729
883.64	22698
883.766	22626
883.892	22455
884.018	22386
884.143	22634
884.269	22752
884.395	22363
884.52	22192
884.646	22390
884.772	22325
884.897	22253
885.023	22276
885.148	22493
885.274	22363
885.399	22329
885.524	22333
885.65	22329
885.775	22299
885.9	22303
886.025	22455
886.15	22352
886.275	22257
886.4	22310
886.525	22428
886.65	22230
886.775	22150
886.9	22303
887.025	22470
887.149	22322
887.274	22078
887.399	22143
887.523	22124
887.648	22059
887.773	22112
887.897	22169
888.021	22109
888.146	22105
888.27	22128
888.395	22116
888.519	22097
888.643	22128
888.767	22158
888.891	21960
889.015	21926
889.139	21922
889.263	21827
889.387	22086
889.511	22105
889.635	21934
889.759	21888
889.883	21751
890.006	21842
890.13	21861
890.254	21831
890.377	21781
890.501	21526
890.624	21641
890.748	21660
890.871	21466
890.995	21389
891.118	21306
891.241	21424
891.364	21428
891.488	21599
891.611	21416
891.734	21431
891.857	21492
891.98	21568
892.103	21473
892.226	21435
892.349	21252
892.471	21245
892.594	21336
892.717	21325
892.839	21344
892.962	21268
893.085	21336
893.207	21393
893.33	21230
893.452	21268
893.575	21374
893.697	21268
893.819	21450
893.941	21469
894.064	21405
894.186	21237
894.308	21294
894.43	21336
894.552	21431
894.674	21393
894.796	21138
894.918	21317
895.04	21241
895.161	21291
895.283	21397
895.405	21218
895.526	21291
895.648	21211
895.769	21249
895.891	21408
896.012	21466
896.134	21363
896.255	21287
896.376	21344
896.498	21306
896.619	21306
896.74	21310
896.861	21237
896.982	21530
897.103	21675
897.224	21412
897.345	21553
897.466	21466
897.587	21435
897.708	21523
897.828	21473
897.949	21401
898.07	21272
898.19	21492
898.311	21545
898.431	21485
898.552	21542
898.672	21443
898.792	21481
898.913	21294
899.033	21477
899.153	21214
899.273	21176
899.393	21222
899.513	21321
899.633	21260
899.753	21245
899.873	21165
899.993	21237
900.113	21157
900.232	21150
900.352	21138
900.472	21036
900.591	20971
900.711	20979
900.83	20906
900.95	21192
901.069	21036
901.189	20785
901.308	20537
901.427	20442
901.546	20537
901.665	20564
901.784	20537
901.904	20328
902.023	20358
902.141	20122
902.26	20069
902.379	20126
902.498	20031
902.617	20065
902.735	20088
902.854	19967
902.973	19951
903.091	19700
903.21	19681
903.328	19666
903.446	19559
903.565	19537
903.683	19506
903.801	19354
903.919	19506
904.038	19457
904.156	19175
904.274	19293
904.392	19247
904.51	19171
904.627	19263
904.745	19335
904.863	19270
904.981	19084
905.098	18901
905.216	18894
905.334	18970
905.451	18890
905.569	18825
905.686	18852
905.803	19008
905.921	18688
906.038	18833
906.155	18700
906.272	18551
906.389	18574
906.506	18433
906.623	18483
906.74	18452
906.857	18342
906.974	18346
907.091	18521
907.208	18555
907.324	18433
907.441	18346
907.557	18197
907.674	18133
907.79	18041
907.907	18224
908.023	18239
908.139	18140
908.256	18038
908.372	18045
908.488	18034
908.604	17946
908.72	17741
908.836	17882
908.952	17904
909.068	17882
909.184	17927
909.3	17870
909.415	17897
909.531	17775
909.647	17680
909.762	17543
909.878	17604
909.993	17604
910.108	17577
910.224	17596
910.339	17474
910.454	17383
910.57	17448
910.685	17288
910.8	17596
910.915	17505
911.03	17326
911.145	17220
911.259	17018
911.374	17166
911.489	17208
911.604	17037
911.718	16896
911.833	16881
911.947	16850
912.062	16660
912.176	16869
912.291	16820
912.405	16904
912.519	17102
912.633	17060
912.748	16946
912.862	16805
912.976	16725
913.09	16554
913.204	16634
913.318	16687
913.431	16744
913.545	16786
913.659	16748
913.772	16603
913.886	16508
914	16428
914.113	16618
914.226	16687
914.34	16538
914.453	16318
914.566	16489
914.68	16352
914.793	16265
914.906	16040
915.019	16017
915.132	15956
915.245	16013
915.358	16105
915.47	16025
915.583	15949
915.696	15968
915.809	16139
915.921	16185
916.034	15903
916.146	15979
916.259	15842
916.371	16032
916.483	15991
916.595	15797
916.708	15835
916.82	15816
916.932	15812
917.044	15667
917.156	15732
917.268	15663
917.38	15717
917.491	15625
917.603	15667
917.715	15812
917.826	15682
917.938	15572
918.049	15466
918.161	15606
918.272	15644
918.384	15679
918.495	15614
918.606	15435
918.717	15382
918.828	15439
918.939	15325
919.05	15374
919.161	15332
919.272	15169
919.383	15249
919.494	15401
919.604	15523
919.715	15469
919.826	15332
919.936	15378
920.047	15466
920.157	15367
920.267	15496
920.378	15428
920.488	15233
920.598	15447
920.708	15618
920.818	15580
920.928	15397
921.038	15466
921.148	15477
921.258	15256
921.368	15108
921.477	15123
921.587	15104
921.697	14868
921.806	15024
921.916	14929
922.025	14811
922.134	14670
922.244	14579
922.353	14712
922.462	14526
922.571	14465
922.68	14393
922.789	14233
922.898	14320
923.007	14202
923.116	14305
923.224	14282
923.333	14214
923.442	14233
923.55	14142
923.659	14123
923.767	14119
923.876	14084
923.984	14161
924.092	14005
924.201	14130
924.309	14001
924.417	14039
924.525	13928
924.633	13989
924.741	14708
924.849	13753
924.956	13852
925.064	13803
925.172	13658
925.279	13719
925.387	13784
925.494	13693
925.602	13845
925.709	13750
925.816	13533
925.924	13651
926.031	13674
926.138	13578
926.245	13643
926.352	13563
926.459	13677
926.566	13772
926.673	13544
926.779	13445
926.886	13392
926.993	13255
927.099	13247
927.206	13126
927.312	13145
927.419	13244
927.525	13236
927.631	13282
927.737	13183
927.843	13114
927.95	12977
928.056	13008
928.162	13023
928.267	13099
928.373	13761
928.479	13088
928.585	12924
928.69	12966
928.796	13004
928.901	12897
929.007	12764
929.112	12901
929.218	12859
929.323	12844
929.428	12757
929.533	12795
929.638	12688
929.743	12700
929.848	12745
929.953	12730
930.058	12585
930.163	12410
930.267	12361
930.372	12525
930.477	12384
930.581	12521
930.685	12513
930.79	12277
930.894	12395
930.998	12205
931.103	12437
931.207	11980
931.311	11965
931.415	11870
931.519	11630
931.623	11649
