Data from test_V78500241_1922.txt Node
Date: Fri Mar 25 15:55:06 CST 2022
User: usil
Spectrometer: V785-0024
Trigger mode: 0
Integration Time (sec): 4.000000E-1
Scans to average: 1
Nonlinearity correction enabled: false
Boxcar width: 0
Storing dark spectrum: false
XAxis mode: Wavelengths
Number of Pixels in Spectrum: 1024
>>>>>Begin Spectral Data<<<<<
801.071	28584
801.214	28512
801.356	28310
801.499	28409
801.641	28291
801.783	28234
801.926	28280
802.068	28242
802.211	28287
802.353	28135
802.496	27998
802.638	27994
802.78	27895
802.923	27838
803.065	27781
803.208	27892
803.35	28051
803.492	27941
803.635	28078
803.777	28029
803.919	28253
804.061	28447
804.204	28226
804.346	28002
804.488	28169
804.63	28200
804.773	28029
804.915	28242
805.057	28287
805.199	28150
805.341	28223
805.483	28409
805.626	28257
805.768	28287
805.91	28303
806.052	28329
806.194	28394
806.336	28656
806.478	28333
806.62	28200
806.762	28527
806.904	28634
807.046	28862
807.188	28744
807.33	28816
807.472	28873
807.614	28702
807.756	28812
807.898	28740
808.04	28516
808.182	28596
808.324	28675
808.465	28656
808.607	28835
808.749	28991
808.891	29113
809.033	29170
809.174	29014
809.316	29109
809.458	28930
809.6	28976
809.741	29075
809.883	29242
810.025	29128
810.166	29204
810.308	29341
810.45	29174
810.591	29064
810.733	29098
810.875	29033
811.016	28877
811.158	28824
811.299	29124
811.441	29128
811.582	29162
811.724	28938
811.865	28972
812.007	28995
812.148	28915
812.29	29041
812.431	29337
812.573	29318
812.714	29368
812.855	29528
812.997	29687
813.138	29691
813.279	29547
813.421	29623
813.562	29490
813.703	29254
813.845	29170
813.986	28820
814.127	28816
814.268	28717
814.41	28809
814.551	28626
814.692	28778
814.833	28618
814.974	28710
815.115	28637
815.256	28702
815.397	28641
815.539	28565
815.68	28596
815.821	28432
815.962	28398
816.103	28516
816.244	28443
816.385	28306
816.526	28265
816.666	28093
816.807	28143
816.948	27968
817.089	28082
817.23	28067
817.371	28139
817.512	28192
817.653	27949
817.793	27998
817.934	27899
818.075	27979
818.216	28097
818.356	27960
818.497	27979
818.638	27793
818.778	27759
818.919	27793
819.06	27827
819.2	27804
819.341	28105
819.481	28192
819.622	28230
819.762	28375
819.903	28276
820.043	28276
820.184	28192
820.324	28325
820.465	28253
820.605	28158
820.746	28143
820.886	28010
821.026	28169
821.167	28070
821.307	28150
821.447	28029
821.588	27975
821.728	27778
821.868	27823
822.008	27606
822.149	27564
822.289	27405
822.429	27291
822.569	27169
822.709	27184
822.849	27032
822.99	27051
823.13	27043
823.27	26986
823.41	26849
823.55	26636
823.69	26842
823.83	26929
823.97	26792
824.11	26644
824.25	26575
824.389	26655
824.529	26857
824.669	26720
824.809	26716
824.949	26682
825.089	26663
825.228	26659
825.368	26408
825.508	26530
825.648	26503
825.787	26465
825.927	26606
826.067	26613
826.206	26674
826.346	26549
826.485	26682
826.625	26670
826.765	26632
826.904	26667
827.044	26298
827.183	26385
827.323	26377
827.462	26404
827.601	26313
827.741	26229
827.88	26244
828.02	26054
828.159	26320
828.298	26317
828.437	26225
828.577	26183
828.716	26187
828.855	26195
828.994	25913
829.134	25966
829.273	25887
829.412	25928
829.551	25982
829.69	26107
829.829	26058
829.968	25978
830.107	26081
830.246	25902
830.385	26016
830.524	25871
830.663	25734
830.802	25624
830.941	25674
831.08	25582
831.219	25575
831.357	25712
831.496	25830
831.635	25609
831.774	25563
831.913	25567
832.051	25430
832.19	25392
832.329	25487
832.467	25411
832.606	25301
832.744	25289
832.883	25263
833.022	25183
833.16	25289
833.299	25453
833.437	25236
833.576	25324
833.714	25544
833.852	25308
833.991	25384
834.129	25343
834.267	25548
834.406	25270
834.544	25422
834.682	25327
834.821	25270
834.959	25491
835.097	25209
835.235	25392
835.373	25403
835.511	25350
835.65	25266
835.788	25343
835.926	25103
836.064	24989
836.202	25015
836.34	25148
836.478	25213
836.615	25042
836.753	25103
836.891	25145
837.029	25244
837.167	25038
837.305	25042
837.443	25042
837.58	25088
837.718	24897
837.856	24977
837.993	24886
838.131	24973
838.269	24806
838.406	24909
838.544	24722
838.681	24642
838.819	24547
838.956	24471
839.094	24536
839.231	24426
839.369	24574
839.506	24627
839.643	24711
839.781	24388
839.918	24357
840.055	24437
840.193	24391
840.33	24448
840.467	24380
840.604	24479
840.742	24669
840.879	24292
841.016	24270
841.153	24220
841.29	24464
841.427	24281
841.564	24388
841.701	24285
841.838	24251
841.975	24159
842.112	24251
842.249	24194
842.385	24030
842.522	24372
842.659	24213
842.796	24174
842.933	23999
843.069	24114
843.206	24057
843.343	24057
843.479	24117
843.616	24091
843.752	23901
843.889	23942
844.025	24057
844.162	23904
844.298	23889
844.435	23847
844.571	23832
844.708	23901
844.844	23885
844.98	24022
845.117	23889
845.253	23710
845.389	23771
845.525	23684
845.661	23840
845.798	23490
845.934	23611
846.07	23585
846.206	23467
846.342	23729
846.478	23551
846.614	23353
846.75	23334
846.886	23303
847.022	23391
847.158	23356
847.294	23356
847.429	23326
847.565	23273
847.701	23467
847.837	22976
847.972	23128
848.108	23166
848.244	23098
848.379	22987
848.515	22828
848.65	22919
848.786	22896
848.921	22839
849.057	22976
849.192	22984
849.328	22995
849.463	22911
849.598	22717
849.734	22710
849.869	22908
850.004	22519
850.14	22675
850.275	22588
850.41	22687
850.545	22683
850.68	22573
850.815	22573
850.95	22706
851.085	22767
851.22	22774
851.355	22755
851.49	22717
851.625	22626
851.76	22626
851.895	22569
852.03	22565
852.165	22854
852.299	22660
852.434	22972
852.569	22565
852.703	22649
852.838	22668
852.973	22824
853.107	22797
853.242	22557
853.376	22584
853.511	22455
853.645	22329
853.78	22485
853.914	22447
854.048	22588
854.183	22462
854.317	22428
854.451	22607
854.585	22375
854.72	22428
854.854	22474
854.988	22455
855.122	22478
855.256	22318
855.39	22421
855.524	22531
855.658	22436
855.792	22557
855.926	22535
856.06	22554
856.194	22542
856.327	22466
856.461	22432
856.595	22523
856.729	22402
856.862	22531
856.996	22523
857.13	22489
857.263	22603
857.397	22451
857.53	22485
857.664	22557
857.797	22656
857.931	22618
858.064	22550
858.197	22649
858.331	22417
858.464	22424
858.597	22421
858.731	22466
858.864	22405
858.997	22455
859.13	22493
859.263	22542
859.396	22569
859.529	22371
859.662	22569
859.795	22542
859.928	22474
860.061	22580
860.194	22752
860.327	22493
860.46	22531
860.592	22523
860.725	22497
860.858	22713
860.99	22561
861.123	22356
861.256	22577
861.388	22546
861.521	23239
861.653	22223
861.786	22348
861.918	22344
862.05	22481
862.183	22333
862.315	22455
862.447	22554
862.58	22440
862.712	22143
862.844	22097
862.976	22173
863.108	22242
863.24	22634
863.372	22188
863.504	22143
863.636	22143
863.768	22268
863.9	22223
864.032	22162
864.164	22135
864.296	22226
864.428	22352
864.559	22291
864.691	22219
864.823	22101
864.954	22093
865.086	22147
865.217	22074
865.349	21960
865.48	22051
865.612	22105
865.743	22219
865.875	22021
866.006	22082
866.137	22131
866.269	22070
866.4	22002
866.531	21960
866.662	22017
866.793	21918
866.924	21998
867.055	21987
867.186	21930
867.317	21857
867.448	21835
867.579	22029
867.71	21888
867.841	21797
867.972	21991
868.103	21899
868.233	22048
868.364	21949
868.495	22082
868.625	22238
868.756	22230
868.886	22162
869.017	22280
869.147	22276
869.278	22333
869.408	22280
869.539	22219
869.669	22257
869.799	22265
869.929	22329
870.06	22318
870.19	22577
870.32	22542
870.45	22611
870.58	22580
870.71	22725
870.84	22736
870.97	22557
871.1	22713
871.23	22835
871.36	22809
871.489	22672
871.619	22919
871.749	22835
871.879	22835
872.008	23037
872.138	22809
872.267	22911
872.397	22748
872.526	22668
872.656	22664
872.785	22771
872.915	22908
873.044	22896
873.173	22778
873.303	22835
873.432	22881
873.561	22972
873.69	22938
873.819	22763
873.948	23010
874.077	22774
874.206	22949
874.335	22801
874.464	22915
874.593	23006
874.722	23079
874.851	23079
874.979	23136
875.108	23284
875.237	22885
875.365	22873
875.494	22995
875.623	23140
875.751	23044
875.88	23071
876.008	23094
876.136	23159
876.265	23360
876.393	23604
876.521	23486
876.65	23379
876.778	23459
876.906	23402
877.034	23398
877.162	23376
877.29	23406
877.418	23452
877.546	23341
877.674	23368
877.802	23337
877.93	23410
878.058	23349
878.185	23383
878.313	23318
878.441	23444
878.568	23250
878.696	23326
878.824	23402
878.951	23528
879.079	23531
879.206	23649
879.333	23585
879.461	23539
879.588	23596
879.715	23539
879.842	23714
879.97	23509
880.097	23246
880.224	23223
880.351	23349
880.478	23052
880.605	23113
880.732	23166
880.859	23486
880.986	23174
881.112	23212
881.239	23060
881.366	23014
881.493	22797
881.619	22752
881.746	22866
881.872	22725
881.999	22740
882.125	22721
882.252	22828
882.378	22744
882.505	22839
882.631	22634
882.757	22561
882.883	22531
883.01	22485
883.136	22348
883.262	22379
883.388	22276
883.514	22516
883.64	22489
883.766	22440
883.892	22280
884.018	22344
884.143	22470
884.269	22523
884.395	22211
884.52	22154
884.646	22188
884.772	22029
884.897	21991
885.023	22169
885.148	22162
885.274	22188
885.399	22082
885.524	22219
885.65	22150
885.775	22120
885.9	22162
886.025	22059
886.15	22070
886.275	22006
886.4	22006
886.525	21987
886.65	22120
886.775	22025
886.9	22139
887.025	22272
887.149	22048
887.274	21918
887.399	21994
887.523	21850
887.648	21831
887.773	21629
887.897	21857
888.021	21899
888.146	21759
888.27	21964
888.395	22036
888.519	21918
888.643	21922
888.767	21869
888.891	21679
889.015	21591
889.139	21698
889.263	21469
889.387	21557
889.511	21804
889.635	21637
889.759	21606
889.883	21580
890.006	21622
890.13	21717
890.254	21583
890.377	21530
890.501	21363
890.624	21416
890.748	21340
890.871	21389
890.995	21062
891.118	21013
891.241	21127
891.364	21245
891.488	21291
891.611	21237
891.734	21306
891.857	21298
891.98	21260
892.103	21287
892.226	21112
892.349	21138
892.471	20918
892.594	21005
892.717	21150
892.839	21024
892.962	21001
893.085	21230
893.207	20986
893.33	20921
893.452	21055
893.575	20990
893.697	21100
893.819	21176
893.941	21294
894.064	21096
894.186	20941
894.308	20967
894.43	21123
894.552	21100
894.674	21142
894.796	21066
894.918	21085
895.04	20960
895.161	21150
895.283	21085
895.405	20990
895.526	21085
895.648	20960
895.769	20967
895.891	21112
896.012	21108
896.134	21043
896.255	21062
896.376	20967
896.498	21024
896.619	20990
896.74	21028
896.861	21028
896.982	21443
897.103	21462
897.224	21287
897.345	21268
897.466	21131
897.587	21283
897.708	21424
897.828	21355
897.949	21119
898.07	21184
898.19	21222
898.311	21313
898.431	21176
898.552	21233
898.672	21241
898.792	21408
898.913	21283
899.033	21135
899.153	20918
899.273	20944
899.393	21009
899.513	21169
899.633	21074
899.753	20956
899.873	20880
899.993	20899
900.113	20845
900.232	20918
900.352	20975
900.472	20731
900.591	20796
900.711	20807
900.83	20708
900.95	20872
901.069	20788
901.189	20670
901.308	20450
901.427	20389
901.546	20412
901.665	20434
901.784	20393
901.904	20088
902.023	20039
902.141	19803
902.26	19852
902.379	19890
902.498	19780
902.617	19799
902.735	19940
902.854	19727
902.973	19883
903.091	19601
903.21	19362
903.328	19464
903.446	19358
903.565	19324
903.683	19247
903.801	19164
903.919	19259
904.038	19164
904.156	19084
904.274	19126
904.392	19019
904.51	19027
904.627	18939
904.745	19008
904.863	19008
904.981	18753
905.098	18646
905.216	18696
905.334	18760
905.451	18707
905.569	18665
905.686	18817
905.803	18741
905.921	18464
906.038	18631
906.155	18555
906.272	18353
906.389	18407
906.506	18346
906.623	18277
906.74	18224
906.857	18098
906.974	18251
907.091	18140
907.208	18171
907.324	18209
907.441	18087
907.557	17992
907.674	17927
907.79	17840
907.907	17950
908.023	17942
908.139	17969
908.256	17828
908.372	17745
908.488	17851
908.604	17623
908.72	17642
908.836	17707
908.952	17547
909.068	17668
909.184	17828
909.3	17661
909.415	17570
909.531	17646
909.647	17452
909.762	17334
909.878	17353
909.993	17360
910.108	17406
910.224	17322
910.339	17330
910.454	17250
910.57	17162
910.685	17200
910.8	17433
910.915	17265
911.03	17166
911.145	16911
911.259	16946
911.374	16972
911.489	16934
911.604	16801
911.718	16637
911.833	16630
911.947	16478
912.062	16462
912.176	16607
912.291	16691
912.405	16637
912.519	16797
912.633	16839
912.748	16653
912.862	16577
912.976	16455
913.09	16352
913.204	16428
913.318	16432
913.431	16622
913.545	16554
913.659	16538
913.772	16455
913.886	16337
914	16215
914.113	16341
914.226	16394
914.34	16257
914.453	16063
914.566	16272
914.68	16135
914.793	16109
914.906	15934
915.019	15903
915.132	15717
915.245	15816
915.358	15937
915.47	15762
915.583	15835
915.696	15778
915.809	15915
915.921	15857
916.034	15793
916.146	15724
916.259	15686
916.371	15800
916.483	15732
916.595	15622
916.708	15652
916.82	15675
916.932	15595
917.044	15705
917.156	15637
917.268	15458
917.38	15473
917.491	15374
917.603	15420
917.715	15557
917.826	15561
917.938	15344
918.049	15256
918.161	15431
918.272	15443
918.384	15519
918.495	15401
918.606	15218
918.717	15237
918.828	15249
918.939	15302
919.05	15108
919.161	15272
919.272	14963
919.383	15127
919.494	15275
919.604	15386
919.715	15119
919.826	15184
919.936	15226
920.047	15226
920.157	15135
920.267	15370
920.378	15157
920.488	15165
920.598	15344
920.708	15507
920.818	15237
920.928	15287
921.038	15481
921.148	15329
921.258	15157
921.368	15009
921.477	14902
921.587	14853
921.697	14697
921.806	14800
921.916	14689
922.025	14621
922.134	14530
922.244	14438
922.353	14541
922.462	14442
922.571	14290
922.68	14218
922.789	14240
922.898	14191
923.007	14161
923.116	14058
923.224	14115
923.333	14088
923.442	13963
923.55	13970
923.659	13997
923.767	14073
923.876	13845
923.984	13963
924.092	13883
924.201	13837
924.309	13803
924.417	13852
924.525	13822
924.633	13864
924.741	14655
924.849	13590
924.956	13746
925.064	13567
925.172	13476
925.279	13499
925.387	13628
925.494	13578
925.602	13704
925.709	13556
925.816	13430
925.924	13384
926.031	13666
926.138	13457
926.245	13514
926.352	13384
926.459	13502
926.566	13491
926.673	13392
926.779	13259
926.886	13384
926.993	13133
927.099	13080
927.206	13031
927.312	12977
927.419	13247
927.525	13057
927.631	13156
927.737	12916
927.843	12909
927.95	12779
928.056	12810
928.162	12958
928.267	12947
928.373	13483
928.479	12935
928.585	12798
928.69	12764
928.796	12840
928.901	12722
929.007	12608
929.112	12779
929.218	12700
929.323	12627
929.428	12544
929.533	12662
929.638	12437
929.743	12528
929.848	12578
929.953	12525
930.058	12437
930.163	12292
930.267	12220
930.372	12346
930.477	12273
930.581	12395
930.685	12300
930.79	12087
930.894	12148
930.998	12220
931.103	12304
931.207	11893
931.311	11893
931.415	11752
931.519	11596
931.623	11493
