Data from test_V78500241_129.txt Node
Date: Fri Mar 25 15:42:41 CST 2022
User: usil
Spectrometer: V785-0024
Trigger mode: 0
Integration Time (sec): 4.000000E-1
Scans to average: 1
Nonlinearity correction enabled: false
Boxcar width: 0
Storing dark spectrum: false
XAxis mode: Wavelengths
Number of Pixels in Spectrum: 1024
>>>>>Begin Spectral Data<<<<<
801.071	30186
801.214	30349
801.356	29874
801.499	29935
801.641	29733
801.783	29790
801.926	29870
802.068	29729
802.211	29786
802.353	29638
802.496	29505
802.638	29414
802.78	29421
802.923	29364
803.065	29292
803.208	29269
803.35	29448
803.492	29497
803.635	29611
803.777	29395
803.919	29558
804.061	29889
804.204	29512
804.346	29474
804.488	29512
804.63	29398
804.773	29368
804.915	29676
805.057	29741
805.199	29501
805.341	29600
805.483	29691
805.626	29596
805.768	29547
805.91	29653
806.052	29623
806.194	29573
806.336	29741
806.478	29665
806.62	29661
806.762	29680
806.904	29878
807.046	30041
807.188	30026
807.33	30064
807.472	30057
807.614	29802
807.756	29916
807.898	29901
808.04	29805
808.182	29862
808.324	29977
808.465	29851
808.607	30110
808.749	30034
808.891	30178
809.033	30410
809.174	30323
809.316	30186
809.458	30277
809.6	30182
809.741	30323
809.883	30209
810.025	30319
810.166	30467
810.308	30445
810.45	30498
810.591	30475
810.733	30224
810.875	30178
811.016	30144
811.158	29973
811.299	30479
811.441	30445
811.582	30365
811.724	30144
811.865	30152
812.007	30228
812.148	30072
812.29	30247
812.431	30224
812.573	30570
812.714	30540
812.855	30585
812.997	30730
813.138	30985
813.279	30810
813.421	30658
813.562	30715
813.703	30357
813.845	30414
813.986	30064
814.127	29996
814.268	29722
814.41	29870
814.551	29840
814.692	29893
814.833	29786
814.974	29798
815.115	29767
815.256	29497
815.397	29524
815.539	29634
815.68	29585
815.821	29520
815.962	29440
816.103	29444
816.244	29288
816.385	29162
816.526	29296
816.666	29151
816.807	28885
816.948	29056
817.089	29086
817.23	28934
817.371	28892
817.512	28987
817.653	28835
817.793	28763
817.934	28984
818.075	28946
818.216	28797
818.356	28774
818.497	28725
818.638	28596
818.778	28656
818.919	28668
819.06	28805
819.2	28778
819.341	28835
819.481	28881
819.622	29037
819.762	29200
819.903	29056
820.043	28987
820.184	28904
820.324	28786
820.465	29060
820.605	28984
820.746	28881
820.886	28816
821.026	28805
821.167	28816
821.307	28908
821.447	28812
821.588	28596
821.728	28626
821.868	28379
822.008	28253
822.149	28325
822.289	28173
822.429	28032
822.569	27983
822.709	27831
822.849	27705
822.99	27876
823.13	27606
823.27	27515
823.41	27458
823.55	27336
823.69	27534
823.83	27469
823.97	27454
824.11	27180
824.25	27325
824.389	27272
824.529	27344
824.669	27287
824.809	27233
824.949	27279
825.089	27222
825.228	27424
825.368	27017
825.508	27043
825.648	27146
825.787	27123
825.927	27077
826.067	27047
826.206	26960
826.346	27154
826.485	27291
826.625	27142
826.765	27306
826.904	27142
827.044	26861
827.183	26864
827.323	26743
827.462	26777
827.601	26629
827.741	26674
827.88	26842
828.02	26678
828.159	26678
828.298	26735
828.437	26982
828.577	26663
828.716	26861
828.855	26648
828.994	26408
829.134	26492
829.273	26453
829.412	26393
829.551	26355
829.69	26332
829.829	26275
829.968	26457
830.107	26507
830.246	26434
830.385	26305
830.524	26294
830.663	26187
830.802	26100
830.941	25955
831.08	26024
831.219	26138
831.357	25963
831.496	26172
831.635	25913
831.774	25909
831.913	25753
832.051	25738
832.19	25685
832.329	25731
832.467	25586
832.606	25362
832.744	25441
832.883	25632
833.022	25594
833.16	25548
833.299	25594
833.437	25609
833.576	25685
833.714	25552
833.852	25590
833.991	25449
834.129	25677
834.267	25594
834.406	25495
834.544	25563
834.682	25601
834.821	25468
834.959	25628
835.097	25457
835.235	25571
835.373	25464
835.511	25559
835.65	25362
835.788	25327
835.926	25331
836.064	25126
836.202	25327
836.34	25312
836.478	25373
836.615	25422
836.753	25270
836.891	25392
837.029	25460
837.167	25198
837.305	25304
837.443	25221
837.58	25107
837.718	25164
837.856	25183
837.993	25171
838.131	25221
838.269	25057
838.406	24871
838.544	25012
838.681	24692
838.819	24821
838.956	24601
839.094	24513
839.231	24661
839.369	24749
839.506	24878
839.643	24814
839.781	24509
839.918	24505
840.055	24494
840.193	24540
840.33	24456
840.467	24437
840.604	24418
840.742	24814
840.879	24323
841.016	24273
841.153	24311
841.29	24517
841.427	24292
841.564	24353
841.701	24376
841.838	24243
841.975	24273
842.112	24323
842.249	24194
842.385	24140
842.522	24277
842.659	24289
842.796	24091
842.933	24087
843.069	24125
843.206	24049
843.343	24098
843.479	24053
843.616	24045
843.752	23863
843.889	23836
844.025	23969
844.162	23828
844.298	23771
844.435	23767
844.571	23832
844.708	23843
844.844	23958
844.98	23870
845.117	23984
845.253	23726
845.389	23699
845.525	23726
845.661	23756
845.798	23554
845.934	23608
846.07	23452
846.206	23486
846.342	23573
846.478	23490
846.614	23406
846.75	23265
846.886	23258
847.022	23269
847.158	23345
847.294	23368
847.429	23132
847.565	23265
847.701	23269
847.837	22972
847.972	22930
848.108	23033
848.244	23033
848.379	22748
848.515	22889
848.65	22744
848.786	22778
848.921	22831
849.057	22854
849.192	22877
849.328	22683
849.463	22778
849.598	22622
849.734	22592
849.869	22565
850.004	22599
850.14	22493
850.275	22497
850.41	22447
850.545	22428
850.68	22451
850.815	22538
850.95	22516
851.085	22729
851.22	22630
851.355	22459
851.49	22478
851.625	22390
851.76	22440
851.895	22337
852.03	22409
852.165	22470
852.299	22405
852.434	22500
852.569	22432
852.703	22360
852.838	22512
852.973	22626
853.107	22626
853.242	22523
853.376	22234
853.511	22226
853.645	22303
853.78	22440
853.914	22398
854.048	22363
854.183	22196
854.317	22257
854.451	22398
854.585	22101
854.72	22352
854.854	22371
854.988	22135
855.122	22265
855.256	22192
855.39	22200
855.524	22253
855.658	22280
855.792	22314
855.926	22337
856.06	22268
856.194	22356
856.327	22272
856.461	22177
856.595	22276
856.729	22234
856.862	22341
856.996	22188
857.13	22348
857.263	22379
857.397	22356
857.53	22192
857.664	22192
857.797	22329
857.931	22367
858.064	22230
858.197	22295
858.331	22284
858.464	22150
858.597	22051
858.731	22211
858.864	22074
858.997	22169
859.13	22207
859.263	22223
859.396	22314
859.529	22166
859.662	22242
859.795	22025
859.928	22226
860.061	22363
860.194	22386
860.327	22070
860.46	22158
860.592	22280
860.725	22322
860.858	22333
860.99	22044
861.123	22120
861.256	22177
861.388	22344
861.521	22809
861.653	21945
861.786	22025
861.918	22010
862.05	22272
862.183	22162
862.315	22211
862.447	22188
862.58	22234
862.712	22006
862.844	21983
862.976	21956
863.108	21876
863.24	22287
863.372	21850
863.504	21838
863.636	21770
863.768	21850
863.9	21842
864.032	21766
864.164	21865
864.296	21892
864.428	21926
864.559	21926
864.691	21907
864.823	21808
864.954	21865
865.086	21747
865.217	21705
865.349	21698
865.48	21747
865.612	21774
865.743	21949
865.875	21842
866.006	21720
866.137	21774
866.269	21800
866.4	21831
866.531	21599
866.662	21679
866.793	21709
866.924	21732
867.055	21743
867.186	21717
867.317	21625
867.448	21557
867.579	21644
867.71	21583
867.841	21500
867.972	21633
868.103	21648
868.233	21671
868.364	21717
868.495	21648
868.625	21816
868.756	21991
868.886	21888
869.017	21880
869.147	21941
869.278	22010
869.408	21953
869.539	21892
869.669	21979
869.799	21941
869.929	21983
870.06	21991
870.19	22162
870.32	22147
870.45	22238
870.58	22314
870.71	22516
870.84	22360
870.97	22299
871.1	22367
871.23	22436
871.36	22561
871.489	22500
871.619	22538
871.749	22443
871.879	22653
872.008	22675
872.138	22386
872.267	22382
872.397	22436
872.526	22337
872.656	22325
872.785	22253
872.915	22584
873.044	22516
873.173	22451
873.303	22622
873.432	22386
873.561	22664
873.69	22485
873.819	22649
873.948	22561
874.077	22478
874.206	22455
874.335	22569
874.464	22603
874.593	22767
874.722	22577
874.851	22729
874.979	22744
875.108	22824
875.237	22767
875.365	22588
875.494	22691
875.623	22744
875.751	22763
875.88	22774
876.008	22889
876.136	22911
876.265	23033
876.393	23326
876.521	23258
876.65	23181
876.778	23132
876.906	22991
877.034	22972
877.162	22938
877.29	22854
877.418	23136
877.546	22999
877.674	23102
877.802	23121
877.93	23041
878.058	23128
878.185	22991
878.313	23075
878.441	23086
878.568	22797
878.696	22980
878.824	23090
878.951	23109
879.079	23315
879.206	23326
879.333	23193
879.461	23121
879.588	23258
879.715	23155
879.842	23364
879.97	23128
880.097	22778
880.224	22771
880.351	22915
880.478	22809
880.605	22835
880.732	22850
880.859	23147
880.986	22869
881.112	22847
881.239	22710
881.366	22668
881.493	22550
881.619	22474
881.746	22542
881.872	22531
881.999	22527
882.125	22280
882.252	22424
882.378	22424
882.505	22630
882.631	22287
882.757	22253
882.883	22276
883.01	22143
883.136	22162
883.262	22090
883.388	21945
883.514	22322
883.64	22112
883.766	22173
883.892	22040
884.018	22002
884.143	22181
884.269	22211
884.395	21705
884.52	21854
884.646	21793
884.772	21755
884.897	21663
885.023	21865
885.148	21979
885.274	21972
885.399	21827
885.524	21994
885.65	21816
885.775	21819
885.9	21713
886.025	21987
886.15	22051
886.275	21694
886.4	21701
886.525	21682
886.65	21671
886.775	21694
886.9	21907
887.025	21880
887.149	21728
887.274	21663
887.399	21568
887.523	21466
887.648	21530
887.773	21450
887.897	21663
888.021	21580
888.146	21378
888.27	21633
888.395	21587
888.519	21572
888.643	21485
888.767	21587
888.891	21405
889.015	21260
889.139	21370
889.263	21203
889.387	21389
889.511	21625
889.635	21378
889.759	21287
889.883	21241
890.006	21317
890.13	21310
890.254	21184
890.377	21233
890.501	20994
890.624	21005
890.748	21127
890.871	21062
890.995	20842
891.118	20762
891.241	20906
891.364	20880
891.488	21039
891.611	20906
891.734	20944
891.857	20941
891.98	20948
892.103	20899
892.226	20902
892.349	20781
892.471	20568
892.594	20731
892.717	20826
892.839	20804
892.962	20785
893.085	20826
893.207	20750
893.33	20575
893.452	20701
893.575	20834
893.697	20765
893.819	20781
893.941	21043
894.064	20819
894.186	20575
894.308	20621
894.43	20864
894.552	20857
894.674	20819
894.796	20693
894.918	20746
895.04	20697
895.161	20796
895.283	20788
895.405	20613
895.526	20708
895.648	20651
895.769	20777
895.891	20731
896.012	20921
896.134	20781
896.255	20701
896.376	20636
896.498	20815
896.619	20800
896.74	20724
896.861	20788
896.982	20960
897.103	21237
897.224	21020
897.345	21062
897.466	20952
897.587	21070
897.708	21058
897.828	21039
897.949	20842
898.07	20872
898.19	20883
898.311	20982
898.431	20864
898.552	20895
898.672	20952
898.792	20849
898.913	20807
899.033	20834
899.153	20853
899.273	20575
899.393	20648
899.513	20556
899.633	20636
899.753	20746
899.873	20579
899.993	20697
900.113	20541
900.232	20404
900.352	20526
900.472	20526
900.591	20385
900.711	20461
900.83	20457
900.95	20526
901.069	20434
901.189	20362
901.308	20054
901.427	19989
901.546	20054
901.665	20050
901.784	20046
901.904	19788
902.023	19772
902.141	19578
902.26	19426
902.379	19521
902.498	19540
902.617	19495
902.735	19548
902.854	19483
902.973	19343
903.091	19057
903.21	19126
903.328	19133
903.446	19050
903.565	18966
903.683	18882
903.801	18897
903.919	18802
904.038	18814
904.156	18669
904.274	18684
904.392	18730
904.51	18513
904.627	18700
904.745	18684
904.863	18673
904.981	18422
905.098	18311
905.216	18361
905.334	18342
905.451	18327
905.569	18365
905.686	18308
905.803	18270
905.921	18091
906.038	18136
906.155	18186
906.272	17980
906.389	18057
906.506	17908
906.623	17855
906.74	17832
906.857	17859
906.974	17866
907.091	17813
907.208	17980
907.324	17836
907.441	17859
907.557	17661
907.674	17627
907.79	17532
907.907	17467
908.023	17604
908.139	17551
908.256	17486
908.372	17509
908.488	17315
908.604	17315
908.72	17136
908.836	17197
908.952	17132
909.068	17227
909.184	17337
909.3	17105
909.415	17174
909.531	17056
909.647	16923
909.762	16869
909.878	16862
909.993	16934
910.108	16835
910.224	16877
910.339	16843
910.454	16641
910.57	16672
910.685	16516
910.8	16942
910.915	16869
911.03	16611
911.145	16470
911.259	16447
911.374	16554
911.489	16375
911.604	16325
911.718	16147
911.833	16246
911.947	16249
912.062	16029
912.176	16200
912.291	16249
912.405	16234
912.519	16363
912.633	16322
912.748	16215
912.862	16154
912.976	16013
913.09	15865
913.204	15964
913.318	16002
913.431	16124
913.545	16036
913.659	16063
913.772	15850
913.886	15778
914	15701
914.113	15785
914.226	15934
914.34	15816
914.453	15641
914.566	15781
914.68	15686
914.793	15656
914.906	15477
915.019	15515
915.132	15291
915.245	15420
915.358	15329
915.47	15386
915.583	15428
915.696	15393
915.809	15549
915.921	15496
916.034	15329
916.146	15268
916.259	15283
916.371	15439
916.483	15249
916.595	15268
916.708	15264
916.82	15237
916.932	15245
917.044	15214
917.156	15161
917.268	15070
917.38	14956
917.491	14967
917.603	15093
917.715	15173
917.826	15203
917.938	14975
918.049	14815
918.161	14994
918.272	14994
918.384	15001
918.495	15028
918.606	14941
918.717	14712
918.828	14785
918.939	14864
919.05	14610
919.161	14648
919.272	14533
919.383	14674
919.494	14800
919.604	14948
919.715	14762
919.826	14625
919.936	14602
920.047	14804
920.157	14777
920.267	14906
920.378	14632
920.488	14602
920.598	14800
920.708	15020
920.818	14819
920.928	14663
921.038	14937
921.148	14868
921.258	14655
921.368	14469
921.477	14511
921.587	14358
921.697	14240
921.806	14347
921.916	14244
922.025	14176
922.134	14027
922.244	14043
922.353	14050
922.462	13864
922.571	13864
922.68	13727
922.789	13727
922.898	13632
923.007	13597
923.116	13666
923.224	13609
923.333	13647
923.442	13559
923.55	13506
923.659	13514
923.767	13502
923.876	13411
923.984	13430
924.092	13400
924.201	13396
924.309	13457
924.417	13441
924.525	13282
924.633	13369
924.741	14046
924.849	13110
924.956	13289
925.064	13179
925.172	13072
925.279	13012
925.387	13114
925.494	13141
925.602	13156
925.709	13122
925.816	12996
925.924	13034
926.031	13076
926.138	12973
926.245	13099
926.352	12901
926.459	13084
926.566	12993
926.673	12913
926.779	12844
926.886	12806
926.993	12673
927.099	12601
927.206	12551
927.312	12593
927.419	12650
927.525	12597
927.631	12764
927.737	12570
927.843	12555
927.95	12361
928.056	12388
928.162	12540
928.267	12494
928.373	13126
928.479	12471
928.585	12319
928.69	12334
928.796	12448
928.901	12266
929.007	12117
929.112	12273
929.218	12201
929.323	12235
929.428	12060
929.533	12251
929.638	12079
929.743	12144
929.848	12102
929.953	12091
930.058	12057
930.163	11824
930.267	11843
930.372	11999
930.477	11805
930.581	11977
930.685	11935
930.79	11733
930.894	11703
930.998	11703
931.103	11794
931.207	11433
931.311	11315
931.415	11417
931.519	11083
931.623	11124
