Data from test_V78500241_1441.txt Node
Date: Fri Mar 25 15:51:47 CST 2022
User: usil
Spectrometer: V785-0024
Trigger mode: 0
Integration Time (sec): 4.000000E-1
Scans to average: 1
Nonlinearity correction enabled: false
Boxcar width: 0
Storing dark spectrum: false
XAxis mode: Wavelengths
Number of Pixels in Spectrum: 1024
>>>>>Begin Spectral Data<<<<<
801.071	28112
801.214	28063
801.356	27846
801.499	27918
801.641	27701
801.783	27713
801.926	27960
802.068	27709
802.211	27709
802.353	27542
802.496	27496
802.638	27439
802.78	27416
802.923	27370
803.065	27382
803.208	27393
803.35	27504
803.492	27469
803.635	27618
803.777	27564
803.919	27625
804.061	27953
804.204	27739
804.346	27538
804.488	27462
804.63	27553
804.773	27488
804.915	27572
805.057	27713
805.199	27698
805.341	27728
805.483	27766
805.626	27789
805.768	27724
805.91	27793
806.052	27873
806.194	27720
806.336	28010
806.478	27869
806.62	27914
806.762	27892
806.904	28063
807.046	28280
807.188	28242
807.33	28200
807.472	28303
807.614	28097
807.756	28291
807.898	28200
808.04	28067
808.182	28048
808.324	28120
808.465	28196
808.607	28379
808.749	28542
808.891	28500
809.033	28451
809.174	28489
809.316	28577
809.458	28504
809.6	28497
809.741	28546
809.883	28573
810.025	28767
810.166	28637
810.308	28820
810.45	28588
810.591	28626
810.733	28447
810.875	28344
811.016	28211
811.158	28276
811.299	28538
811.441	28618
811.582	28637
811.724	28443
811.865	28379
812.007	28470
812.148	28398
812.29	28527
812.431	28622
812.573	28854
812.714	28934
812.855	28858
812.997	29041
813.138	29212
813.279	29105
813.421	28999
813.562	28904
813.703	28725
813.845	28691
813.986	28462
814.127	28207
814.268	28200
814.41	28207
814.551	28215
814.692	28207
814.833	28017
814.974	28051
815.115	28070
815.256	28002
815.397	27873
815.539	28082
815.68	28029
815.821	27914
815.962	27903
816.103	27850
816.244	27690
816.385	27599
816.526	27701
816.666	27553
816.807	27542
816.948	27466
817.089	27507
817.23	27443
817.371	27363
817.512	27477
817.653	27401
817.793	27355
817.934	27450
818.075	27412
818.216	27454
818.356	27393
818.497	27389
818.638	27096
818.778	27237
818.919	27291
819.06	27306
819.2	27252
819.341	27542
819.481	27458
819.622	27542
819.762	27812
819.903	27553
820.043	27553
820.184	27469
820.324	27591
820.465	27568
820.605	27629
820.746	27523
820.886	27397
821.026	27469
821.167	27431
821.307	27572
821.447	27420
821.588	27401
821.728	27218
821.868	27119
822.008	26963
822.149	26906
822.289	26899
822.429	26670
822.569	26644
822.709	26541
822.849	26503
822.99	26362
823.13	26495
823.27	26404
823.41	26324
823.55	26046
823.69	26282
823.83	26199
823.97	26107
824.11	25963
824.25	25936
824.389	25997
824.529	26081
824.669	26008
824.809	26252
824.949	26122
825.089	26050
825.228	26172
825.368	25906
825.508	25993
825.648	25928
825.787	25898
825.927	25997
826.067	25955
826.206	25947
826.346	26012
826.485	26020
826.625	25940
826.765	26107
826.904	25997
827.044	25719
827.183	25715
827.323	25514
827.462	25674
827.601	25693
827.741	25753
827.88	25765
828.02	25601
828.159	25510
828.298	25750
828.437	25696
828.577	25548
828.716	25784
828.855	25582
828.994	25392
829.134	25438
829.273	25381
829.412	25285
829.551	25278
829.69	25460
829.829	25369
829.968	25339
830.107	25601
830.246	25266
830.385	25274
830.524	25274
830.663	25156
830.802	25031
830.941	24951
831.08	24810
831.219	24951
831.357	24985
831.496	25164
831.635	24878
831.774	24905
831.913	24890
832.051	24741
832.19	24681
832.329	24646
832.467	24623
832.606	24475
832.744	24623
832.883	24517
833.022	24612
833.16	24597
833.299	24711
833.437	24620
833.576	24749
833.714	24787
833.852	24677
833.991	24825
834.129	24840
834.267	24707
834.406	24585
834.544	24623
834.682	24677
834.821	24677
834.959	24837
835.097	24642
835.235	24700
835.373	24684
835.511	24593
835.65	24627
835.788	24502
835.926	24490
836.064	24205
836.202	24239
836.34	24486
836.478	24452
836.615	24509
836.753	24483
836.891	24589
837.029	24521
837.167	24391
837.305	24304
837.443	24380
837.58	24357
837.718	24239
837.856	24479
837.993	24273
838.131	24281
838.269	24190
838.406	24133
838.544	24186
838.681	24034
838.819	23988
838.956	23779
839.094	23813
839.231	23798
839.369	23996
839.506	24076
839.643	23988
839.781	23684
839.918	23798
840.055	23745
840.193	23703
840.33	23695
840.467	23615
840.604	23882
840.742	23988
840.879	23554
841.016	23657
841.153	23687
841.29	23828
841.427	23653
841.564	23863
841.701	23661
841.838	23832
841.975	23630
842.112	23531
842.249	23570
842.385	23360
842.522	23665
842.659	23619
842.796	23440
842.933	23417
843.069	23444
843.206	23452
843.343	23520
843.479	23589
843.616	23452
843.752	23284
843.889	23193
844.025	23379
844.162	23235
844.298	23296
844.435	23098
844.571	23083
844.708	23246
844.844	23383
844.98	23391
845.117	23269
845.253	23258
845.389	23204
845.525	23090
845.661	23022
845.798	22927
845.934	22991
846.07	22972
846.206	22976
846.342	23064
846.478	22946
846.614	22755
846.75	22649
846.886	22630
847.022	22759
847.158	22733
847.294	22752
847.429	22771
847.565	22557
847.701	22790
847.837	22417
847.972	22424
848.108	22356
848.244	22443
848.379	22284
848.515	22333
848.65	22257
848.786	22348
848.921	22299
849.057	22295
849.192	22394
849.328	22204
849.463	22158
849.598	22188
849.734	22234
849.869	21983
850.004	22143
850.14	22192
850.275	22055
850.41	21865
850.545	21873
850.68	21937
850.815	21968
850.95	22055
851.085	22192
851.22	22051
851.355	22040
851.49	22040
851.625	22078
851.76	22021
851.895	21873
852.03	21915
852.165	22017
852.299	22040
852.434	22158
852.569	22029
852.703	22032
852.838	22070
852.973	22299
853.107	22230
853.242	22017
853.376	21850
853.511	21713
853.645	21797
853.78	22086
853.914	21884
854.048	21926
854.183	21934
854.317	21869
854.451	22059
854.585	21835
854.72	21880
854.854	22070
854.988	21835
855.122	21766
855.256	21698
855.39	21751
855.524	21949
855.658	21884
855.792	21895
855.926	21876
856.06	21953
856.194	21922
856.327	21778
856.461	21762
856.595	21819
856.729	21766
856.862	22086
856.996	21808
857.13	21930
857.263	22051
857.397	21869
857.53	21789
857.664	21846
857.797	21949
857.931	21960
858.064	21884
858.197	22070
858.331	21876
858.464	21835
858.597	21861
858.731	21789
858.864	21747
858.997	21846
859.13	21842
859.263	21937
859.396	22040
859.529	21850
859.662	21869
859.795	21720
859.928	21922
860.061	22086
860.194	21949
860.327	21953
860.46	21774
860.592	21926
860.725	22044
860.858	22032
860.99	21793
861.123	21751
861.256	21831
861.388	21869
861.521	22451
861.653	21663
861.786	21717
861.918	21564
862.05	21736
862.183	21739
862.315	21785
862.447	21846
862.58	21732
862.712	21519
862.844	21504
862.976	21644
863.108	21682
863.24	22017
863.372	21564
863.504	21492
863.636	21606
863.768	21694
863.9	21652
864.032	21545
864.164	21583
864.296	21641
864.428	21644
864.559	21705
864.691	21622
864.823	21572
864.954	21557
865.086	21530
865.217	21458
865.349	21325
865.48	21534
865.612	21500
865.743	21599
865.875	21408
866.006	21401
866.137	21500
866.269	21370
866.4	21534
866.531	21374
866.662	21469
866.793	21298
866.924	21367
867.055	21386
867.186	21466
867.317	21256
867.448	21332
867.579	21378
867.71	21348
867.841	21313
867.972	21500
868.103	21348
868.233	21431
868.364	21454
868.495	21367
868.625	21614
868.756	21686
868.886	21622
869.017	21614
869.147	21812
869.278	21751
869.408	21644
869.539	21656
869.669	21675
869.799	21682
869.929	21660
870.06	21759
870.19	21892
870.32	21865
870.45	22055
870.58	21941
870.71	22143
870.84	22013
870.97	22048
871.1	22029
871.23	22158
871.36	22185
871.489	22166
871.619	22200
871.749	22223
871.879	22211
872.008	22375
872.138	22280
872.267	22219
872.397	22139
872.526	22040
872.656	22021
872.785	22109
872.915	22291
873.044	22363
873.173	22169
873.303	22318
873.432	22261
873.561	22299
873.69	22333
873.819	22200
873.948	22481
874.077	22413
874.206	22196
874.335	22253
874.464	22360
874.593	22500
874.722	22493
874.851	22459
874.979	22443
875.108	22508
875.237	22474
875.365	22379
875.494	22497
875.623	22618
875.751	22436
875.88	22588
876.008	22557
876.136	22809
876.265	22881
876.393	22923
876.521	22934
876.65	22873
876.778	22968
876.906	22915
877.034	22820
877.162	22854
877.29	22850
877.418	22790
877.546	22771
877.674	22877
877.802	22801
877.93	22824
878.058	22736
878.185	22573
878.313	22710
878.441	22763
878.568	22664
878.696	22774
878.824	22782
878.951	22877
879.079	23060
879.206	23147
879.333	23010
879.461	22877
879.588	22877
879.715	22938
879.842	22972
879.97	22885
880.097	22774
880.224	22752
880.351	22630
880.478	22554
880.605	22588
880.732	22717
880.859	22866
880.986	22489
881.112	22656
881.239	22489
881.366	22356
881.493	22337
881.619	22169
881.746	22249
881.872	22230
881.999	21983
882.125	22097
882.252	22287
882.378	22257
882.505	22303
882.631	22109
882.757	21937
882.883	21922
883.01	21918
883.136	21739
883.262	21793
883.388	21736
883.514	21911
883.64	21857
883.766	21804
883.892	21720
884.018	21759
884.143	21861
884.269	21846
884.395	21694
884.52	21507
884.646	21542
884.772	21488
884.897	21401
885.023	21599
885.148	21629
885.274	21816
885.399	21648
885.524	21481
885.65	21473
885.775	21545
885.9	21515
886.025	21694
886.15	21610
886.275	21492
886.4	21382
886.525	21618
886.65	21363
886.775	21416
886.9	21530
887.025	21728
887.149	21492
887.274	21348
887.399	21241
887.523	21184
887.648	21313
887.773	21146
887.897	21405
888.021	21298
888.146	21256
888.27	21363
888.395	21397
888.519	21340
888.643	21287
888.767	21382
888.891	21272
889.015	21100
889.139	21184
889.263	21154
889.387	21237
889.511	21306
889.635	21184
889.759	20990
889.883	21062
890.006	21203
890.13	21028
890.254	20937
890.377	21093
890.501	20941
890.624	20769
890.748	20895
890.871	20792
890.995	20651
891.118	20587
891.241	20792
891.364	20670
891.488	20781
891.611	20708
891.734	20579
891.857	20765
891.98	20720
892.103	20693
892.226	20670
892.349	20606
892.471	20434
892.594	20583
892.717	20590
892.839	20514
892.962	20583
893.085	20655
893.207	20613
893.33	20434
893.452	20469
893.575	20583
893.697	20434
893.819	20746
893.941	20773
894.064	20621
894.186	20454
894.308	20377
894.43	20571
894.552	20651
894.674	20621
894.796	20446
894.918	20533
895.04	20549
895.161	20651
895.283	20712
895.405	20511
895.526	20495
895.648	20568
895.769	20590
895.891	20609
896.012	20640
896.134	20609
896.255	20667
896.376	20568
896.498	20632
896.619	20613
896.74	20549
896.861	20617
896.982	20769
897.103	20948
897.224	20914
897.345	20739
897.466	20648
897.587	20750
897.708	20880
897.828	20899
897.949	20750
898.07	20648
898.19	20571
898.311	20872
898.431	20804
898.552	20590
898.672	20842
898.792	20887
898.913	20857
899.033	20617
899.153	20587
899.273	20454
899.393	20404
899.513	20560
899.633	20442
899.753	20499
899.873	20434
899.993	20408
900.113	20381
900.232	20377
900.352	20434
900.472	20332
900.591	20362
900.711	20294
900.83	20180
900.95	20320
901.069	20389
901.189	20199
901.308	19917
901.427	19875
901.546	19909
901.665	19898
901.784	19807
901.904	19677
902.023	19658
902.141	19483
902.26	19426
902.379	19445
902.498	19441
902.617	19263
902.735	19381
902.854	19316
902.973	19278
903.091	19038
903.21	18954
903.328	18989
903.446	18890
903.565	18798
903.683	18856
903.801	18726
903.919	18707
904.038	18753
904.156	18608
904.274	18612
904.392	18616
904.51	18506
904.627	18536
904.745	18593
904.863	18608
904.981	18452
905.098	18273
905.216	18270
905.334	18235
905.451	18273
905.569	18273
905.686	18289
905.803	18235
905.921	18068
906.038	18102
906.155	18171
906.272	17961
906.389	17950
906.506	17927
906.623	17809
906.74	17733
906.857	17611
906.974	17771
907.091	17805
907.208	17897
907.324	17855
907.441	17722
907.557	17570
907.674	17604
907.79	17543
907.907	17509
908.023	17490
908.139	17520
908.256	17444
908.372	17490
908.488	17482
908.604	17265
908.72	17185
908.836	17311
908.952	17223
909.068	17311
909.184	17387
909.3	17208
909.415	17200
909.531	17235
909.647	17109
909.762	17029
909.878	16991
909.993	16999
910.108	16953
910.224	16862
910.339	16850
910.454	16698
910.57	16733
910.685	16664
910.8	17006
910.915	16839
911.03	16755
911.145	16641
911.259	16599
911.374	16577
911.489	16474
911.604	16436
911.718	16291
911.833	16272
911.947	16287
912.062	16143
912.176	16112
912.291	16333
912.405	16284
912.519	16558
912.633	16474
912.748	16314
912.862	16276
912.976	16101
913.09	16006
913.204	16204
913.318	16067
913.431	16086
913.545	16143
913.659	16162
913.772	16017
913.886	15888
914	15907
914.113	15903
914.226	16006
914.34	15975
914.453	15766
914.566	15934
914.68	15770
914.793	15724
914.906	15542
915.019	15492
915.132	15435
915.245	15519
915.358	15462
915.47	15447
915.583	15561
915.696	15454
915.809	15572
915.921	15584
916.034	15386
916.146	15336
916.259	15378
916.371	15424
916.483	15382
916.595	15367
916.708	15336
916.82	15298
916.932	15321
917.044	15188
917.156	15226
917.268	15203
917.38	15211
917.491	15150
917.603	15154
917.715	15180
917.826	15135
917.938	15001
918.049	14998
918.161	15017
918.272	15157
918.384	15169
918.495	15070
918.606	14891
918.717	14883
918.828	14861
918.939	14914
919.05	14678
919.161	14845
919.272	14590
919.383	14693
919.494	14864
919.604	15093
919.715	14838
919.826	14792
919.936	14838
920.047	14937
920.157	14781
920.267	14963
920.378	14880
920.488	14861
920.598	15009
920.708	15150
920.818	14941
920.928	14902
921.038	15104
921.148	15112
921.258	14758
921.368	14743
921.477	14560
921.587	14648
921.697	14450
921.806	14583
921.916	14419
922.025	14225
922.134	14218
922.244	14164
922.353	14290
922.462	14039
922.571	14043
922.68	13841
922.789	13906
922.898	13860
923.007	13795
923.116	13852
923.224	13830
923.333	13784
923.442	13643
923.55	13647
923.659	13704
923.767	13689
923.876	13552
923.984	13655
924.092	13578
924.201	13674
924.309	13567
924.417	13544
924.525	13472
924.633	13491
924.741	14358
924.849	13304
924.956	13369
925.064	13228
925.172	13198
925.279	13266
925.387	13293
925.494	13266
925.602	13472
925.709	13278
925.816	13084
925.924	13217
926.031	13213
926.138	13198
926.245	13244
926.352	13107
926.459	13278
926.566	13251
926.673	13168
926.779	13042
926.886	12905
926.993	12787
927.099	12707
927.206	12745
927.312	12722
927.419	12817
927.525	12871
927.631	12741
927.737	12639
927.843	12745
927.95	12509
928.056	12673
928.162	12654
928.267	12658
928.373	13331
928.479	12741
928.585	12342
928.69	12490
928.796	12582
928.901	12471
929.007	12330
929.112	12479
929.218	12483
929.323	12357
929.428	12395
929.533	12467
929.638	12281
929.743	12281
929.848	12338
929.953	12266
930.058	12228
930.163	11961
930.267	12106
930.372	12110
930.477	11996
930.581	12144
930.685	12011
930.79	11882
930.894	11916
930.998	11908
931.103	11931
931.207	11619
931.311	11646
931.415	11406
931.519	11349
931.623	11261
