Data from test_V78500241_363.txt Node
Date: Fri Mar 25 15:44:18 CST 2022
User: usil
Spectrometer: V785-0024
Trigger mode: 0
Integration Time (sec): 4.000000E-1
Scans to average: 1
Nonlinearity correction enabled: false
Boxcar width: 0
Storing dark spectrum: false
XAxis mode: Wavelengths
Number of Pixels in Spectrum: 1024
>>>>>Begin Spectral Data<<<<<
801.071	29870
801.214	29851
801.356	29684
801.499	29554
801.641	29531
801.783	29512
801.926	29433
802.068	29383
802.211	29436
802.353	29280
802.496	29185
802.638	29064
802.78	29143
802.923	29185
803.065	29041
803.208	29014
803.35	29185
803.492	29273
803.635	29326
803.777	29337
803.919	29341
804.061	29752
804.204	29326
804.346	29303
804.488	29315
804.63	29455
804.773	29143
804.915	29269
805.057	29410
805.199	29258
805.341	29531
805.483	29520
805.626	29395
805.768	29391
805.91	29482
806.052	29562
806.194	29395
806.336	29619
806.478	29615
806.62	29360
806.762	29680
806.904	29828
807.046	30060
807.188	29912
807.33	29878
807.472	30079
807.614	29874
807.756	29840
807.898	29752
808.04	29737
808.182	29703
808.324	29668
808.465	29783
808.607	29847
808.749	30083
808.891	30296
809.033	30289
809.174	30136
809.316	30247
809.458	30277
809.6	30178
809.741	30053
809.883	30174
810.025	30384
810.166	30452
810.308	30327
810.45	30399
810.591	30315
810.733	30182
810.875	30133
811.016	29961
811.158	29999
811.299	30182
811.441	30247
811.582	30361
811.724	30167
811.865	30049
812.007	30266
812.148	30068
812.29	30102
812.431	30315
812.573	30445
812.714	30597
812.855	30661
812.997	30665
813.138	30909
813.279	30779
813.421	30521
813.562	30760
813.703	30403
813.845	30315
813.986	29999
814.127	29794
814.268	29824
814.41	29939
814.551	29809
814.692	30011
814.833	29672
814.974	29764
815.115	29847
815.256	29661
815.397	29756
815.539	29680
815.68	29570
815.821	29455
815.962	29596
816.103	29490
816.244	29391
816.385	29429
816.526	29383
816.666	29185
816.807	29098
816.948	29181
817.089	29052
817.23	29117
817.371	29128
817.512	29033
817.653	29022
817.793	28976
817.934	29090
818.075	28984
818.216	29056
818.356	28900
818.497	28923
818.638	28790
818.778	28725
818.919	28824
819.06	28911
819.2	29022
819.341	29022
819.481	29018
819.622	29216
819.762	29303
819.903	29292
820.043	29239
820.184	29197
820.324	29143
820.465	29204
820.605	29132
820.746	29128
820.886	29033
821.026	29090
821.167	28965
821.307	29090
821.447	29048
821.588	28881
821.728	28717
821.868	28717
822.008	28382
822.149	28470
822.289	28531
822.429	28143
822.569	28021
822.709	28242
822.849	27972
822.99	28131
823.13	28021
823.27	27713
823.41	27690
823.55	27622
823.69	27797
823.83	27660
823.97	27724
824.11	27751
824.25	27454
824.389	27534
824.529	27705
824.669	27637
824.809	27675
824.949	27587
825.089	27606
825.228	27557
825.368	27363
825.508	27439
825.648	27507
825.787	27408
825.927	27545
826.067	27408
826.206	27439
826.346	27523
826.485	27351
826.625	27389
826.765	27485
826.904	27340
827.044	27256
827.183	27252
827.323	27093
827.462	27157
827.601	27180
827.741	27169
827.88	27112
828.02	27047
828.159	27135
828.298	27195
828.437	27013
828.577	26979
828.716	27275
828.855	26979
828.994	26743
829.134	26811
829.273	26914
829.412	26796
829.551	26849
829.69	26838
829.829	26853
829.968	26864
830.107	26876
830.246	26735
830.385	26785
830.524	26739
830.663	26533
830.802	26511
830.941	26408
831.08	26374
831.219	26366
831.357	26514
831.496	26644
831.635	26446
831.774	26301
831.913	26191
832.051	26081
832.19	26168
832.329	26149
832.467	25913
832.606	26008
832.744	26005
832.883	26191
833.022	26008
833.16	26084
833.299	26073
833.437	25959
833.576	26050
833.714	25993
833.852	26088
833.991	26115
834.129	26069
834.267	26122
834.406	26081
834.544	25970
834.682	26027
834.821	25974
834.959	26153
835.097	25871
835.235	26069
835.373	25944
835.511	25986
835.65	25913
835.788	25803
835.926	25845
836.064	25734
836.202	25609
836.34	25791
836.478	25909
836.615	25845
836.753	25719
836.891	25791
837.029	25807
837.167	25696
837.305	25746
837.443	25632
837.58	25639
837.718	25628
837.856	25613
837.993	25567
838.131	25666
838.269	25544
838.406	25556
838.544	25514
838.681	25400
838.819	25270
838.956	25187
839.094	25118
839.231	25133
839.369	25251
839.506	25426
839.643	25297
839.781	25107
839.918	24935
840.055	24928
840.193	24981
840.33	24966
840.467	24966
840.604	25110
840.742	25228
840.879	24901
841.016	24886
841.153	24867
841.29	25023
841.427	25012
841.564	24867
841.701	24894
841.838	24852
841.975	24894
842.112	24909
842.249	24772
842.385	24753
842.522	24973
842.659	24692
842.796	24791
842.933	24631
843.069	24589
843.206	24722
843.343	24734
843.479	24719
843.616	24707
843.752	24521
843.889	24559
844.025	24593
844.162	24464
844.298	24544
844.435	24254
844.571	24361
844.708	24441
844.844	24589
844.98	24627
845.117	24547
845.253	24232
845.389	24243
845.525	24376
845.661	24254
845.798	24045
845.934	24125
846.07	24026
846.206	24171
846.342	24235
846.478	24053
846.614	23927
846.75	23832
846.886	23764
847.022	24015
847.158	23866
847.294	23790
847.429	23977
847.565	23836
847.701	24087
847.837	23531
847.972	23516
848.108	23665
848.244	23524
848.379	23402
848.515	23425
848.65	23471
848.786	23299
848.921	23440
849.057	23414
849.192	23429
849.328	23433
849.463	23299
849.598	23280
849.734	23280
849.869	23296
850.004	23041
850.14	23204
850.275	23242
850.41	23041
850.545	23067
850.68	23174
850.815	23231
850.95	23014
851.085	23330
851.22	23231
851.355	23086
851.49	23048
851.625	23033
851.76	23079
851.895	23033
852.03	23143
852.165	23113
852.299	23056
852.434	23273
852.569	23200
852.703	23117
852.838	23231
852.973	23212
853.107	23181
853.242	22987
853.376	22885
853.511	22850
853.645	22885
853.78	23014
853.914	22938
854.048	22797
854.183	22957
854.317	22957
854.451	23083
854.585	22919
854.72	22953
854.854	22965
854.988	22858
855.122	22911
855.256	22816
855.39	22961
855.524	23010
855.658	22987
855.792	22930
855.926	22972
856.06	23044
856.194	22854
856.327	22866
856.461	22805
856.595	22881
856.729	22957
856.862	22957
856.996	22896
857.13	22927
857.263	22976
857.397	22999
857.53	22869
857.664	22984
857.797	22938
857.931	23098
858.064	23037
858.197	23083
858.331	22782
858.464	22877
858.597	22885
858.731	22801
858.864	22862
858.997	22774
859.13	22889
859.263	22984
859.396	22881
859.529	22869
859.662	22858
859.795	22797
859.928	22790
860.061	23022
860.194	23071
860.327	22904
860.46	22805
860.592	22923
860.725	23140
860.858	22923
860.99	22919
861.123	22759
861.256	22733
861.388	22908
861.521	23414
861.653	22748
861.786	22748
861.918	22778
862.05	22812
862.183	22812
862.315	22949
862.447	22850
862.58	22866
862.712	22668
862.844	22474
862.976	22694
863.108	22702
863.24	23109
863.372	22489
863.504	22462
863.636	22630
863.768	22645
863.9	22481
864.032	22561
864.164	22550
864.296	22523
864.428	22618
864.559	22626
864.691	22725
864.823	22516
864.954	22672
865.086	22519
865.217	22542
865.349	22424
865.48	22478
865.612	22462
865.743	22535
865.875	22402
866.006	22413
866.137	22569
866.269	22481
866.4	22352
866.531	22341
866.662	22314
866.793	22268
866.924	22398
867.055	22405
867.186	22432
867.317	22249
867.448	22413
867.579	22223
867.71	22268
867.841	22226
867.972	22329
868.103	22379
868.233	22367
868.364	22489
868.495	22405
868.625	22550
868.756	22698
868.886	22523
869.017	22508
869.147	22679
869.278	22797
869.408	22535
869.539	22565
869.669	22596
869.799	22478
869.929	22778
870.06	22649
870.19	22938
870.32	22797
870.45	22972
870.58	22995
870.71	23010
870.84	23060
870.97	22873
871.1	22987
871.23	23113
871.36	23143
871.489	23025
871.619	23083
871.749	23318
871.879	23250
872.008	23349
872.138	23147
872.267	23113
872.397	23071
872.526	22885
872.656	22995
872.785	23018
872.915	23193
873.044	23326
873.173	23204
873.303	23235
873.432	23159
873.561	23299
873.69	23258
873.819	23197
873.948	23235
874.077	23356
874.206	23098
874.335	23216
874.464	23265
874.593	23505
874.722	23311
874.851	23452
874.979	23395
875.108	23516
875.237	23478
875.365	23364
875.494	23334
875.623	23471
875.751	23242
875.88	23391
876.008	23531
876.136	23573
876.265	23737
876.393	23813
876.521	23836
876.65	23726
876.778	23813
876.906	23657
877.034	23691
877.162	23737
877.29	23627
877.418	23695
877.546	23714
877.674	23657
877.802	23726
877.93	23642
878.058	23623
878.185	23581
878.313	23592
878.441	23809
878.568	23600
878.696	23707
878.824	23737
878.951	23889
879.079	23935
879.206	23984
879.333	23920
879.461	23748
879.588	23878
879.715	23775
879.842	23977
879.97	23794
880.097	23600
880.224	23566
880.351	23570
880.478	23619
880.605	23558
880.732	23516
880.859	23760
880.986	23414
881.112	23551
881.239	23402
881.366	23345
881.493	23246
881.619	23025
881.746	23208
881.872	23136
881.999	23018
882.125	23060
882.252	23124
882.378	23140
882.505	23258
882.631	23014
882.757	22748
882.883	22778
883.01	22744
883.136	22771
883.262	22694
883.388	22565
883.514	22831
883.64	22896
883.766	22637
883.892	22611
884.018	22569
884.143	22660
884.269	22801
884.395	22557
884.52	22272
884.646	22478
884.772	22333
884.897	22352
885.023	22386
885.148	22489
885.274	22508
885.399	22481
885.524	22485
885.65	22405
885.775	22451
885.9	22375
886.025	22447
886.15	22447
886.275	22436
886.4	22337
886.525	22230
886.65	22318
886.775	22394
886.9	22497
887.025	22607
887.149	22295
887.274	22314
887.399	22211
887.523	22097
887.648	22211
887.773	21956
887.897	22192
888.021	22219
888.146	22181
888.27	22314
888.395	22211
888.519	22051
888.643	22082
888.767	22128
888.891	22082
889.015	21873
889.139	21968
889.263	21987
889.387	22051
889.511	22120
889.635	21953
889.759	21816
889.883	21991
890.006	21892
890.13	21964
890.254	21819
890.377	21884
890.501	21747
890.624	21572
890.748	21671
890.871	21469
890.995	21454
891.118	21397
891.241	21553
891.364	21496
891.488	21572
891.611	21519
891.734	21401
891.857	21542
891.98	21504
892.103	21408
892.226	21538
892.349	21431
892.471	21176
892.594	21405
892.717	21424
892.839	21351
892.962	21298
893.085	21424
893.207	21428
893.33	21188
893.452	21230
893.575	21275
893.697	21382
893.819	21564
893.941	21549
894.064	21488
894.186	21264
894.308	21317
894.43	21435
894.552	21545
894.674	21439
894.796	21176
894.918	21294
895.04	21279
895.161	21424
895.283	21412
895.405	21329
895.526	21214
895.648	21310
895.769	21272
895.891	21408
896.012	21504
896.134	21336
896.255	21386
896.376	21275
896.498	21332
896.619	21294
896.74	21218
896.861	21420
896.982	21671
897.103	21759
897.224	21667
897.345	21610
897.466	21538
897.587	21534
897.708	21633
897.828	21545
897.949	21431
898.07	21431
898.19	21408
898.311	21488
898.431	21424
898.552	21507
898.672	21553
898.792	21625
898.913	21504
899.033	21424
899.153	21283
899.273	21188
899.393	21180
899.513	21157
899.633	21173
899.753	21218
899.873	21169
899.993	21195
900.113	21127
900.232	21192
900.352	21230
900.472	21070
900.591	21085
900.711	21013
900.83	20921
900.95	21070
901.069	21066
901.189	20921
901.308	20674
901.427	20503
901.546	20640
901.665	20609
901.784	20609
901.904	20461
902.023	20358
902.141	20077
902.26	20020
902.379	20168
902.498	20145
902.617	20107
902.735	20092
902.854	19944
902.973	19906
903.091	19597
903.21	19670
903.328	19700
903.446	19597
903.565	19594
903.683	19521
903.801	19403
903.919	19552
904.038	19506
904.156	19244
904.274	19350
904.392	19202
904.51	19225
904.627	19251
904.745	19327
904.863	19339
904.981	19080
905.098	18993
905.216	18928
905.334	18875
905.451	18791
905.569	18909
905.686	18932
905.803	18875
905.921	18692
906.038	18802
906.155	18791
906.272	18566
906.389	18597
906.506	18486
906.623	18506
906.74	18448
906.857	18338
906.974	18334
907.091	18376
907.208	18525
907.324	18521
907.441	18239
907.557	18190
907.674	18163
907.79	18152
907.907	18034
908.023	17897
908.139	18155
908.256	18110
908.372	17946
908.488	18007
908.604	17878
908.72	17878
908.836	17828
908.952	17824
909.068	17927
909.184	17893
909.3	17840
909.415	17756
909.531	17840
909.647	17490
909.762	17604
909.878	17395
909.993	17493
910.108	17520
910.224	17520
910.339	17482
910.454	17376
910.57	17334
910.685	17258
910.8	17398
910.915	17524
911.03	17239
911.145	17136
911.259	17185
911.374	17071
911.489	16991
911.604	16980
911.718	16843
911.833	16934
911.947	16668
912.062	16596
912.176	16843
912.291	16793
912.405	16854
912.519	16965
912.633	16946
912.748	16759
912.862	16717
912.976	16599
913.09	16565
913.204	16538
913.318	16599
913.431	16733
913.545	16653
913.659	16706
913.772	16531
913.886	16432
914	16367
914.113	16481
914.226	16497
914.34	16478
914.453	16291
914.566	16436
914.68	16287
914.793	16257
914.906	16059
915.019	15926
915.132	15899
915.245	15937
915.358	16010
915.47	15960
915.583	15975
915.696	15949
915.809	16109
915.921	16109
916.034	15873
916.146	15930
916.259	15945
916.371	15880
916.483	15835
916.595	15819
916.708	15743
916.82	15781
916.932	15667
917.044	15736
917.156	15622
917.268	15576
917.38	15648
917.491	15568
917.603	15557
917.715	15568
917.826	15732
917.938	15519
918.049	15485
918.161	15439
918.272	15644
918.384	15660
918.495	15500
918.606	15401
918.717	15275
918.828	15332
918.939	15351
919.05	15180
919.161	15256
919.272	15108
919.383	15237
919.494	15397
919.604	15435
919.715	15317
919.826	15176
919.936	15272
920.047	15359
920.157	15344
920.267	15439
920.378	15306
920.488	15199
920.598	15351
920.708	15553
920.818	15306
920.928	15443
921.038	15454
921.148	15454
921.258	15058
921.368	15123
921.477	15017
921.587	14918
921.697	14796
921.806	15043
921.916	14834
922.025	14636
922.134	14648
922.244	14564
922.353	14598
922.462	14374
922.571	14434
922.68	14248
922.789	14145
922.898	14244
923.007	14153
923.116	14206
923.224	14096
923.333	14084
923.442	14062
923.55	13986
923.659	14077
923.767	14123
923.876	14012
923.984	13970
924.092	13902
924.201	13982
924.309	14012
924.417	14008
924.525	13913
924.633	13928
924.741	14636
924.849	13651
924.956	13860
925.064	13567
925.172	13616
925.279	13544
925.387	13563
925.494	13647
925.602	13662
925.709	13597
925.816	13480
925.924	13510
926.031	13632
926.138	13483
926.245	13525
926.352	13510
926.459	13571
926.566	13677
926.673	13453
926.779	13396
926.886	13343
926.993	13183
927.099	13099
927.206	13137
927.312	13076
927.419	13175
927.525	13061
927.631	13133
927.737	13038
927.843	13019
927.95	12863
928.056	12875
928.162	12928
928.267	13015
928.373	13525
928.479	13103
928.585	12798
928.69	12951
928.796	12958
928.901	12840
929.007	12662
929.112	12802
929.218	12703
929.323	12665
929.428	12745
929.533	12741
929.638	12555
929.743	12654
929.848	12662
929.953	12574
930.058	12418
930.163	12254
930.267	12262
930.372	12452
930.477	12254
930.581	12528
930.685	12388
930.79	12251
930.894	12182
930.998	12178
931.103	12292
931.207	11889
931.311	11855
931.415	11714
931.519	11600
931.623	11516
