Data from test_V78500241_1320.txt Node
Date: Fri Mar 25 15:50:56 CST 2022
User: usil
Spectrometer: V785-0024
Trigger mode: 0
Integration Time (sec): 4.000000E-1
Scans to average: 1
Nonlinearity correction enabled: false
Boxcar width: 0
Storing dark spectrum: false
XAxis mode: Wavelengths
Number of Pixels in Spectrum: 1024
>>>>>Begin Spectral Data<<<<<
801.071	28196
801.214	28173
801.356	27953
801.499	27987
801.641	27819
801.783	27823
801.926	27751
802.068	27720
802.211	27660
802.353	27648
802.496	27454
802.638	27572
802.78	27329
802.923	27397
803.065	27283
803.208	27393
803.35	27363
803.492	27568
803.635	27656
803.777	27549
803.919	27603
804.061	27884
804.204	27660
804.346	27462
804.488	27538
804.63	27603
804.773	27755
804.915	27690
805.057	27755
805.199	27549
805.341	27800
805.483	27819
805.626	27759
805.768	27660
805.91	27747
806.052	27865
806.194	27690
806.336	27922
806.478	27850
806.62	27846
806.762	28010
806.904	28059
807.046	28257
807.188	28112
807.33	28211
807.472	28299
807.614	28112
807.756	28261
807.898	28128
808.04	28177
808.182	28078
808.324	28074
808.465	28185
808.607	28421
808.749	28363
808.891	28630
809.033	28573
809.174	28500
809.316	28367
809.458	28538
809.6	28512
809.741	28656
809.883	28672
810.025	28812
810.166	28782
810.308	28752
810.45	28679
810.591	28588
810.733	28512
810.875	28443
811.016	28466
811.158	28344
811.299	28428
811.441	28542
811.582	28717
811.724	28424
811.865	28481
812.007	28424
812.148	28504
812.29	28523
812.431	28478
812.573	28702
812.714	28999
812.855	28938
812.997	29010
813.138	29181
813.279	29064
813.421	28953
813.562	28999
813.703	28729
813.845	28736
813.986	28261
814.127	28029
814.268	28246
814.41	28223
814.551	28048
814.692	28337
814.833	28086
814.974	28188
815.115	28048
815.256	28013
815.397	27941
815.539	28173
815.68	27991
815.821	27922
815.962	27922
816.103	28074
816.244	27934
816.385	27736
816.526	27667
816.666	27549
816.807	27439
816.948	27507
817.089	27549
817.23	27523
817.371	27447
817.512	27526
817.653	27488
817.793	27310
817.934	27583
818.075	27462
818.216	27435
818.356	27344
818.497	27443
818.638	27241
818.778	27138
818.919	27161
819.06	27329
819.2	27302
819.341	27515
819.481	27458
819.622	27485
819.762	27732
819.903	27854
820.043	27686
820.184	27488
820.324	27530
820.465	27701
820.605	27553
820.746	27690
820.886	27431
821.026	27561
821.167	27572
821.307	27603
821.447	27389
821.588	27431
821.728	27272
821.868	27051
822.008	26948
822.149	27028
822.289	26788
822.429	26746
822.569	26663
822.709	26587
822.849	26431
822.99	26552
823.13	26431
823.27	26328
823.41	26469
823.55	26107
823.69	26343
823.83	26233
823.97	26096
824.11	26084
824.25	26126
824.389	26122
824.529	26206
824.669	26024
824.809	26252
824.949	26119
825.089	26210
825.228	26225
825.368	25913
825.508	25852
825.648	25925
825.787	26134
825.927	25963
826.067	25795
826.206	25959
826.346	26016
826.485	25963
826.625	25986
826.765	26142
826.904	25947
827.044	25795
827.183	25803
827.323	25689
827.462	25681
827.601	25776
827.741	25731
827.88	25613
828.02	25567
828.159	25719
828.298	25799
828.437	25757
828.577	25620
828.716	25788
828.855	25567
828.994	25426
829.134	25567
829.273	25400
829.412	25255
829.551	25415
829.69	25392
829.829	25422
829.968	25609
830.107	25346
830.246	25384
830.385	25327
830.524	25198
830.663	25247
830.802	25076
830.941	24989
831.08	25057
831.219	24996
831.357	25042
831.496	25152
831.635	25084
831.774	24966
831.913	24947
832.051	24825
832.19	24837
832.329	24658
832.467	24734
832.606	24627
832.744	24608
832.883	24646
833.022	24620
833.16	24498
833.299	24616
833.437	24582
833.576	24738
833.714	24772
833.852	24616
833.991	24787
834.129	24776
834.267	24901
834.406	24787
834.544	24760
834.682	24703
834.821	24719
834.959	24913
835.097	24696
835.235	24741
835.373	24852
835.511	24707
835.65	24635
835.788	24559
835.926	24490
836.064	24369
836.202	24407
836.34	24513
836.478	24654
836.615	24650
836.753	24509
836.891	24563
837.029	24566
837.167	24445
837.305	24521
837.443	24433
837.58	24475
837.718	24517
837.856	24319
837.993	24369
838.131	24308
838.269	24292
838.406	24296
838.544	24270
838.681	24049
838.819	24144
838.956	23916
839.094	23813
839.231	24102
839.369	24098
839.506	24304
839.643	24159
839.781	23935
839.918	23851
840.055	23893
840.193	23882
840.33	23874
840.467	23775
840.604	23954
840.742	24098
840.879	23722
841.016	23707
841.153	23680
841.29	23893
841.427	23767
841.564	23878
841.701	23809
841.838	23760
841.975	23619
842.112	23714
842.249	23581
842.385	23512
842.522	23764
842.659	23684
842.796	23543
842.933	23497
843.069	23436
843.206	23535
843.343	23577
843.479	23554
843.616	23543
843.752	23288
843.889	23315
844.025	23509
844.162	23349
844.298	23258
844.435	23303
844.571	23269
844.708	23356
844.844	23474
844.98	23512
845.117	23467
845.253	23124
845.389	23155
845.525	23197
845.661	23132
845.798	22934
845.934	23113
846.07	23185
846.206	23064
846.342	23132
846.478	23048
846.614	22961
846.75	22748
846.886	22736
847.022	22778
847.158	22767
847.294	22733
847.429	22850
847.565	22793
847.701	22972
847.837	22428
847.972	22561
848.108	22592
848.244	22584
848.379	22432
848.515	22379
848.65	22318
848.786	22348
848.921	22382
849.057	22394
849.192	22554
849.328	22413
849.463	22382
849.598	22386
849.734	22306
849.869	22261
850.004	22173
850.14	22101
850.275	22101
850.41	22067
850.545	22116
850.68	22109
850.815	22215
850.95	22124
851.085	22207
851.22	22291
851.355	22166
851.49	22093
851.625	22044
851.76	22105
851.895	22070
852.03	22109
852.165	22207
852.299	22090
852.434	22211
852.569	22166
852.703	22078
852.838	22238
852.973	22234
853.107	22230
853.242	22128
853.376	21964
853.511	21838
853.645	22006
853.78	22040
853.914	21899
854.048	21979
854.183	21953
854.317	21991
854.451	22234
854.585	21972
854.72	21873
854.854	22109
854.988	21907
855.122	21945
855.256	21819
855.39	21876
855.524	22025
855.658	21960
855.792	21907
855.926	21953
856.06	21991
856.194	22181
856.327	21964
856.461	21869
856.595	21869
856.729	21945
856.862	22017
856.996	22048
857.13	22006
857.263	22032
857.397	21991
857.53	21934
857.664	22040
857.797	21949
857.931	22074
858.064	21922
858.197	22097
858.331	21911
858.464	22006
858.597	21781
858.731	21835
858.864	21915
858.997	21880
859.13	21797
859.263	21888
859.396	21956
859.529	21941
859.662	21827
859.795	21789
859.928	22032
860.061	22048
860.194	22124
860.327	21922
860.46	21907
860.592	22097
860.725	21994
860.858	22067
860.99	22048
861.123	21831
861.256	21823
861.388	21918
861.521	22664
861.653	21819
861.786	21591
861.918	21770
862.05	21808
862.183	21831
862.315	21812
862.447	21892
862.58	21968
862.712	21606
862.844	21682
862.976	21743
863.108	21720
863.24	21956
863.372	21614
863.504	21644
863.636	21549
863.768	21686
863.9	21816
864.032	21656
864.164	21496
864.296	21618
864.428	21739
864.559	21800
864.691	21789
864.823	21724
864.954	21599
865.086	21606
865.217	21545
865.349	21538
865.48	21523
865.612	21561
865.743	21648
865.875	21492
866.006	21622
866.137	21504
866.269	21397
866.4	21545
866.531	21542
866.662	21583
866.793	21458
866.924	21370
867.055	21450
867.186	21488
867.317	21515
867.448	21332
867.579	21496
867.71	21329
867.841	21298
867.972	21477
868.103	21416
868.233	21378
868.364	21458
868.495	21576
868.625	21747
868.756	21713
868.886	21561
869.017	21751
869.147	21759
869.278	21747
869.408	21778
869.539	21759
869.669	21762
869.799	21694
869.929	21778
870.06	21857
870.19	22093
870.32	21941
870.45	22109
870.58	22105
870.71	22344
870.84	22177
870.97	22067
871.1	22044
871.23	22238
871.36	22306
871.489	22131
871.619	22291
871.749	22348
871.879	22219
872.008	22451
872.138	22333
872.267	22253
872.397	22188
872.526	22086
872.656	22124
872.785	22230
872.915	22379
873.044	22382
873.173	22375
873.303	22356
873.432	22363
873.561	22386
873.69	22314
873.819	22363
873.948	22413
874.077	22306
874.206	22287
874.335	22333
874.464	22535
874.593	22580
874.722	22641
874.851	22531
874.979	22626
875.108	22592
875.237	22519
875.365	22417
875.494	22580
875.623	22542
875.751	22508
875.88	22634
876.008	22717
876.136	22736
876.265	22809
876.393	23075
876.521	22972
876.65	23037
876.778	22869
876.906	22896
877.034	22702
877.162	22816
877.29	22790
877.418	22881
877.546	22915
877.674	22862
877.802	22839
877.93	22930
878.058	22805
878.185	22778
878.313	22843
878.441	22927
878.568	22782
878.696	22828
878.824	22877
878.951	23037
879.079	23010
879.206	23166
879.333	23022
879.461	22835
879.588	23098
879.715	23018
879.842	23147
879.97	22957
880.097	22634
880.224	22797
880.351	22729
880.478	22774
880.605	22599
880.732	22546
880.859	22953
880.986	22607
881.112	22843
881.239	22615
881.366	22516
881.493	22470
881.619	22230
881.746	22382
881.872	22341
881.999	22185
882.125	22284
882.252	22226
882.378	22295
882.505	22329
882.631	22105
882.757	21964
882.883	22105
883.01	22021
883.136	21899
883.262	21827
883.388	21770
883.514	21987
883.64	22013
883.766	21823
883.892	21724
884.018	21732
884.143	21884
884.269	21854
884.395	21690
884.52	21545
884.646	21648
884.772	21614
884.897	21477
885.023	21648
885.148	21606
885.274	21652
885.399	21652
885.524	21545
885.65	21606
885.775	21610
885.9	21705
886.025	21614
886.15	21686
886.275	21572
886.4	21507
886.525	21618
886.65	21481
886.775	21515
886.9	21743
887.025	21755
887.149	21488
887.274	21530
887.399	21291
887.523	21355
887.648	21313
887.773	21306
887.897	21435
888.021	21435
888.146	21291
888.27	21450
888.395	21450
888.519	21370
888.643	21351
888.767	21370
888.891	21260
889.015	21283
889.139	21268
889.263	21096
889.387	21230
889.511	21412
889.635	21287
889.759	21093
889.883	21142
890.006	21233
890.13	21332
890.254	21043
890.377	21116
890.501	20872
890.624	20845
890.748	20952
890.871	20720
890.995	20716
891.118	20629
891.241	20785
891.364	20785
891.488	20785
891.611	20807
891.734	20674
891.857	20762
891.98	20762
892.103	20857
892.226	20625
892.349	20568
892.471	20366
892.594	20579
892.717	20609
892.839	20488
892.962	20522
893.085	20621
893.207	20609
893.33	20484
893.452	20568
893.575	20598
893.697	20484
893.819	20777
893.941	20811
894.064	20526
894.186	20579
894.308	20377
894.43	20682
894.552	20705
894.674	20731
894.796	20412
894.918	20507
895.04	20609
895.161	20731
895.283	20659
895.405	20571
895.526	20579
895.648	20617
895.769	20606
895.891	20594
896.012	20579
896.134	20663
896.255	20571
896.376	20480
896.498	20594
896.619	20617
896.74	20587
896.861	20724
896.982	20880
897.103	20937
897.224	20842
897.345	20765
897.466	20769
897.587	20800
897.708	20906
897.828	20857
897.949	20785
898.07	20526
898.19	20705
898.311	20857
898.431	20693
898.552	20788
898.672	20765
898.792	20807
898.913	20815
899.033	20640
899.153	20602
899.273	20377
899.393	20419
899.513	20537
899.633	20617
899.753	20579
899.873	20537
899.993	20579
900.113	20457
900.232	20438
900.352	20499
900.472	20400
900.591	20362
900.711	20347
900.83	20339
900.95	20351
901.069	20301
901.189	20164
901.308	19989
901.427	19913
901.546	19913
901.665	19811
901.784	19917
901.904	19860
902.023	19624
902.141	19552
902.26	19377
902.379	19464
902.498	19403
902.617	19377
902.735	19476
902.854	19403
902.973	19415
903.091	19171
903.21	19061
903.328	19019
903.446	18920
903.565	18954
903.683	18901
903.801	18783
903.919	18745
904.038	18856
904.156	18536
904.274	18677
904.392	18608
904.51	18547
904.627	18570
904.745	18650
904.863	18639
904.981	18448
905.098	18224
905.216	18334
905.334	18334
905.451	18323
905.569	18376
905.686	18486
905.803	18281
905.921	18102
906.038	18190
906.155	18232
906.272	17984
906.389	18049
906.506	17950
906.623	17935
906.74	17775
906.857	17695
906.974	17703
907.091	17901
907.208	17984
907.324	17908
907.441	17733
907.557	17649
907.674	17589
907.79	17570
907.907	17535
908.023	17543
908.139	17570
908.256	17509
908.372	17391
908.488	17421
908.604	17383
908.72	17189
908.836	17242
908.952	17220
909.068	17250
909.184	17429
909.3	17212
909.415	17299
909.531	17292
909.647	17041
909.762	16984
909.878	16904
909.993	16881
910.108	16987
910.224	16790
910.339	16923
910.454	16873
910.57	16759
910.685	16694
910.8	16991
910.915	16915
911.03	16740
911.145	16599
911.259	16580
911.374	16603
911.489	16402
911.604	16459
911.718	16276
911.833	16242
911.947	16207
912.062	16032
912.176	16242
912.291	16360
912.405	16257
912.519	16417
912.633	16470
912.748	16363
912.862	16325
912.976	16071
913.09	16067
913.204	16059
913.318	16090
913.431	16238
913.545	16238
913.659	16196
913.772	16177
913.886	16017
914	15994
914.113	16006
914.226	16017
914.34	15949
914.453	15800
914.566	15907
914.68	15835
914.793	15854
914.906	15545
915.019	15439
915.132	15378
915.245	15511
915.358	15477
915.47	15469
915.583	15416
915.696	15534
915.809	15720
915.921	15580
916.034	15473
916.146	15382
916.259	15393
916.371	15458
916.483	15469
916.595	15393
916.708	15287
916.82	15317
916.932	15321
917.044	15252
917.156	15214
917.268	15119
917.38	15135
917.491	15100
917.603	15241
917.715	15195
917.826	15199
917.938	15058
918.049	14967
918.161	15032
918.272	15184
918.384	15089
918.495	14990
918.606	14975
918.717	14861
918.828	14849
918.939	14914
919.05	14769
919.161	14918
919.272	14697
919.383	14720
919.494	14845
919.604	14967
919.715	14891
919.826	14762
919.936	14773
920.047	14925
920.157	14807
920.267	14952
920.378	14899
920.488	14758
920.598	15039
920.708	15131
920.818	14956
920.928	14944
921.038	15169
921.148	15108
921.258	14773
921.368	14750
921.477	14670
921.587	14621
921.697	14396
921.806	14552
921.916	14476
922.025	14282
922.134	14263
922.244	14050
922.353	14252
922.462	14126
922.571	14058
922.68	13845
922.789	13833
922.898	13913
923.007	13868
923.116	13909
923.224	13826
923.333	13795
923.442	13704
923.55	13685
923.659	13715
923.767	13746
923.876	13559
923.984	13651
924.092	13639
924.201	13613
924.309	13601
924.417	13594
924.525	13438
924.633	13422
924.741	14488
924.849	13324
924.956	13422
925.064	13206
925.172	13171
925.279	13259
925.387	13232
925.494	13285
925.602	13415
925.709	13278
925.816	13107
925.924	13263
926.031	13202
926.138	13179
926.245	13301
926.352	13080
926.459	13232
926.566	13190
926.673	13160
926.779	13133
926.886	12996
926.993	12913
927.099	12829
927.206	12833
927.312	12673
927.419	12810
927.525	12745
927.631	12875
927.737	12719
927.843	12639
927.95	12563
928.056	12627
928.162	12532
928.267	12730
928.373	13137
928.479	12715
928.585	12448
928.69	12582
928.796	12574
928.901	12448
929.007	12327
929.112	12551
929.218	12471
929.323	12361
929.428	12369
929.533	12464
929.638	12220
929.743	12330
929.848	12273
929.953	12311
930.058	12277
930.163	12034
930.267	12121
930.372	12110
930.477	11931
930.581	12182
930.685	12083
930.79	11885
930.894	11870
930.998	11878
931.103	12003
931.207	11665
931.311	11532
931.415	11509
931.519	11261
931.623	11284
