Data from test_V78500241_2159.txt Node
Date: Fri Mar 25 15:56:45 CST 2022
User: usil
Spectrometer: V785-0024
Trigger mode: 0
Integration Time (sec): 4.000000E-1
Scans to average: 1
Nonlinearity correction enabled: false
Boxcar width: 0
Storing dark spectrum: false
XAxis mode: Wavelengths
Number of Pixels in Spectrum: 1024
>>>>>Begin Spectral Data<<<<<
801.071	28930
801.214	28713
801.356	28637
801.499	28580
801.641	28580
801.783	28489
801.926	28478
802.068	28512
802.211	28303
802.353	28440
802.496	28185
802.638	28257
802.78	28048
802.923	28162
803.065	28090
803.208	28032
803.35	28131
803.492	28223
803.635	28348
803.777	28268
803.919	28462
804.061	28634
804.204	28447
804.346	28188
804.488	28318
804.63	28371
804.773	28344
804.915	28363
805.057	28504
805.199	28344
805.341	28356
805.483	28580
805.626	28538
805.768	28371
805.91	28493
806.052	28645
806.194	28538
806.336	28607
806.478	28371
806.62	28519
806.762	28702
806.904	28786
807.046	29098
807.188	28949
807.33	29025
807.472	29071
807.614	29048
807.756	28972
807.898	28801
808.04	28694
808.182	28854
808.324	28881
808.465	28934
808.607	29140
808.749	29200
808.891	29284
809.033	29379
809.174	29204
809.316	29193
809.458	29364
809.6	29208
809.741	29345
809.883	29341
810.025	29444
810.166	29341
810.308	29543
810.45	29444
810.591	29448
810.733	29315
810.875	29322
811.016	29189
811.158	29029
811.299	29261
811.441	29417
811.582	29417
811.724	29288
811.865	29185
812.007	29193
812.148	29273
812.29	29121
812.431	29463
812.573	29558
812.714	29786
812.855	29775
812.997	29961
813.138	29904
813.279	29897
813.421	29912
813.562	29851
813.703	29741
813.845	29516
813.986	29159
814.127	29029
814.268	28843
814.41	29052
814.551	28999
814.692	29037
814.833	28778
814.974	28896
815.115	28900
815.256	28824
815.397	28824
815.539	28790
815.68	28930
815.821	28820
815.962	28774
816.103	28831
816.244	28641
816.385	28611
816.526	28535
816.666	28310
816.807	28306
816.948	28344
817.089	28440
817.23	28417
817.371	28310
817.512	28120
817.653	28200
817.793	28306
817.934	28287
818.075	28265
818.216	28295
818.356	28166
818.497	28105
818.638	27922
818.778	28051
818.919	28074
819.06	28101
819.2	28200
819.341	28265
819.481	28204
819.622	28459
819.762	28664
819.903	28523
820.043	28554
820.184	28333
820.324	28413
820.465	28599
820.605	28401
820.746	28394
820.886	28276
821.026	28322
821.167	28405
821.307	28409
821.447	28306
821.588	28249
821.728	28105
821.868	27956
822.008	27762
822.149	27759
822.289	27667
822.429	27591
822.569	27469
822.709	27317
822.849	27302
822.99	27378
823.13	27192
823.27	27268
823.41	27096
823.55	27055
823.69	27047
823.83	27051
823.97	26998
824.11	26883
824.25	26944
824.389	26861
824.529	27074
824.669	26891
824.809	27043
824.949	27043
825.089	26940
825.228	26887
825.368	26765
825.508	26872
825.648	26838
825.787	26842
825.927	26758
826.067	26834
826.206	26925
826.346	26765
826.485	26754
826.625	26792
826.765	26880
826.904	26918
827.044	26499
827.183	26473
827.323	26533
827.462	26503
827.601	26503
827.741	26621
827.88	26549
828.02	26461
828.159	26564
828.298	26594
828.437	26541
828.577	26453
828.716	26442
828.855	26400
828.994	26225
829.134	26225
829.273	26088
829.412	26153
829.551	26267
829.69	26206
829.829	26214
829.968	26172
830.107	26122
830.246	26092
830.385	26012
830.524	26172
830.663	25997
830.802	26027
830.941	25887
831.08	25837
831.219	25902
831.357	25849
831.496	26065
831.635	25807
831.774	25753
831.913	25677
832.051	25647
832.19	25575
832.329	25761
832.467	25594
832.606	25514
832.744	25499
832.883	25365
833.022	25369
833.16	25529
833.299	25426
833.437	25495
833.576	25514
833.714	25525
833.852	25597
833.991	25556
834.129	25746
834.267	25613
834.406	25647
834.544	25628
834.682	25510
834.821	25559
834.959	25826
835.097	25483
835.235	25620
835.373	25556
835.511	25620
835.65	25369
835.788	25354
835.926	25278
836.064	25213
836.202	25217
836.34	25358
836.478	25468
836.615	25282
836.753	25354
836.891	25476
837.029	25369
837.167	25331
837.305	25255
837.443	25156
837.58	25198
837.718	25164
837.856	25228
837.993	25206
838.131	25129
838.269	25019
838.406	25198
838.544	25000
838.681	24791
838.819	24711
838.956	24654
839.094	24650
839.231	24700
839.369	24757
839.506	25012
839.643	24795
839.781	24620
839.918	24570
840.055	24563
840.193	24612
840.33	24494
840.467	24604
840.604	24650
840.742	24840
840.879	24509
841.016	24460
841.153	24391
841.29	24620
841.427	24540
841.564	24566
841.701	24498
841.838	24441
841.975	24418
842.112	24441
842.249	24361
842.385	24323
842.522	24521
842.659	24289
842.796	24296
842.933	24201
843.069	24220
843.206	24216
843.343	24460
843.479	24445
843.616	24273
843.752	24110
843.889	24121
844.025	24266
844.162	24095
844.298	24110
844.435	23973
844.571	24026
844.708	24076
844.844	24300
844.98	24228
845.117	24125
845.253	24041
845.389	23870
845.525	24098
845.661	23961
845.798	23760
845.934	23897
846.07	23889
846.206	23707
846.342	23863
846.478	23630
846.614	23733
846.75	23463
846.886	23444
847.022	23668
847.158	23623
847.294	23634
847.429	23547
847.565	23478
847.701	23634
847.837	23223
847.972	23277
848.108	23395
848.244	23337
848.379	23189
848.515	23121
848.65	23098
848.786	23060
848.921	23098
849.057	23155
849.192	23284
849.328	23071
849.463	23128
849.598	23151
849.734	22984
849.869	22999
850.004	22877
850.14	22858
850.275	22801
850.41	22790
850.545	22835
850.68	22831
850.815	22858
850.95	22896
851.085	22976
851.22	22927
851.355	22915
851.49	22850
851.625	22885
851.76	22809
851.895	22782
852.03	22812
852.165	22972
852.299	22858
852.434	22942
852.569	22816
852.703	22812
852.838	22904
852.973	23018
853.107	23052
853.242	22801
853.376	22763
853.511	22668
853.645	22603
853.78	22824
853.914	22698
854.048	22687
854.183	22687
854.317	22744
854.451	22831
854.585	22599
854.72	22729
854.854	22869
854.988	22615
855.122	22664
855.256	22573
855.39	22687
855.524	22710
855.658	22748
855.792	22774
855.926	22778
856.06	22706
856.194	22774
856.327	22561
856.461	22649
856.595	22557
856.729	22793
856.862	22706
856.996	22656
857.13	22733
857.263	22873
857.397	22824
857.53	22672
857.664	22675
857.797	22679
857.931	22972
858.064	22698
858.197	22736
858.331	22679
858.464	22634
858.597	22516
858.731	22660
858.864	22748
858.997	22679
859.13	22679
859.263	22744
859.396	22691
859.529	22691
859.662	22637
859.795	22706
859.928	22702
860.061	22801
860.194	22854
860.327	22645
860.46	22687
860.592	22717
860.725	22873
860.858	22885
860.99	22740
861.123	22561
861.256	22675
861.388	22679
861.521	23341
861.653	22615
861.786	22478
861.918	22436
862.05	22622
862.183	22573
862.315	22596
862.447	22668
862.58	22611
862.712	22413
862.844	22390
862.976	22523
863.108	22459
863.24	22889
863.372	22341
863.504	22402
863.636	22402
863.768	22341
863.9	22348
864.032	22329
864.164	22344
864.296	22493
864.428	22500
864.559	22493
864.691	22497
864.823	22318
864.954	22284
865.086	22348
865.217	22230
865.349	22230
865.48	22367
865.612	22318
865.743	22405
865.875	22234
866.006	22253
866.137	22284
866.269	22207
866.4	22261
866.531	22207
866.662	22185
866.793	22162
866.924	22105
867.055	22188
867.186	22230
867.317	22166
867.448	22086
867.579	22207
867.71	22101
867.841	22158
867.972	22109
868.103	22181
868.233	22200
868.364	22192
868.495	22272
868.625	22413
868.756	22398
868.886	22333
869.017	22485
869.147	22546
869.278	22500
869.408	22466
869.539	22371
869.669	22481
869.799	22489
869.929	22474
870.06	22580
870.19	22763
870.32	22683
870.45	22786
870.58	22831
870.71	22843
870.84	22999
870.97	22904
871.1	22771
871.23	22946
871.36	23071
871.489	22885
871.619	23018
871.749	23010
871.879	23029
872.008	23086
872.138	22949
872.267	22987
872.397	22957
872.526	22843
872.656	22797
872.785	22812
872.915	22942
873.044	23159
873.173	22995
873.303	23029
873.432	23140
873.561	23155
873.69	23121
873.819	23025
873.948	23204
874.077	22999
874.206	22987
874.335	23029
874.464	23166
874.593	23280
874.722	23330
874.851	23216
874.979	23330
875.108	23337
875.237	23284
875.365	23109
875.494	23311
875.623	23261
875.751	23143
875.88	23280
876.008	23512
876.136	23417
876.265	23745
876.393	23748
876.521	23672
876.65	23752
876.778	23729
876.906	23474
877.034	23562
877.162	23573
877.29	23581
877.418	23657
877.546	23649
877.674	23714
877.802	23528
877.93	23661
878.058	23581
878.185	23581
878.313	23505
878.441	23699
878.568	23398
878.696	23501
878.824	23695
878.951	23665
879.079	23828
879.206	23920
879.333	23718
879.461	23501
879.588	23604
879.715	23866
879.842	23882
879.97	23779
880.097	23398
880.224	23379
880.351	23570
880.478	23395
880.605	23452
880.732	23406
880.859	23748
880.986	23402
881.112	23436
881.239	23212
881.366	23178
881.493	23010
881.619	23014
881.746	22949
881.872	22847
881.999	22976
882.125	22896
882.252	23056
882.378	23014
882.505	23006
882.631	22778
882.757	22687
882.883	22771
883.01	22725
883.136	22531
883.262	22451
883.388	22519
883.514	22668
883.64	22641
883.766	22630
883.892	22390
884.018	22424
884.143	22573
884.269	22679
884.395	22226
884.52	22314
884.646	22280
884.772	22188
884.897	22219
885.023	22291
885.148	22249
885.274	22409
885.399	22382
885.524	22196
885.65	22295
885.775	22341
885.9	22200
886.025	22382
886.15	22303
886.275	22234
886.4	22158
886.525	22291
886.65	22230
886.775	22143
886.9	22379
887.025	22523
887.149	22120
887.274	22284
887.399	22021
887.523	22044
887.648	21968
887.773	21945
887.897	22181
888.021	22093
888.146	21915
888.27	22147
888.395	22166
888.519	22048
888.643	22051
888.767	22090
888.891	21899
889.015	21899
889.139	21937
889.263	21819
889.387	21762
889.511	22017
889.635	21941
889.759	21823
889.883	21884
890.006	21926
890.13	21831
890.254	21679
890.377	21728
890.501	21530
890.624	21416
890.748	21656
890.871	21443
890.995	21386
891.118	21321
891.241	21351
891.364	21447
891.488	21428
891.611	21412
891.734	21325
891.857	21313
891.98	21367
892.103	21428
892.226	21279
892.349	21405
892.471	21180
892.594	21256
892.717	21245
892.839	21192
892.962	21272
893.085	21256
893.207	21283
893.33	21268
893.452	21199
893.575	21294
893.697	21283
893.819	21485
893.941	21504
894.064	21408
894.186	21165
894.308	21184
894.43	21348
894.552	21294
894.674	21359
894.796	21070
894.918	21195
895.04	21283
895.161	21214
895.283	21359
895.405	21161
895.526	21180
895.648	21135
895.769	21302
895.891	21332
896.012	21424
896.134	21249
896.255	21249
896.376	21192
896.498	21176
896.619	21291
896.74	21195
896.861	21199
896.982	21519
897.103	21580
897.224	21488
897.345	21355
897.466	21348
897.587	21401
897.708	21523
897.828	21382
897.949	21325
898.07	21317
898.19	21393
898.311	21473
898.431	21374
898.552	21386
898.672	21420
898.792	21530
898.913	21386
899.033	21302
899.153	21241
899.273	21135
899.393	21108
899.513	21161
899.633	21203
899.753	21237
899.873	21077
899.993	21237
900.113	21032
900.232	21157
900.352	21096
900.472	21043
900.591	20956
900.711	20876
900.83	20842
900.95	21009
901.069	21020
901.189	20804
901.308	20533
901.427	20442
901.546	20575
901.665	20446
901.784	20556
901.904	20313
902.023	20267
902.141	20008
902.26	19993
902.379	20077
902.498	19906
902.617	19868
902.735	20027
902.854	19906
902.973	19902
903.091	19746
903.21	19590
903.328	19647
903.446	19655
903.565	19571
903.683	19392
903.801	19362
903.919	19453
904.038	19438
904.156	19285
904.274	19274
904.392	19152
904.51	19297
904.627	19137
904.745	19209
904.863	19289
904.981	18993
905.098	18871
905.216	18863
905.334	18844
905.451	18787
905.569	18935
905.686	18856
905.803	18833
905.921	18669
906.038	18757
906.155	18654
906.272	18513
906.389	18525
906.506	18410
906.623	18410
906.74	18391
906.857	18213
906.974	18205
907.091	18475
907.208	18460
907.324	18384
907.441	18258
907.557	18159
907.674	18136
907.79	18026
907.907	18003
908.023	18148
908.139	18087
908.256	18095
908.372	18007
908.488	17992
908.604	17760
908.72	17805
908.836	17745
908.952	17798
909.068	17809
909.184	17927
909.3	17828
909.415	17851
909.531	17809
909.647	17661
909.762	17562
909.878	17463
909.993	17448
910.108	17436
910.224	17425
910.339	17421
910.454	17239
910.57	17197
910.685	17258
910.8	17440
910.915	17402
911.03	17341
911.145	17261
911.259	17124
911.374	17010
911.489	16923
911.604	16889
911.718	16900
911.833	16835
911.947	16687
912.062	16664
912.176	16778
912.291	16744
912.405	16782
912.519	17060
912.633	16949
912.748	16873
912.862	16763
912.976	16649
913.09	16519
913.204	16561
913.318	16664
913.431	16668
913.545	16683
913.659	16706
913.772	16588
913.886	16538
914	16371
914.113	16470
914.226	16538
914.34	16443
914.453	16265
914.566	16348
914.68	16356
914.793	16299
914.906	16051
915.019	16078
915.132	15899
915.245	15937
915.358	16025
915.47	15876
915.583	15964
915.696	15934
915.809	16071
915.921	16025
916.034	15922
916.146	15911
916.259	15819
916.371	15956
916.483	15956
916.595	15861
916.708	15789
916.82	15816
916.932	15717
917.044	15766
917.156	15641
917.268	15603
917.38	15576
917.491	15557
917.603	15545
917.715	15682
917.826	15622
917.938	15439
918.049	15401
918.161	15447
918.272	15747
918.384	15671
918.495	15526
918.606	15332
918.717	15294
918.828	15351
918.939	15420
919.05	15264
919.161	15332
919.272	15195
919.383	15222
919.494	15367
919.604	15557
919.715	15382
919.826	15135
919.936	15283
920.047	15382
920.157	15275
920.267	15428
920.378	15332
920.488	15218
920.598	15462
920.708	15652
920.818	15431
920.928	15401
921.038	15500
921.148	15492
921.258	15150
921.368	15157
921.477	15195
921.587	15085
921.697	14948
921.806	15028
921.916	14849
922.025	14842
922.134	14724
922.244	14579
922.353	14712
922.462	14514
922.571	14549
922.68	14294
922.789	14309
922.898	14259
923.007	14320
923.116	14377
923.224	14317
923.333	14278
923.442	14252
923.55	14081
923.659	14168
923.767	14244
923.876	14130
923.984	14130
924.092	13883
924.201	14016
924.309	13997
924.417	14035
924.525	14008
924.633	14005
924.741	14724
924.849	13746
924.956	13928
925.064	13807
925.172	13670
925.279	13727
925.387	13734
925.494	13613
925.602	13879
925.709	13708
925.816	13704
925.924	13571
926.031	13643
926.138	13647
926.245	13685
926.352	13521
926.459	13685
926.566	13658
926.673	13563
926.779	13438
926.886	13354
926.993	13373
927.099	13266
927.206	13228
927.312	13183
927.419	13274
927.525	13221
927.631	13228
927.737	13091
927.843	13145
927.95	13034
928.056	13027
928.162	13099
928.267	12989
928.373	13780
928.479	13228
928.585	12856
928.69	12935
928.796	13012
928.901	12920
929.007	12707
929.112	12943
929.218	12878
929.323	12715
929.428	12730
929.533	12833
929.638	12688
929.743	12764
929.848	12627
929.953	12650
930.058	12604
930.163	12521
930.267	12418
930.372	12494
930.477	12418
930.581	12616
930.685	12445
930.79	12323
930.894	12266
930.998	12281
931.103	12437
931.207	11977
931.311	11973
931.415	11863
931.519	11653
931.623	11729
