Data from test_V78500241_3596.txt Node
Date: Fri Mar 25 16:06:42 CST 2022
User: usil
Spectrometer: V785-0024
Trigger mode: 0
Integration Time (sec): 4.000000E-1
Scans to average: 1
Nonlinearity correction enabled: false
Boxcar width: 0
Storing dark spectrum: false
XAxis mode: Wavelengths
Number of Pixels in Spectrum: 1024
>>>>>Begin Spectral Data<<<<<
801.071	28923
801.214	28972
801.356	28698
801.499	28573
801.641	28557
801.783	28588
801.926	28466
802.068	28436
802.211	28478
802.353	28329
802.496	28230
802.638	28329
802.78	28238
802.923	28147
803.065	28131
803.208	28253
803.35	28246
803.492	28280
803.635	28675
803.777	28344
803.919	28573
804.061	28725
804.204	28557
804.346	28371
804.488	28333
804.63	28470
804.773	28333
804.915	28542
805.057	28649
805.199	28470
805.341	28497
805.483	28668
805.626	28577
805.768	28519
805.91	28607
806.052	28687
806.194	28592
806.336	28793
806.478	28702
806.62	28672
806.762	28786
806.904	28877
807.046	29174
807.188	29140
807.33	29162
807.472	29322
807.614	29132
807.756	29189
807.898	28942
808.04	28793
808.182	28839
808.324	29067
808.465	29075
808.607	29269
808.749	29307
808.891	29436
809.033	29543
809.174	29402
809.316	29440
809.458	29379
809.6	29353
809.741	29463
809.883	29471
810.025	29551
810.166	29627
810.308	29547
810.45	29486
810.591	29634
810.733	29486
810.875	29417
811.016	29345
811.158	29296
811.299	29364
811.441	29562
811.582	29539
811.724	29387
811.865	29512
812.007	29444
812.148	29322
812.29	29490
812.431	29501
812.573	29817
812.714	29859
812.855	29889
812.997	30064
813.138	29977
813.279	29912
813.421	29904
813.562	29851
813.703	29794
813.845	29661
813.986	29372
814.127	29162
814.268	29132
814.41	29029
814.551	29006
814.692	29098
814.833	29105
814.974	29086
815.115	29132
815.256	28854
815.397	28919
815.539	28877
815.68	29010
815.821	28752
815.962	28949
816.103	28896
816.244	28820
816.385	28653
816.526	28694
816.666	28538
816.807	28371
816.948	28493
817.089	28550
817.23	28459
817.371	28500
817.512	28432
817.653	28291
817.793	28318
817.934	28386
818.075	28485
818.216	28466
818.356	28356
818.497	28413
818.638	28139
818.778	28177
818.919	28223
819.06	28185
819.2	28295
819.341	28531
819.481	28474
819.622	28611
819.762	28820
819.903	28721
820.043	28561
820.184	28611
820.324	28584
820.465	28687
820.605	28531
820.746	28481
820.886	28325
821.026	28550
821.167	28459
821.307	28519
821.447	28531
821.588	28382
821.728	28143
821.868	28059
822.008	27979
822.149	28032
822.289	27819
822.429	27576
822.569	27705
822.709	27606
822.849	27504
822.99	27538
823.13	27583
823.27	27405
823.41	27150
823.55	27169
823.69	27169
823.83	27184
823.97	27089
824.11	27036
824.25	26921
824.389	27089
824.529	27279
824.669	27051
824.809	27116
824.949	27192
825.089	27154
825.228	27157
825.368	26948
825.508	26971
825.648	26895
825.787	27039
825.927	27001
826.067	27024
826.206	26876
826.346	27058
826.485	27123
826.625	27024
826.765	27085
826.904	27104
827.044	26940
827.183	26640
827.323	26674
827.462	26590
827.601	26735
827.741	26621
827.88	26693
828.02	26598
828.159	26716
828.298	26743
828.437	26804
828.577	26564
828.716	26701
828.855	26640
828.994	26305
829.134	26210
829.273	26412
829.412	26328
829.551	26377
829.69	26332
829.829	26267
829.968	26370
830.107	26381
830.246	26358
830.385	26358
830.524	26161
830.663	26103
830.802	26119
830.941	26062
831.08	25925
831.219	25982
831.357	26122
831.496	26180
831.635	25951
831.774	25807
831.913	25928
832.051	25757
832.19	25647
832.329	25879
832.467	25594
832.606	25670
832.744	25495
832.883	25620
833.022	25460
833.16	25552
833.299	25658
833.437	25765
833.576	25712
833.714	25605
833.852	25715
833.991	25719
834.129	25704
834.267	25715
834.406	25651
834.544	25681
834.682	25746
834.821	25639
834.959	25902
835.097	25655
835.235	25856
835.373	25677
835.511	25712
835.65	25723
835.788	25400
835.926	25358
836.064	25217
836.202	25369
836.34	25655
836.478	25544
836.615	25521
836.753	25502
836.891	25757
837.029	25628
837.167	25434
837.305	25483
837.443	25529
837.58	25343
837.718	25457
837.856	25392
837.993	25354
838.131	25400
838.269	25327
838.406	25316
838.544	25122
838.681	25008
838.819	24928
838.956	24749
839.094	24783
839.231	24802
839.369	24989
839.506	25217
839.643	25088
839.781	24909
839.918	24753
840.055	24795
840.193	24707
840.33	24620
840.467	24658
840.604	24658
840.742	24947
840.879	24540
841.016	24669
841.153	24597
841.29	24658
841.427	24715
841.564	24814
841.701	24688
841.838	24768
841.975	24521
842.112	24627
842.249	24517
842.385	24464
842.522	24696
842.659	24498
842.796	24574
842.933	24513
843.069	24323
843.206	24376
843.343	24509
843.479	24505
843.616	24475
843.752	24369
843.889	24220
844.025	24490
844.162	24136
844.298	24319
844.435	24308
844.571	24133
844.708	24216
844.844	24437
844.98	24452
845.117	24342
845.253	24235
845.389	24068
845.525	24125
845.661	24251
845.798	24057
845.934	24064
846.07	23965
846.206	24064
846.342	24194
846.478	23946
846.614	23703
846.75	23672
846.886	23729
847.022	23729
847.158	23718
847.294	23699
847.429	23611
847.565	23642
847.701	23920
847.837	23433
847.972	23372
848.108	23566
848.244	23455
848.379	23269
848.515	23231
848.65	23109
848.786	23307
848.921	23269
849.057	23436
849.192	23299
849.328	23387
849.463	23117
849.598	23223
849.734	23197
849.869	23132
850.004	23048
850.14	23018
850.275	22968
850.41	22938
850.545	23094
850.68	22930
850.815	23075
850.95	23033
851.085	23178
851.22	23216
851.355	23067
851.49	22923
851.625	22987
851.76	23025
851.895	22889
852.03	22942
852.165	23064
852.299	23151
852.434	23079
852.569	23181
852.703	22995
852.838	23117
852.973	23174
853.107	23147
853.242	22968
853.376	22896
853.511	22881
853.645	22740
853.78	23098
853.914	22911
854.048	22706
854.183	22873
854.317	22862
854.451	23117
854.585	22965
854.72	22759
854.854	22999
854.988	22786
855.122	22869
855.256	22710
855.39	22949
855.524	22816
855.658	22938
855.792	22862
855.926	22923
856.06	22915
856.194	22824
856.327	22850
856.461	22687
856.595	22927
856.729	22968
856.862	22889
856.996	22843
857.13	22968
857.263	23003
857.397	22934
857.53	22740
857.664	22904
857.797	22980
857.931	23079
858.064	22881
858.197	22946
858.331	22869
858.464	22835
858.597	22824
858.731	22698
858.864	22881
858.997	22725
859.13	22782
859.263	22923
859.396	22892
859.529	22911
859.662	22793
859.795	22767
859.928	22885
860.061	22972
860.194	23102
860.327	23048
860.46	22946
860.592	22904
860.725	23006
860.858	23060
860.99	22919
861.123	22679
861.256	22786
861.388	22858
861.521	23509
861.653	22729
861.786	22691
861.918	22736
862.05	22645
862.183	22767
862.315	22854
862.447	22809
862.58	22797
862.712	22580
862.844	22580
862.976	22573
863.108	22691
863.24	23014
863.372	22489
863.504	22744
863.636	22516
863.768	22645
863.9	22569
864.032	22565
864.164	22615
864.296	22573
864.428	22664
864.559	22611
864.691	22630
864.823	22493
864.954	22569
865.086	22523
865.217	22470
865.349	22443
865.48	22436
865.612	22363
865.743	22653
865.875	22459
866.006	22424
866.137	22459
866.269	22268
866.4	22421
866.531	22318
866.662	22322
866.793	22413
866.924	22344
867.055	22337
867.186	22398
867.317	22363
867.448	22360
867.579	22322
867.71	22253
867.841	22394
867.972	22249
868.103	22325
868.233	22394
868.364	22356
868.495	22379
868.625	22516
868.756	22687
868.886	22622
869.017	22679
869.147	22801
869.278	22702
869.408	22531
869.539	22618
869.669	22645
869.799	22710
869.929	22755
870.06	22710
870.19	22934
870.32	22797
870.45	23003
870.58	23052
870.71	22968
870.84	23060
870.97	23018
871.1	23067
871.23	23227
871.36	23288
871.489	23079
871.619	23231
871.749	23204
871.879	23288
872.008	23280
872.138	23136
872.267	23174
872.397	23064
872.526	23086
872.656	23083
872.785	22949
872.915	23181
873.044	23280
873.173	23200
873.303	23258
873.432	23311
873.561	23315
873.69	23220
873.819	23299
873.948	23292
874.077	23265
874.206	23132
874.335	23372
874.464	23303
874.593	23478
874.722	23383
874.851	23467
874.979	23482
875.108	23398
875.237	23284
875.365	23284
875.494	23421
875.623	23455
875.751	23425
875.88	23482
876.008	23615
876.136	23611
876.265	23794
876.393	23904
876.521	23798
876.65	23973
876.778	23965
876.906	23821
877.034	23771
877.162	23874
877.29	23627
877.418	23699
877.546	23809
877.674	23756
877.802	23752
877.93	23710
878.058	23703
878.185	23627
878.313	23847
878.441	23775
878.568	23642
878.696	23691
878.824	23775
878.951	23931
879.079	23977
879.206	24034
879.333	23912
879.461	23855
879.588	23866
879.715	23843
879.842	23992
879.97	23824
880.097	23726
880.224	23573
880.351	23649
880.478	23661
880.605	23596
880.732	23486
880.859	23840
880.986	23657
881.112	23623
881.239	23543
881.366	23337
881.493	23296
881.619	23170
881.746	23204
881.872	23208
881.999	23143
882.125	23143
882.252	23159
882.378	23044
882.505	23174
882.631	23003
882.757	22736
882.883	22835
883.01	22862
883.136	22809
883.262	22622
883.388	22615
883.514	22873
883.64	22866
883.766	22801
883.892	22478
884.018	22615
884.143	22812
884.269	22755
884.395	22493
884.52	22516
884.646	22474
884.772	22424
884.897	22394
885.023	22550
885.148	22611
885.274	22611
885.399	22497
885.524	22344
885.65	22546
885.775	22455
885.9	22390
886.025	22573
886.15	22478
886.275	22409
886.4	22226
886.525	22386
886.65	22352
886.775	22390
886.9	22489
887.025	22637
887.149	22428
887.274	22242
887.399	22284
887.523	22272
887.648	22196
887.773	22116
887.897	22226
888.021	22280
888.146	22070
888.27	22287
888.395	22204
888.519	22249
888.643	22230
888.767	22226
888.891	22128
889.015	22040
889.139	22036
889.263	21869
889.387	22154
889.511	22135
889.635	22055
889.759	21956
889.883	21983
890.006	22025
890.13	21964
890.254	21876
890.377	21983
890.501	21732
890.624	21648
890.748	21819
890.871	21690
890.995	21481
891.118	21321
891.241	21641
891.364	21576
891.488	21591
891.611	21564
891.734	21473
891.857	21591
891.98	21591
892.103	21466
892.226	21488
892.349	21264
892.471	21348
892.594	21393
892.717	21564
892.839	21405
892.962	21344
893.085	21420
893.207	21359
893.33	21325
893.452	21359
893.575	21458
893.697	21397
893.819	21473
893.941	21637
894.064	21572
894.186	21405
894.308	21374
894.43	21458
894.552	21542
894.674	21382
894.796	21298
894.918	21359
895.04	21313
895.161	21473
895.283	21435
895.405	21245
895.526	21424
895.648	21325
895.769	21382
895.891	21458
896.012	21435
896.134	21408
896.255	21485
896.376	21344
896.498	21416
896.619	21431
896.74	21344
896.861	21488
896.982	21705
897.103	21797
897.224	21485
897.345	21481
897.466	21618
897.587	21717
897.708	21667
897.828	21618
897.949	21431
898.07	21408
898.19	21458
898.311	21515
898.431	21485
898.552	21591
898.672	21622
898.792	21591
898.913	21526
899.033	21367
899.153	21370
899.273	21173
899.393	21348
899.513	21252
899.633	21256
899.753	21245
899.873	21195
899.993	21264
900.113	21325
900.232	21351
900.352	21176
900.472	21055
900.591	21036
900.711	21009
900.83	21001
900.95	21199
901.069	21192
901.189	20937
901.308	20758
901.427	20609
901.546	20575
901.665	20522
901.784	20488
901.904	20541
902.023	20495
902.141	20199
902.26	20122
902.379	20183
902.498	20142
902.617	20153
902.735	20187
902.854	20134
902.973	19967
903.091	19780
903.21	19727
903.328	19765
903.446	19689
903.565	19571
903.683	19594
903.801	19597
903.919	19453
904.038	19712
904.156	19240
904.274	19514
904.392	19339
904.51	19331
904.627	19304
904.745	19441
904.863	19377
904.981	19156
905.098	19095
905.216	19118
905.334	18989
905.451	19099
905.569	18924
905.686	18935
905.803	18859
905.921	18741
906.038	18852
906.155	18753
906.272	18646
906.389	18627
906.506	18475
906.623	18604
906.74	18513
906.857	18407
906.974	18323
907.091	18559
907.208	18646
907.324	18578
907.441	18365
907.557	18224
907.674	18281
907.79	18197
907.907	18266
908.023	18285
908.139	18270
908.256	18167
908.372	18129
908.488	18220
908.604	18041
908.72	17908
908.836	17908
908.952	17889
909.068	17908
909.184	18076
909.3	17874
909.415	17965
909.531	17946
909.647	17585
909.762	17707
909.878	17718
909.993	17646
910.108	17657
910.224	17672
910.339	17600
910.454	17402
910.57	17524
910.685	17356
910.8	17608
910.915	17615
911.03	17528
911.145	17254
911.259	17239
911.374	17239
911.489	17090
911.604	17090
911.718	17041
911.833	17018
911.947	16850
912.062	16820
912.176	16900
912.291	17029
912.405	16930
912.519	17124
912.633	17136
912.748	16987
912.862	16987
912.976	16752
913.09	16736
913.204	16687
913.318	16854
913.431	16824
913.545	16812
913.659	16854
913.772	16653
913.886	16698
914	16512
914.113	16596
914.226	16637
914.34	16561
914.453	16371
914.566	16569
914.68	16478
914.793	16375
914.906	16272
915.019	16105
915.132	16097
915.245	16078
915.358	16154
915.47	16139
915.583	16131
915.696	16131
915.809	16131
915.921	16276
916.034	15953
916.146	16051
916.259	15972
916.371	16207
916.483	15968
916.595	15983
916.708	15926
916.82	16078
916.932	15876
917.044	15892
917.156	15873
917.268	15663
917.38	15804
917.491	15724
917.603	15671
917.715	15903
917.826	15781
917.938	15739
918.049	15568
918.161	15755
918.272	15759
918.384	15732
918.495	15622
918.606	15481
918.717	15416
918.828	15511
918.939	15477
919.05	15431
919.161	15374
919.272	15260
919.383	15306
919.494	15568
919.604	15595
919.715	15485
919.826	15351
919.936	15439
920.047	15439
920.157	15401
920.267	15599
920.378	15389
920.488	15348
920.598	15568
920.708	15739
920.818	15625
920.928	15500
921.038	15686
921.148	15679
921.258	15359
921.368	15340
921.477	15112
921.587	15104
921.697	15001
921.806	15142
921.916	14937
922.025	14864
922.134	14758
922.244	14701
922.353	14819
922.462	14663
922.571	14556
922.68	14518
922.789	14374
922.898	14400
923.007	14377
923.116	14336
923.224	14305
923.333	14313
923.442	14218
923.55	14199
923.659	14214
923.767	14328
923.876	14180
923.984	14244
924.092	14142
924.201	14107
924.309	14134
924.417	14126
924.525	14073
924.633	14005
924.741	14941
924.849	13818
924.956	13921
925.064	13757
925.172	13719
925.279	13712
925.387	13784
925.494	13860
925.602	13986
925.709	13772
925.816	13712
925.924	13776
926.031	13837
926.138	13700
926.245	13814
926.352	13533
926.459	13750
926.566	13715
926.673	13590
926.779	13540
926.886	13491
926.993	13316
927.099	13312
927.206	13251
927.312	13198
927.419	13346
927.525	13324
927.631	13240
927.737	13129
927.843	13202
927.95	12981
928.056	13046
928.162	13080
928.267	13187
928.373	13674
928.479	13126
928.585	13004
928.69	13088
928.796	13053
928.901	13012
929.007	12741
929.112	12977
929.218	12894
929.323	12852
929.428	12837
929.533	12825
929.638	12741
929.743	12764
929.848	12802
929.953	12749
930.058	12589
930.163	12395
930.267	12486
930.372	12646
930.477	12475
930.581	12665
930.685	12540
930.79	12422
930.894	12353
930.998	12319
931.103	12426
931.207	12087
931.311	12030
931.415	11996
931.519	11733
931.623	11680
