Data from test_V78500241_630.txt Node
Date: Fri Mar 25 15:46:09 CST 2022
User: usil
Spectrometer: V785-0024
Trigger mode: 0
Integration Time (sec): 4.000000E-1
Scans to average: 1
Nonlinearity correction enabled: false
Boxcar width: 0
Storing dark spectrum: false
XAxis mode: Wavelengths
Number of Pixels in Spectrum: 1024
>>>>>Begin Spectral Data<<<<<
801.071	28306
801.214	28109
801.356	28013
801.499	27789
801.641	27660
801.783	27766
801.926	27835
802.068	27739
802.211	27797
802.353	27545
802.496	27538
802.638	27393
802.78	27416
802.923	27344
803.065	27340
803.208	27462
803.35	27530
803.492	27549
803.635	27625
803.777	27412
803.919	27530
804.061	27934
804.204	27534
804.346	27576
804.488	27420
804.63	27443
804.773	27496
804.915	27660
805.057	27800
805.199	27713
805.341	27682
805.483	27713
805.626	27644
805.768	27629
805.91	27698
806.052	27751
806.194	27629
806.336	27888
806.478	27766
806.62	27781
806.762	27975
806.904	28017
807.046	28207
807.188	28101
807.33	28154
807.472	28131
807.614	28109
807.756	28120
807.898	28112
808.04	27998
808.182	28086
808.324	28143
808.465	28147
808.607	28329
808.749	28405
808.891	28424
809.033	28535
809.174	28474
809.316	28322
809.458	28455
809.6	28542
809.741	28512
809.883	28557
810.025	28672
810.166	28691
810.308	28710
810.45	28634
810.591	28634
810.733	28291
810.875	28474
811.016	28295
811.158	28257
811.299	28569
811.441	28626
811.582	28538
811.724	28523
811.865	28352
812.007	28436
812.148	28440
812.29	28462
812.431	28668
812.573	28774
812.714	28816
812.855	28965
812.997	29041
813.138	29189
813.279	29022
813.421	28999
813.562	28915
813.703	28809
813.845	28599
813.986	28234
814.127	28207
814.268	28097
814.41	28223
814.551	28131
814.692	28131
814.833	28010
814.974	28070
815.115	28204
815.256	27865
815.397	27998
815.539	27945
815.68	27922
815.821	27899
815.962	27991
816.103	27895
816.244	27827
816.385	27682
816.526	27720
816.666	27557
816.807	27507
816.948	27523
817.089	27526
817.23	27557
817.371	27431
817.512	27458
817.653	27245
817.793	27222
817.934	27359
818.075	27408
818.216	27481
818.356	27306
818.497	27298
818.638	27100
818.778	27176
818.919	27218
819.06	27268
819.2	27397
819.341	27469
819.481	27317
819.622	27462
819.762	27675
819.903	27663
820.043	27637
820.184	27561
820.324	27393
820.465	27667
820.605	27523
820.746	27450
820.886	27382
821.026	27435
821.167	27481
821.307	27477
821.447	27435
821.588	27283
821.728	27131
821.868	27127
822.008	26975
822.149	26838
822.289	26887
822.429	26762
822.569	26659
822.709	26541
822.849	26408
822.99	26393
823.13	26396
823.27	26298
823.41	26290
823.55	26183
823.69	26370
823.83	26172
823.97	26142
824.11	25814
824.25	25966
824.389	26031
824.529	26103
824.669	25989
824.809	26149
824.949	26088
825.089	26081
825.228	26161
825.368	25940
825.508	26073
825.648	26027
825.787	25890
825.927	26046
826.067	25947
826.206	25845
826.346	25951
826.485	25909
826.625	25887
826.765	25947
826.904	25970
827.044	25681
827.183	25567
827.323	25559
827.462	25681
827.601	25635
827.741	25632
827.88	25578
828.02	25601
828.159	25578
828.298	25529
828.437	25616
828.577	25472
828.716	25643
828.855	25628
828.994	25400
829.134	25331
829.273	25369
829.412	25285
829.551	25278
829.69	25377
829.829	25213
829.968	25468
830.107	25350
830.246	25251
830.385	25198
830.524	25118
830.663	25095
830.802	25179
830.941	24848
831.08	24890
831.219	25114
831.357	25080
831.496	25012
831.635	24894
831.774	25031
831.913	24943
832.051	24757
832.19	24738
832.329	24840
832.467	24597
832.606	24688
832.744	24639
832.883	24589
833.022	24525
833.16	24547
833.299	24612
833.437	24574
833.576	24707
833.714	24726
833.852	24760
833.991	24703
834.129	24863
834.267	24684
834.406	24764
834.544	24700
834.682	24616
834.821	24639
834.959	24719
835.097	24749
835.235	24623
835.373	24555
835.511	24540
835.65	24574
835.788	24471
835.926	24384
836.064	24365
836.202	24292
836.34	24578
836.478	24566
836.615	24441
836.753	24452
836.891	24479
837.029	24574
837.167	24403
837.305	24422
837.443	24410
837.58	24228
837.718	24471
837.856	24433
837.993	24251
838.131	24330
838.269	24098
838.406	24209
838.544	24167
838.681	24053
838.819	23927
838.956	23851
839.094	23729
839.231	23878
839.369	23897
839.506	24022
839.643	24095
839.781	23821
839.918	23741
840.055	23840
840.193	23722
840.33	23722
840.467	23729
840.604	23733
840.742	23901
840.879	23558
841.016	23737
841.153	23535
841.29	23665
841.427	23657
841.564	23832
841.701	23699
841.838	23581
841.975	23657
842.112	23627
842.249	23509
842.385	23436
842.522	23668
842.659	23592
842.796	23368
842.933	23402
843.069	23402
843.206	23299
843.343	23482
843.479	23433
843.616	23509
843.752	23162
843.889	23216
844.025	23288
844.162	23170
844.298	23341
844.435	23117
844.571	23258
844.708	23197
844.844	23410
844.98	23360
845.117	23345
845.253	23155
845.389	23254
845.525	23170
845.661	23178
845.798	22896
845.934	23033
846.07	23052
846.206	22957
846.342	23166
846.478	22949
846.614	22831
846.75	22588
846.886	22641
847.022	22733
847.158	22611
847.294	22691
847.429	22725
847.565	22607
847.701	22934
847.837	22443
847.972	22371
848.108	22459
848.244	22675
848.379	22272
848.515	22356
848.65	22185
848.786	22223
848.921	22169
849.057	22497
849.192	22284
849.328	22337
849.463	22223
849.598	22261
849.734	22242
849.869	22120
850.004	22131
850.14	22063
850.275	22051
850.41	22124
850.545	21956
850.68	21975
850.815	22013
850.95	21991
851.085	22215
851.22	22188
851.355	22093
851.49	21975
851.625	21884
851.76	21842
851.895	22051
852.03	21930
852.165	22051
852.299	22048
852.434	22116
852.569	22078
852.703	22150
852.838	22044
852.973	22215
853.107	22200
853.242	21968
853.376	21956
853.511	21842
853.645	21751
853.78	22025
853.914	21812
854.048	21739
854.183	21922
854.317	21991
854.451	21968
854.585	21800
854.72	21922
854.854	22116
854.988	21770
855.122	21892
855.256	21660
855.39	21915
855.524	21956
855.658	21907
855.792	21972
855.926	21926
856.06	21861
856.194	21994
856.327	21865
856.461	21918
856.595	21861
856.729	21690
856.862	22040
856.996	21918
857.13	22006
857.263	22002
857.397	21888
857.53	21934
857.664	21884
857.797	21979
857.931	21899
858.064	21918
858.197	21915
858.331	21827
858.464	21880
858.597	21713
858.731	21915
858.864	21835
858.997	21831
859.13	21774
859.263	21994
859.396	21846
859.529	21835
859.662	21861
859.795	21709
859.928	21960
860.061	21960
860.194	22006
860.327	21911
860.46	21903
860.592	21846
860.725	21926
860.858	21922
860.99	21865
861.123	21816
861.256	21800
861.388	21884
861.521	22466
861.653	21736
861.786	21622
861.918	21637
862.05	21660
862.183	21667
862.315	21751
862.447	21759
862.58	21789
862.712	21580
862.844	21519
862.976	21717
863.108	21614
863.24	22032
863.372	21656
863.504	21587
863.636	21492
863.768	21614
863.9	21648
864.032	21534
864.164	21496
864.296	21564
864.428	21667
864.559	21545
864.691	21591
864.823	21587
864.954	21462
865.086	21572
865.217	21485
865.349	21382
865.48	21473
865.612	21443
865.743	21625
865.875	21447
866.006	21389
866.137	21507
866.269	21538
866.4	21393
866.531	21393
866.662	21321
866.793	21397
866.924	21374
867.055	21447
867.186	21367
867.317	21226
867.448	21135
867.579	21291
867.71	21237
867.841	21386
867.972	21447
868.103	21340
868.233	21393
868.364	21382
868.495	21477
868.625	21629
868.756	21789
868.886	21564
869.017	21641
869.147	21679
869.278	21644
869.408	21698
869.539	21564
869.669	21705
869.799	21599
869.929	21644
870.06	21857
870.19	21819
870.32	22036
870.45	21831
870.58	22067
870.71	22101
870.84	22128
870.97	22112
871.1	22051
871.23	22246
871.36	22112
871.489	22120
871.619	22185
871.749	22177
871.879	22261
872.008	22253
872.138	22261
872.267	22322
872.397	22207
872.526	22051
872.656	22006
872.785	22048
872.915	22200
873.044	22272
873.173	22284
873.303	22322
873.432	22257
873.561	22242
873.69	22280
873.819	22185
873.948	22226
874.077	22261
874.206	22109
874.335	22154
874.464	22318
874.593	22462
874.722	22523
874.851	22485
874.979	22455
875.108	22424
875.237	22287
875.365	22318
875.494	22432
875.623	22550
875.751	22405
875.88	22531
876.008	22527
876.136	22649
876.265	22774
876.393	23086
876.521	22850
876.65	22869
876.778	22805
876.906	22866
877.034	22729
877.162	22919
877.29	22721
877.418	22892
877.546	22782
877.674	22877
877.802	22717
877.93	22679
878.058	22763
878.185	22694
878.313	22786
878.441	22805
878.568	22698
878.696	22759
878.824	22816
878.951	22938
879.079	23033
879.206	23155
879.333	23075
879.461	22809
879.588	23003
879.715	22915
879.842	22961
879.97	22923
880.097	22664
880.224	22672
880.351	22645
880.478	22493
880.605	22634
880.732	22500
880.859	22946
880.986	22649
881.112	22615
881.239	22424
881.366	22382
881.493	22284
881.619	22268
881.746	22116
881.872	22169
881.999	22143
882.125	22101
882.252	22185
882.378	22147
882.505	22166
882.631	21983
882.757	21850
882.883	22006
883.01	21994
883.136	21884
883.262	21861
883.388	21644
883.514	21888
883.64	21701
883.766	21762
883.892	21682
884.018	21629
884.143	21701
884.269	21937
884.395	21534
884.52	21641
884.646	21420
884.772	21393
884.897	21408
885.023	21564
885.148	21545
885.274	21652
885.399	21694
885.524	21534
885.65	21382
885.775	21515
885.9	21473
886.025	21576
886.15	21542
886.275	21481
886.4	21393
886.525	21351
886.65	21393
886.775	21405
886.9	21652
887.025	21781
887.149	21408
887.274	21329
887.399	21233
887.523	21222
887.648	21313
887.773	21230
887.897	21351
888.021	21268
888.146	21306
888.27	21401
888.395	21420
888.519	21336
888.643	21310
888.767	21291
888.891	21173
889.015	21135
889.139	21131
889.263	21116
889.387	21131
889.511	21310
889.635	21116
889.759	21070
889.883	21055
890.006	20986
890.13	21146
890.254	21047
890.377	21013
890.501	20902
890.624	20819
890.748	20796
890.871	20670
890.995	20674
891.118	20632
891.241	20674
891.364	20670
891.488	20716
891.611	20735
891.734	20640
891.857	20739
891.98	20541
892.103	20636
892.226	20571
892.349	20564
892.471	20370
892.594	20560
892.717	20613
892.839	20568
892.962	20602
893.085	20590
893.207	20613
893.33	20389
893.452	20450
893.575	20575
893.697	20575
893.819	20667
893.941	20739
894.064	20731
894.186	20473
894.308	20385
894.43	20644
894.552	20674
894.674	20598
894.796	20393
894.918	20492
895.04	20564
895.161	20556
895.283	20568
895.405	20499
895.526	20492
895.648	20495
895.769	20651
895.891	20533
896.012	20670
896.134	20526
896.255	20590
896.376	20423
896.498	20587
896.619	20629
896.74	20442
896.861	20644
896.982	20743
897.103	20914
897.224	20807
897.345	20750
897.466	20655
897.587	20678
897.708	20933
897.828	20796
897.949	20678
898.07	20518
898.19	20613
898.311	20750
898.431	20617
898.552	20693
898.672	20735
898.792	20727
898.913	20750
899.033	20552
899.153	20522
899.273	20511
899.393	20404
899.513	20446
899.633	20503
899.753	20507
899.873	20336
899.993	20450
900.113	20511
900.232	20366
900.352	20518
900.472	20309
900.591	20248
900.711	20176
900.83	20206
900.95	20339
901.069	20336
901.189	20229
901.308	20069
901.427	19921
901.546	19887
901.665	19807
901.784	19944
901.904	19681
902.023	19537
902.141	19365
902.26	19381
902.379	19464
902.498	19369
902.617	19327
902.735	19403
902.854	19327
902.973	19255
903.091	19031
903.21	19042
903.328	18920
903.446	18924
903.565	18890
903.683	18734
903.801	18688
903.919	18665
904.038	18688
904.156	18521
904.274	18677
904.392	18551
904.51	18528
904.627	18559
904.745	18623
904.863	18669
904.981	18346
905.098	18159
905.216	18209
905.334	18224
905.451	18201
905.569	18292
905.686	18163
905.803	18190
905.921	18045
906.038	18060
906.155	18015
906.272	17946
906.389	17965
906.506	17764
906.623	17851
906.74	17741
906.857	17657
906.974	17684
907.091	17859
907.208	17893
907.324	17786
907.441	17680
907.557	17551
907.674	17497
907.79	17410
907.907	17558
908.023	17490
908.139	17402
908.256	17471
908.372	17398
908.488	17406
908.604	17227
908.72	17170
908.836	17200
908.952	17197
909.068	17166
909.184	17220
909.3	17147
909.415	17212
909.531	17220
909.647	17006
909.762	16889
909.878	16938
909.993	16953
910.108	16953
910.224	16843
910.339	16774
910.454	16744
910.57	16778
910.685	16679
910.8	16980
910.915	16801
911.03	16782
911.145	16580
911.259	16428
911.374	16462
911.489	16413
911.604	16386
911.718	16329
911.833	16234
911.947	16120
912.062	16135
912.176	16219
912.291	16367
912.405	16265
912.519	16382
912.633	16447
912.748	16314
912.862	16265
912.976	16112
913.09	15941
913.204	16055
913.318	16067
913.431	16166
913.545	16223
913.659	16150
913.772	16044
913.886	15934
914	15865
914.113	16078
914.226	15991
914.34	15907
914.453	15793
914.566	15915
914.68	15663
914.793	15747
914.906	15511
915.019	15466
915.132	15367
915.245	15523
915.358	15523
915.47	15526
915.583	15496
915.696	15424
915.809	15656
915.921	15610
916.034	15462
916.146	15351
916.259	15359
916.371	15534
916.483	15492
916.595	15336
916.708	15283
916.82	15306
916.932	15275
917.044	15176
917.156	15218
917.268	15192
917.38	15222
917.491	15127
917.603	15116
917.715	15146
917.826	15131
917.938	15013
918.049	14925
918.161	15123
918.272	15195
918.384	15214
918.495	15051
918.606	14902
918.717	14815
918.828	14895
918.939	14811
919.05	14788
919.161	14952
919.272	14670
919.383	14708
919.494	14830
919.604	15062
919.715	14845
919.826	14773
919.936	14781
920.047	14891
920.157	14842
920.267	15043
920.378	14807
920.488	14785
920.598	14986
920.708	15123
920.818	14979
920.928	14948
921.038	15074
921.148	15074
921.258	14785
921.368	14735
921.477	14606
921.587	14575
921.697	14347
921.806	14556
921.916	14370
922.025	14290
922.134	14187
922.244	14100
922.353	14263
922.462	14024
922.571	13997
922.68	13947
922.789	13795
922.898	13807
923.007	13814
923.116	13814
923.224	13776
923.333	13818
923.442	13636
923.55	13628
923.659	13662
923.767	13753
923.876	13525
923.984	13620
924.092	13575
924.201	13552
924.309	13548
924.417	13582
924.525	13468
924.633	13537
924.741	14259
924.849	13251
924.956	13430
925.064	13202
925.172	13183
925.279	13221
925.387	13346
925.494	13247
925.602	13327
925.709	13297
925.816	13187
925.924	13164
926.031	13297
926.138	13198
926.245	13324
926.352	13027
926.459	13225
926.566	13320
926.673	13034
926.779	12973
926.886	12947
926.993	12798
927.099	12760
927.206	12814
927.312	12772
927.419	12852
927.525	12825
927.631	12787
927.737	12711
927.843	12612
927.95	12509
928.056	12555
928.162	12669
928.267	12696
928.373	13266
928.479	12681
928.585	12452
928.69	12540
928.796	12650
928.901	12388
929.007	12243
929.112	12532
929.218	12376
929.323	12384
929.428	12418
929.533	12513
929.638	12319
929.743	12342
929.848	12361
929.953	12186
930.058	12258
930.163	11946
930.267	11996
930.372	12186
930.477	11992
930.581	12220
930.685	11999
930.79	11931
930.894	12015
930.998	11824
931.103	12026
931.207	11691
931.311	11501
931.415	11459
931.519	11318
931.623	11322
