Data from test_V78500241_3281.txt Node
Date: Fri Mar 25 16:04:31 CST 2022
User: usil
Spectrometer: V785-0024
Trigger mode: 0
Integration Time (sec): 4.000000E-1
Scans to average: 1
Nonlinearity correction enabled: false
Boxcar width: 0
Storing dark spectrum: false
XAxis mode: Wavelengths
Number of Pixels in Spectrum: 1024
>>>>>Begin Spectral Data<<<<<
801.071	28706
801.214	28645
801.356	28360
801.499	28375
801.641	28192
801.783	28131
801.926	28261
802.068	28116
802.211	28120
802.353	28162
802.496	28002
802.638	27987
802.78	27842
802.923	27785
803.065	27667
803.208	27739
803.35	27724
803.492	28017
803.635	28070
803.777	27956
803.919	28204
804.061	28523
804.204	28120
804.346	27934
804.488	27983
804.63	28013
804.773	28112
804.915	28070
805.057	28215
805.199	28105
805.341	28177
805.483	28181
805.626	28268
805.768	28128
805.91	28284
806.052	28352
806.194	28230
806.336	28504
806.478	28185
806.62	28169
806.762	28478
806.904	28710
807.046	28831
807.188	28763
807.33	28691
807.472	28725
807.614	28542
807.756	28656
807.898	28626
808.04	28455
808.182	28478
808.324	28634
808.465	28561
808.607	28763
808.749	29003
808.891	28991
809.033	29086
809.174	28999
809.316	28805
809.458	28995
809.6	28957
809.741	29022
809.883	29022
810.025	29341
810.166	29311
810.308	29231
810.45	29170
810.591	29147
810.733	29124
810.875	28995
811.016	28763
811.158	28908
811.299	28934
811.441	29155
811.582	29128
811.724	28961
811.865	29086
812.007	28953
812.148	28930
812.29	29098
812.431	29151
812.573	29341
812.714	29414
812.855	29558
812.997	29661
813.138	29813
813.279	29627
813.421	29539
813.562	29372
813.703	29440
813.845	29223
813.986	28946
814.127	28850
814.268	28660
814.41	28759
814.551	28542
814.692	28755
814.833	28622
814.974	28733
815.115	28710
815.256	28470
815.397	28565
815.539	28535
815.68	28451
815.821	28371
815.962	28531
816.103	28356
816.244	28325
816.385	28291
816.526	28253
816.666	28002
816.807	28029
816.948	28048
817.089	28070
817.23	28055
817.371	28048
817.512	27945
817.653	28013
817.793	27846
817.934	27934
818.075	28059
818.216	28025
818.356	27880
818.497	27819
818.638	27759
818.778	27732
818.919	27698
819.06	27823
819.2	27911
819.341	28074
819.481	27956
819.622	28078
819.762	28272
819.903	28371
820.043	28185
820.184	28032
820.324	28078
820.465	28257
820.605	28059
820.746	28120
820.886	28086
821.026	28112
821.167	28040
821.307	28230
821.447	27899
821.588	27888
821.728	27755
821.868	27755
822.008	27496
822.149	27507
822.289	27412
822.429	27272
822.569	27233
822.709	27093
822.849	27112
822.99	27070
823.13	27089
823.27	27104
823.41	26933
823.55	26712
823.69	26834
823.83	26796
823.97	26842
824.11	26552
824.25	26670
824.389	26663
824.529	26754
824.669	26606
824.809	26758
824.949	26796
825.089	26750
825.228	26644
825.368	26556
825.508	26602
825.648	26469
825.787	26606
825.927	26606
826.067	26579
826.206	26564
826.346	26575
826.485	26499
826.625	26613
826.765	26606
826.904	26587
827.044	26301
827.183	26442
827.323	26229
827.462	26423
827.601	26149
827.741	26343
827.88	26252
828.02	26134
828.159	26328
828.298	26176
828.437	26252
828.577	26035
828.716	26271
828.855	26214
828.994	26065
829.134	25852
829.273	25883
829.412	25807
829.551	25890
829.69	25955
829.829	25928
829.968	26062
830.107	26077
830.246	25841
830.385	25864
830.524	25833
830.663	25742
830.802	25689
830.941	25601
831.08	25514
831.219	25586
831.357	25582
831.496	25849
831.635	25639
831.774	25518
831.913	25476
832.051	25377
832.19	25384
832.329	25438
832.467	25289
832.606	25221
832.744	25179
832.883	25263
833.022	25091
833.16	25358
833.299	25247
833.437	25255
833.576	25441
833.714	25346
833.852	25335
833.991	25274
834.129	25316
834.267	25369
834.406	25225
834.544	25312
834.682	25350
834.821	25266
834.959	25426
835.097	25270
835.235	25362
835.373	25152
835.511	25255
835.65	25164
835.788	25179
835.926	25187
836.064	24916
836.202	24966
836.34	25168
836.478	25133
836.615	25110
836.753	25168
836.891	25171
837.029	25057
837.167	25031
837.305	25114
837.443	24920
837.58	24878
837.718	24954
837.856	24958
837.993	24852
838.131	24977
838.269	24886
838.406	24844
838.544	24779
838.681	24635
838.819	24445
838.956	24429
839.094	24467
839.231	24460
839.369	24627
839.506	24814
839.643	24658
839.781	24388
839.918	24369
840.055	24521
840.193	24407
840.33	24235
840.467	24380
840.604	24391
840.742	24460
840.879	24186
841.016	24239
841.153	24174
841.29	24338
841.427	24304
841.564	24254
841.701	24346
841.838	24220
841.975	24232
842.112	24129
842.249	24152
842.385	23980
842.522	24270
842.659	24266
842.796	24083
842.933	24053
843.069	24011
843.206	23969
843.343	24015
843.479	24018
843.616	24079
843.752	23790
843.889	23893
844.025	23863
844.162	23676
844.298	23920
844.435	23885
844.571	23779
844.708	23866
844.844	23935
844.98	23946
845.117	23863
845.253	23684
845.389	23722
845.525	23638
845.661	23619
845.798	23661
845.934	23642
846.07	23539
846.206	23471
846.342	23623
846.478	23604
846.614	23341
846.75	23250
846.886	23318
847.022	23277
847.158	23410
847.294	23269
847.429	23345
847.565	23231
847.701	23535
847.837	23048
847.972	22980
848.108	23151
848.244	23200
848.379	22938
848.515	22820
848.65	22889
848.786	22877
848.921	22976
849.057	23098
849.192	22919
849.328	23018
849.463	22942
849.598	22812
849.734	22824
849.869	22839
850.004	22675
850.14	22630
850.275	22519
850.41	22474
850.545	22485
850.68	22440
850.815	22790
850.95	22641
851.085	22923
851.22	22801
851.355	22675
851.49	22580
851.625	22626
851.76	22698
851.895	22500
852.03	22500
852.165	22489
852.299	22603
852.434	22653
852.569	22698
852.703	22615
852.838	22752
852.973	22801
853.107	22736
853.242	22611
853.376	22443
853.511	22291
853.645	22504
853.78	22523
853.914	22470
854.048	22481
854.183	22428
854.317	22443
854.451	22660
854.585	22478
854.72	22402
854.854	22634
854.988	22497
855.122	22447
855.256	22382
855.39	22535
855.524	22588
855.658	22519
855.792	22500
855.926	22451
856.06	22409
856.194	22500
856.327	22493
856.461	22443
856.595	22432
856.729	22371
856.862	22557
856.996	22405
857.13	22634
857.263	22535
857.397	22569
857.53	22451
857.664	22447
857.797	22592
857.931	22561
858.064	22653
858.197	22523
858.331	22390
858.464	22386
858.597	22341
858.731	22390
858.864	22512
858.997	22436
859.13	22500
859.263	22379
859.396	22500
859.529	22394
859.662	22344
859.795	22322
859.928	22447
860.061	22588
860.194	22630
860.327	22447
860.46	22363
860.592	22618
860.725	22565
860.858	22592
860.99	22447
861.123	22409
861.256	22409
861.388	22512
861.521	23227
861.653	22238
861.786	22257
861.918	22131
862.05	22284
862.183	22375
862.315	22504
862.447	22432
862.58	22402
862.712	22249
862.844	22128
862.976	22173
863.108	22352
863.24	22607
863.372	22192
863.504	22268
863.636	22192
863.768	22295
863.9	22230
864.032	22086
864.164	22204
864.296	22207
864.428	22188
864.559	22310
864.691	22318
864.823	22097
864.954	22143
865.086	22154
865.217	22105
865.349	22055
865.48	21983
865.612	22120
865.743	22226
865.875	22017
866.006	22040
866.137	22029
866.269	21979
866.4	22036
866.531	22074
866.662	21960
866.793	22074
866.924	21998
867.055	22029
867.186	21983
867.317	21945
867.448	21880
867.579	21861
867.71	21953
867.841	21850
867.972	21994
868.103	21941
868.233	21975
868.364	21876
868.495	21998
868.625	22215
868.756	22215
868.886	22169
869.017	22181
869.147	22242
869.278	22481
869.408	22177
869.539	22158
869.669	22314
869.799	22246
869.929	22299
870.06	22356
870.19	22394
870.32	22466
870.45	22455
870.58	22630
870.71	22904
870.84	22664
870.97	22527
871.1	22637
871.23	22835
871.36	22889
871.489	22653
871.619	22908
871.749	22805
871.879	22835
872.008	22949
872.138	22748
872.267	22812
872.397	22729
872.526	22569
872.656	22656
872.785	22721
872.915	22824
873.044	23003
873.173	22915
873.303	22877
873.432	23003
873.561	22949
873.69	22866
873.819	22725
873.948	22911
874.077	22809
874.206	22755
874.335	22744
874.464	22987
874.593	22980
874.722	23003
874.851	23052
874.979	23018
875.108	23189
875.237	22995
875.365	23037
875.494	23003
875.623	23117
875.751	22980
875.88	23033
876.008	23235
876.136	23311
876.265	23421
876.393	23585
876.521	23619
876.65	23687
876.778	23444
876.906	23376
877.034	23387
877.162	23402
877.29	23326
877.418	23284
877.546	23493
877.674	23429
877.802	23490
877.93	23459
878.058	23353
878.185	23185
878.313	23322
878.441	23299
878.568	23235
878.696	23376
878.824	23421
878.951	23349
879.079	23585
879.206	23672
879.333	23596
879.461	23452
879.588	23429
879.715	23581
879.842	23623
879.97	23551
880.097	23254
880.224	23368
880.351	23273
880.478	23296
880.605	23239
880.732	23227
880.859	23505
880.986	23170
881.112	23159
881.239	23033
881.366	23003
881.493	22862
881.619	22790
881.746	22713
881.872	22679
881.999	22706
882.125	22694
882.252	22759
882.378	22793
882.505	22812
882.631	22809
882.757	22382
882.883	22523
883.01	22497
883.136	22413
883.262	22265
883.388	22246
883.514	22421
883.64	22314
883.766	22356
883.892	22223
884.018	22249
884.143	22436
884.269	22478
884.395	22173
884.52	22067
884.646	22051
884.772	21968
884.897	21949
885.023	22112
885.148	22234
885.274	22211
885.399	22204
885.524	22128
885.65	22143
885.775	22139
885.9	22150
886.025	22230
886.15	22318
886.275	22112
886.4	22006
886.525	21930
886.65	21964
886.775	21953
886.9	22211
887.025	22211
887.149	22139
887.274	21960
887.399	21892
887.523	21812
887.648	21857
887.773	21701
887.897	21953
888.021	21838
888.146	21789
888.27	21835
888.395	21972
888.519	21888
888.643	21895
888.767	21918
888.891	21751
889.015	21644
889.139	21739
889.263	21587
889.387	21743
889.511	21899
889.635	21785
889.759	21603
889.883	21587
890.006	21686
890.13	21633
890.254	21572
890.377	21500
890.501	21359
890.624	21313
890.748	21485
890.871	21169
890.995	21165
891.118	21173
891.241	21249
891.364	21157
891.488	21298
891.611	21211
891.734	21214
891.857	21161
891.98	21264
892.103	21275
892.226	21230
892.349	21123
892.471	20998
892.594	21043
892.717	21055
892.839	21051
892.962	21104
893.085	21195
893.207	20975
893.33	21051
893.452	21017
893.575	21173
893.697	20971
893.819	21272
893.941	21272
894.064	21256
894.186	21058
894.308	20967
894.43	20998
894.552	21192
894.674	21199
894.796	21024
894.918	21066
895.04	21024
895.161	21096
895.283	21230
895.405	20937
895.526	20982
895.648	21013
895.769	21146
895.891	21001
896.012	21085
896.134	21093
896.255	21032
896.376	20918
896.498	20960
896.619	21055
896.74	20944
896.861	21036
896.982	21408
897.103	21447
897.224	21374
897.345	21283
897.466	21233
897.587	21256
897.708	21523
897.828	21256
897.949	21207
898.07	21028
898.19	21230
898.311	21275
898.431	21066
898.552	21222
898.672	21226
898.792	21355
898.913	21317
899.033	21154
899.153	21017
899.273	21055
899.393	20971
899.513	20986
899.633	20887
899.753	20986
899.873	20880
899.993	20967
900.113	20899
900.232	21104
900.352	20910
900.472	20864
900.591	20674
900.711	20724
900.83	20530
900.95	20773
901.069	20933
901.189	20659
901.308	20442
901.427	20320
901.546	20180
901.665	20309
901.784	20233
901.904	20126
902.023	20107
902.141	19837
902.26	19807
902.379	19830
902.498	19772
902.617	19818
902.735	19890
902.854	19731
902.973	19719
903.091	19419
903.21	19533
903.328	19506
903.446	19373
903.565	19358
903.683	19324
903.801	19118
903.919	19129
904.038	19232
904.156	19053
904.274	19164
904.392	18890
904.51	18985
904.627	19072
904.745	19129
904.863	18989
904.981	18768
905.098	18776
905.216	18642
905.334	18654
905.451	18833
905.569	18578
905.686	18692
905.803	18669
905.921	18490
906.038	18601
906.155	18498
906.272	18384
906.389	18380
906.506	18197
906.623	18285
906.74	18155
906.857	18155
906.974	18186
907.091	18209
907.208	18285
907.324	18220
907.441	18125
907.557	17935
907.674	17965
907.79	17874
907.907	17912
908.023	17977
908.139	17935
908.256	17805
908.372	17923
908.488	17805
908.604	17581
908.72	17634
908.836	17676
908.952	17535
909.068	17786
909.184	17756
909.3	17623
909.415	17581
909.531	17684
909.647	17528
909.762	17349
909.878	17265
909.993	17425
910.108	17277
910.224	17433
910.339	17254
910.454	17162
910.57	17128
910.685	17132
910.8	17322
910.915	17227
911.03	17033
911.145	17037
911.259	16995
911.374	16896
911.489	16869
911.604	16862
911.718	16656
911.833	16675
911.947	16573
912.062	16527
912.176	16683
912.291	16733
912.405	16637
912.519	16896
912.633	16831
912.748	16679
912.862	16656
912.976	16489
913.09	16344
913.204	16382
913.318	16500
913.431	16508
913.545	16668
913.659	16630
913.772	16447
913.886	16341
914	16306
914.113	16337
914.226	16333
914.34	16314
914.453	16200
914.566	16322
914.68	16112
914.793	16238
914.906	15960
915.019	15937
915.132	15838
915.245	15816
915.358	15831
915.47	15800
915.583	15785
915.696	15873
915.809	15922
915.921	16051
916.034	15804
916.146	15759
916.259	15766
916.371	15823
916.483	15785
916.595	15686
916.708	15679
916.82	15591
916.932	15637
917.044	15652
917.156	15549
917.268	15439
917.38	15538
917.491	15504
917.603	15515
917.715	15622
917.826	15515
917.938	15530
918.049	15252
918.161	15443
918.272	15580
918.384	15504
918.495	15386
918.606	15218
918.717	15279
918.828	15264
918.939	15291
919.05	15154
919.161	15150
919.272	14998
919.383	15135
919.494	15161
919.604	15447
919.715	15184
919.826	14960
919.936	15230
920.047	15203
920.157	15157
920.267	15348
920.378	15157
920.488	15085
920.598	15287
920.708	15568
920.818	15298
920.928	15302
921.038	15408
921.148	15378
921.258	15077
921.368	14998
921.477	14933
921.587	14880
921.697	14785
921.806	14868
921.916	14758
922.025	14705
922.134	14503
922.244	14393
922.353	14560
922.462	14374
922.571	14263
922.68	14210
922.789	14199
922.898	14088
923.007	14145
923.116	14172
923.224	14149
923.333	14062
923.442	13955
923.55	13959
923.659	13989
923.767	14016
923.876	13875
923.984	14001
924.092	13871
924.201	13974
924.309	13860
924.417	13909
924.525	13784
924.633	13807
924.741	14594
924.849	13647
924.956	13746
925.064	13636
925.172	13510
925.279	13464
925.387	13548
925.494	13605
925.602	13655
925.709	13681
925.816	13430
925.924	13468
926.031	13578
926.138	13476
926.245	13476
926.352	13403
926.459	13544
926.566	13571
926.673	13449
926.779	13316
926.886	13270
926.993	13103
927.099	13034
927.206	13042
927.312	13072
927.419	13122
927.525	13072
927.631	13099
927.737	12970
927.843	12897
927.95	12833
928.056	12913
928.162	12932
928.267	13004
928.373	13415
928.479	13038
928.585	12722
928.69	12886
928.796	12882
928.901	12753
929.007	12688
929.112	12783
929.218	12627
929.323	12540
929.428	12612
929.533	12650
929.638	12445
929.743	12612
929.848	12525
929.953	12593
930.058	12471
930.163	12220
930.267	12292
930.372	12426
930.477	12266
930.581	12418
930.685	12281
930.79	12110
930.894	12232
930.998	12049
931.103	12258
931.207	11870
931.311	11790
931.415	11821
931.519	11467
931.623	11414
