Data from test_V78500241_2302.txt Node
Date: Fri Mar 25 15:57:44 CST 2022
User: usil
Spectrometer: V785-0024
Trigger mode: 0
Integration Time (sec): 4.000000E-1
Scans to average: 1
Nonlinearity correction enabled: false
Boxcar width: 0
Storing dark spectrum: false
XAxis mode: Wavelengths
Number of Pixels in Spectrum: 1024
>>>>>Begin Spectral Data<<<<<
801.071	29075
801.214	29029
801.356	28828
801.499	28812
801.641	28694
801.783	28637
801.926	28607
802.068	28664
802.211	28535
802.353	28645
802.496	28299
802.638	28341
802.78	28280
802.923	28135
803.065	28128
803.208	28348
803.35	28386
803.492	28519
803.635	28531
803.777	28489
803.919	28519
804.061	28911
804.204	28592
804.346	28565
804.488	28577
804.63	28554
804.773	28500
804.915	28668
805.057	28801
805.199	28618
805.341	28820
805.483	28767
805.626	28649
805.768	28557
805.91	28790
806.052	28763
806.194	28710
806.336	28904
806.478	28843
806.62	28748
806.762	28999
806.904	28995
807.046	29277
807.188	29311
807.33	29052
807.472	29109
807.614	29143
807.756	29155
807.898	29121
808.04	28987
808.182	29117
808.324	29018
808.465	29064
808.607	29193
808.749	29436
808.891	29573
809.033	29676
809.174	29395
809.316	29398
809.458	29398
809.6	29341
809.741	29570
809.883	29600
810.025	29676
810.166	29790
810.308	29729
810.45	29653
810.591	29512
810.733	29551
810.875	29459
811.016	29360
811.158	29311
811.299	29501
811.441	29581
811.582	29490
811.724	29493
811.865	29512
812.007	29452
812.148	29505
812.29	29459
812.431	29722
812.573	29870
812.714	29942
812.855	29931
812.997	30114
813.138	30228
813.279	30018
813.421	29878
813.562	29878
813.703	29901
813.845	29756
813.986	29341
814.127	29258
814.268	29261
814.41	29273
814.551	29269
814.692	29288
814.833	29136
814.974	29136
815.115	29109
815.256	29151
815.397	29155
815.539	28961
815.68	29044
815.821	28896
815.962	29056
816.103	28946
816.244	28999
816.385	28721
816.526	28790
816.666	28554
816.807	28508
816.948	28599
817.089	28603
817.23	28535
817.371	28527
817.512	28550
817.653	28500
817.793	28417
817.934	28489
818.075	28713
818.216	28538
818.356	28481
818.497	28401
818.638	28162
818.778	28306
818.919	28253
819.06	28219
819.2	28428
819.341	28542
819.481	28474
819.622	28698
819.762	28881
819.903	28847
820.043	28668
820.184	28755
820.324	28649
820.465	28611
820.605	28580
820.746	28824
820.886	28603
821.026	28584
821.167	28493
821.307	28603
821.447	28580
821.588	28455
821.728	28382
821.868	28356
822.008	28040
822.149	28093
822.289	27968
822.429	27778
822.569	27816
822.709	27625
822.849	27637
822.99	27401
823.13	27526
823.27	27485
823.41	27310
823.55	27256
823.69	27481
823.83	27252
823.97	27165
824.11	27154
824.25	27127
824.389	27146
824.529	27313
824.669	27199
824.809	27329
824.949	27047
825.089	27245
825.228	27192
825.368	27123
825.508	27112
825.648	27100
825.787	27146
825.927	27165
826.067	27142
826.206	26982
826.346	27074
826.485	27268
826.625	27032
826.765	27211
826.904	27017
827.044	26785
827.183	26902
827.323	26746
827.462	26800
827.601	26762
827.741	26811
827.88	26845
828.02	26693
828.159	26868
828.298	26792
828.437	26868
828.577	26754
828.716	26754
828.855	26686
828.994	26488
829.134	26457
829.273	26453
829.412	26415
829.551	26396
829.69	26450
829.829	26431
829.968	26560
830.107	26495
830.246	26564
830.385	26419
830.524	26385
830.663	26210
830.802	26176
830.941	26084
831.08	26062
831.219	26020
831.357	26176
831.496	26271
831.635	26100
831.774	25974
831.913	25871
832.051	25940
832.19	25871
832.329	25989
832.467	25753
832.606	25704
832.744	25693
832.883	25780
833.022	25799
833.16	25624
833.299	25799
833.437	25757
833.576	25700
833.714	25879
833.852	25833
833.991	25917
834.129	25814
834.267	25993
834.406	25788
834.544	25860
834.682	25666
834.821	25795
834.959	25947
835.097	25750
835.235	25849
835.373	25845
835.511	25753
835.65	25590
835.788	25727
835.926	25586
836.064	25487
836.202	25495
836.34	25655
836.478	25799
836.615	25521
836.753	25632
836.891	25559
837.029	25609
837.167	25552
837.305	25499
837.443	25460
837.58	25460
837.718	25571
837.856	25354
837.993	25396
838.131	25381
838.269	25175
838.406	25259
838.544	25282
838.681	25103
838.819	25053
838.956	24932
839.094	24749
839.231	24852
839.369	25031
839.506	25270
839.643	25190
839.781	24932
839.918	24772
840.055	24920
840.193	24939
840.33	24719
840.467	24932
840.604	24856
840.742	24996
840.879	24677
841.016	24825
841.153	24707
841.29	24935
841.427	24760
841.564	24817
841.701	24856
841.838	24791
841.975	24635
842.112	24677
842.249	24650
842.385	24547
842.522	24646
842.659	24616
842.796	24509
842.933	24639
843.069	24498
843.206	24433
843.343	24673
843.479	24486
843.616	24589
843.752	24300
843.889	24323
844.025	24369
844.162	24346
844.298	24334
844.435	24254
844.571	24346
844.708	24372
844.844	24418
844.98	24627
845.117	24395
845.253	24201
845.389	24220
845.525	24159
845.661	24068
845.798	24034
845.934	24098
846.07	23984
846.206	24045
846.342	24102
846.478	24076
846.614	23767
846.75	23619
846.886	23809
847.022	23874
847.158	23745
847.294	23668
847.429	23851
847.565	23737
847.701	23946
847.837	23398
847.972	23433
848.108	23615
848.244	23627
848.379	23478
848.515	23269
848.65	23216
848.786	23246
848.921	23345
849.057	23463
849.192	23448
849.328	23452
849.463	23372
849.598	23273
849.734	23239
849.869	23170
850.004	23147
850.14	23170
850.275	23113
850.41	23014
850.545	23064
850.68	23056
850.815	23083
850.95	23109
851.085	23090
851.22	23174
851.355	23170
851.49	23079
851.625	23117
851.76	23071
851.895	23029
852.03	23113
852.165	23071
852.299	23151
852.434	23124
852.569	23079
852.703	23174
852.838	23246
852.973	23071
853.107	23212
853.242	22946
853.376	22873
853.511	22930
853.645	22949
853.78	23086
853.914	23025
854.048	22839
854.183	22908
854.317	23018
854.451	23029
854.585	22835
854.72	22835
854.854	23025
854.988	22809
855.122	22786
855.256	22748
855.39	23037
855.524	22999
855.658	22984
855.792	22961
855.926	22972
856.06	22991
856.194	22866
856.327	22828
856.461	22869
856.595	22927
856.729	22835
856.862	23052
856.996	22953
857.13	22972
857.263	22961
857.397	23037
857.53	23003
857.664	22999
857.797	22930
857.931	23109
858.064	22965
858.197	22930
858.331	22904
858.464	22889
858.597	22858
858.731	22866
858.864	22957
858.997	22797
859.13	22991
859.263	22972
859.396	23094
859.529	22797
859.662	22824
859.795	22843
859.928	22942
860.061	22984
860.194	23041
860.327	22961
860.46	22957
860.592	23006
860.725	23075
860.858	22999
860.99	22904
861.123	22820
861.256	22790
861.388	22889
861.521	23619
861.653	22793
861.786	22580
861.918	22793
862.05	22835
862.183	22812
862.315	22782
862.447	22976
862.58	22752
862.712	22538
862.844	22679
862.976	22740
863.108	22710
863.24	23124
863.372	22580
863.504	22546
863.636	22500
863.768	22713
863.9	22592
864.032	22417
864.164	22641
864.296	22759
864.428	22862
864.559	22683
864.691	22584
864.823	22565
864.954	22588
865.086	22622
865.217	22523
865.349	22440
865.48	22398
865.612	22466
865.743	22535
865.875	22573
866.006	22428
866.137	22443
866.269	22443
866.4	22523
866.531	22360
866.662	22436
866.793	22314
866.924	22375
867.055	22474
867.186	22394
867.317	22390
867.448	22196
867.579	22329
867.71	22337
867.841	22287
867.972	22436
868.103	22382
868.233	22440
868.364	22390
868.495	22413
868.625	22645
868.756	22801
868.886	22557
869.017	22694
869.147	22664
869.278	22702
869.408	22687
869.539	22702
869.669	22516
869.799	22706
869.929	22771
870.06	22774
870.19	22972
870.32	22889
870.45	23109
870.58	23044
870.71	23166
870.84	23178
870.97	22995
871.1	23098
871.23	23345
871.36	23185
871.489	23121
871.619	23181
871.749	23345
871.879	23258
872.008	23265
872.138	23132
872.267	23185
872.397	23090
872.526	23098
872.656	23109
872.785	23067
872.915	23379
873.044	23410
873.173	23258
873.303	23353
873.432	23299
873.561	23383
873.69	23292
873.819	23303
873.948	23326
874.077	23417
874.206	23280
874.335	23292
874.464	23330
874.593	23452
874.722	23455
874.851	23512
874.979	23444
875.108	23539
875.237	23387
875.365	23322
875.494	23368
875.623	23520
875.751	23368
875.88	23406
876.008	23520
876.136	23551
876.265	23901
876.393	23885
876.521	23920
876.65	23977
876.778	23851
876.906	23828
877.034	23817
877.162	23870
877.29	23668
877.418	23843
877.546	23847
877.674	23783
877.802	23741
877.93	23668
878.058	23703
878.185	23535
878.313	23729
878.441	23665
878.568	23638
878.696	23691
878.824	23760
878.951	23984
879.079	23958
879.206	24098
879.333	23958
879.461	23786
879.588	23961
879.715	23798
879.842	24117
879.97	23786
880.097	23649
880.224	23649
880.351	23779
880.478	23634
880.605	23573
880.732	23596
880.859	23958
880.986	23653
881.112	23627
881.239	23592
881.366	23250
881.493	23288
881.619	23185
881.746	23105
881.872	23208
881.999	23185
882.125	23151
882.252	23197
882.378	23204
882.505	23265
882.631	23014
882.757	22816
882.883	22869
883.01	22869
883.136	22862
883.262	22664
883.388	22626
883.514	22801
883.64	22923
883.766	22733
883.892	22535
884.018	22653
884.143	22782
884.269	22889
884.395	22531
884.52	22523
884.646	22417
884.772	22481
884.897	22432
885.023	22504
885.148	22538
885.274	22649
885.399	22550
885.524	22474
885.65	22478
885.775	22523
885.9	22493
886.025	22584
886.15	22516
886.275	22466
886.4	22367
886.525	22535
886.65	22390
886.775	22344
886.9	22744
887.025	22565
887.149	22417
887.274	22344
887.399	22169
887.523	22116
887.648	22169
887.773	22173
887.897	22257
888.021	22188
888.146	22120
888.27	22249
888.395	22329
888.519	22291
888.643	22200
888.767	22280
888.891	22093
889.015	21884
889.139	22078
889.263	21911
889.387	22158
889.511	22322
889.635	22097
889.759	22059
889.883	21937
890.006	22013
890.13	22112
890.254	21934
890.377	21960
890.501	21743
890.624	21663
890.748	21724
890.871	21713
890.995	21534
891.118	21485
891.241	21542
891.364	21618
891.488	21732
891.611	21450
891.734	21591
891.857	21599
891.98	21545
892.103	21637
892.226	21523
892.349	21511
892.471	21420
892.594	21523
892.717	21469
892.839	21359
892.962	21507
893.085	21511
893.207	21439
893.33	21367
893.452	21397
893.575	21492
893.697	21428
893.819	21595
893.941	21625
894.064	21549
894.186	21294
894.308	21401
894.43	21599
894.552	21667
894.674	21447
894.796	21317
894.918	21458
895.04	21351
895.161	21443
895.283	21561
895.405	21359
895.526	21428
895.648	21428
895.769	21370
895.891	21397
896.012	21469
896.134	21500
896.255	21469
896.376	21408
896.498	21466
896.619	21504
896.74	21428
896.861	21473
896.982	21736
897.103	21823
897.224	21614
897.345	21523
897.466	21515
897.587	21622
897.708	21682
897.828	21576
897.949	21553
898.07	21386
898.19	21519
898.311	21709
898.431	21496
898.552	21526
898.672	21660
898.792	21545
898.913	21618
899.033	21420
899.153	21466
899.273	21351
899.393	21496
899.513	21332
899.633	21408
899.753	21287
899.873	21272
899.993	21340
900.113	21241
900.232	21302
900.352	21279
900.472	21142
900.591	21055
900.711	21089
900.83	21001
900.95	21173
901.069	21150
901.189	20979
901.308	20731
901.427	20549
901.546	20667
901.665	20674
901.784	20674
901.904	20442
902.023	20465
902.141	20221
902.26	20115
902.379	20290
902.498	20187
902.617	20069
902.735	20164
902.854	20138
902.973	20069
903.091	19871
903.21	19871
903.328	19708
903.446	19712
903.565	19666
903.683	19715
903.801	19514
903.919	19609
904.038	19499
904.156	19438
904.274	19411
904.392	19346
904.51	19346
904.627	19316
904.745	19400
904.863	19316
904.981	19217
905.098	18996
905.216	19046
905.334	19088
905.451	19038
905.569	19034
905.686	19042
905.803	18981
905.921	18734
906.038	18886
906.155	18772
906.272	18722
906.389	18738
906.506	18650
906.623	18620
906.74	18452
906.857	18456
906.974	18486
907.091	18646
907.208	18753
907.324	18517
907.441	18498
907.557	18292
907.674	18171
907.79	18228
907.907	18228
908.023	18289
908.139	18292
908.256	18232
908.372	18076
908.488	18133
908.604	18083
908.72	18007
908.836	17901
908.952	17912
909.068	18053
909.184	17988
909.3	17988
909.415	18102
909.531	17961
909.647	17722
909.762	17653
909.878	17638
909.993	17668
910.108	17668
910.224	17551
910.339	17722
910.454	17551
910.57	17516
910.685	17315
910.8	17638
910.915	17562
911.03	17414
911.145	17269
911.259	17246
911.374	17280
911.489	17208
911.604	17098
911.718	17014
911.833	17048
911.947	16862
912.062	16816
912.176	16942
912.291	16953
912.405	16995
912.519	17124
912.633	17151
912.748	16965
912.862	17052
912.976	16763
913.09	16683
913.204	16740
913.318	16805
913.431	16892
913.545	16889
913.659	16854
913.772	16729
913.886	16565
914	16546
914.113	16687
914.226	16641
914.34	16504
914.453	16447
914.566	16645
914.68	16508
914.793	16550
914.906	16268
915.019	16200
915.132	16097
915.245	16314
915.358	16261
915.47	16067
915.583	16055
915.696	16192
915.809	16188
915.921	16310
916.034	16032
916.146	16086
916.259	15979
916.371	16116
916.483	16090
916.595	16017
916.708	16032
916.82	16055
916.932	15987
917.044	15964
917.156	15861
917.268	15789
917.38	15778
917.491	15732
917.603	15751
917.715	15842
917.826	15918
917.938	15690
918.049	15614
918.161	15705
918.272	15876
918.384	15800
918.495	15705
918.606	15595
918.717	15469
918.828	15431
918.939	15519
919.05	15462
919.161	15523
919.272	15374
919.383	15454
919.494	15545
919.604	15713
919.715	15378
919.826	15492
919.936	15412
920.047	15507
920.157	15488
920.267	15641
920.378	15534
920.488	15389
920.598	15610
920.708	15751
920.818	15545
920.928	15610
921.038	15781
921.148	15679
921.258	15367
921.368	15348
921.477	15214
921.587	15237
921.697	15062
921.806	15176
921.916	15032
922.025	14948
922.134	14811
922.244	14838
922.353	14720
922.462	14781
922.571	14644
922.68	14438
922.789	14389
922.898	14457
923.007	14336
923.116	14457
923.224	14488
923.333	14438
923.442	14301
923.55	14267
923.659	14199
923.767	14465
923.876	14233
923.984	14309
924.092	14126
924.201	14161
924.309	14081
924.417	14206
924.525	14096
924.633	14050
924.741	14990
924.849	13818
924.956	13982
925.064	13898
925.172	13818
925.279	13811
925.387	13811
925.494	13708
925.602	14039
925.709	13894
925.816	13704
925.924	13723
926.031	13769
926.138	13719
926.245	13788
926.352	13685
926.459	13685
926.566	13765
926.673	13712
926.779	13575
926.886	13407
926.993	13438
927.099	13282
927.206	13304
927.312	13282
927.419	13468
927.525	13438
927.631	13324
927.737	13133
927.843	13194
927.95	13133
928.056	13084
928.162	13232
928.267	13194
928.373	13776
928.479	13183
928.585	12935
928.69	13088
928.796	13129
928.901	12958
929.007	12840
929.112	13088
929.218	12939
929.323	12848
929.428	12890
929.533	12947
929.638	12753
929.743	12795
929.848	12768
929.953	12821
930.058	12662
930.163	12559
930.267	12502
930.372	12662
930.477	12464
930.581	12738
930.685	12677
930.79	12445
930.894	12460
930.998	12292
931.103	12498
931.207	12190
931.311	12045
931.415	11885
931.519	11817
931.623	11691
