Data from test_V78500241_3329.txt Node
Date: Fri Mar 25 16:04:51 CST 2022
User: usil
Spectrometer: V785-0024
Trigger mode: 0
Integration Time (sec): 4.000000E-1
Scans to average: 1
Nonlinearity correction enabled: false
Boxcar width: 0
Storing dark spectrum: false
XAxis mode: Wavelengths
Number of Pixels in Spectrum: 1024
>>>>>Begin Spectral Data<<<<<
801.071	29044
801.214	28923
801.356	28618
801.499	28611
801.641	28390
801.783	28443
801.926	28447
802.068	28360
802.211	28204
802.353	28379
802.496	28188
802.638	28040
802.78	28086
802.923	28074
803.065	27983
803.208	28070
803.35	28086
803.492	28204
803.635	28333
803.777	28253
803.919	28405
804.061	28687
804.204	28341
804.346	28226
804.488	28379
804.63	28443
804.773	28268
804.915	28398
805.057	28538
805.199	28417
805.341	28478
805.483	28462
805.626	28382
805.768	28417
805.91	28474
806.052	28592
806.194	28360
806.336	28630
806.478	28489
806.62	28550
806.762	28759
806.904	28930
807.046	29075
807.188	29132
807.33	28953
807.472	29086
807.614	28946
807.756	28984
807.898	28790
808.04	28698
808.182	28782
808.324	28892
808.465	28900
808.607	29136
808.749	29174
808.891	29318
809.033	29341
809.174	29208
809.316	29334
809.458	29220
809.6	29006
809.741	29353
809.883	29512
810.025	29615
810.166	29543
810.308	29440
810.45	29429
810.591	29478
810.733	29269
810.875	29223
811.016	29162
811.158	29037
811.299	29463
811.441	29440
811.582	29360
811.724	29174
811.865	29159
812.007	29086
812.148	29311
812.29	29318
812.431	29448
812.573	29581
812.714	29699
812.855	29718
812.997	29832
813.138	30034
813.279	29927
813.421	29855
813.562	29775
813.703	29608
813.845	29433
813.986	29299
814.127	29044
814.268	29075
814.41	28930
814.551	28987
814.692	28999
814.833	28869
814.974	28980
815.115	29067
815.256	28752
815.397	28843
815.539	28862
815.68	28790
815.821	28653
815.962	28797
816.103	28660
816.244	28546
816.385	28550
816.526	28508
816.666	28394
816.807	28181
816.948	28417
817.089	28409
817.23	28306
817.371	28211
817.512	28363
817.653	28242
817.793	28246
817.934	28246
818.075	28139
818.216	28310
818.356	28249
818.497	28253
818.638	27979
818.778	28032
818.919	28090
819.06	28090
819.2	28040
819.341	28226
819.481	28287
819.622	28516
819.762	28687
819.903	28626
820.043	28424
820.184	28291
820.324	28314
820.465	28329
820.605	28489
820.746	28485
820.886	28284
821.026	28421
821.167	28272
821.307	28493
821.447	28363
821.588	28128
821.728	28204
821.868	27945
822.008	27732
822.149	27800
822.289	27709
822.429	27534
822.569	27397
822.709	27393
822.849	27325
822.99	27310
823.13	27294
823.27	27359
823.41	26986
823.55	26971
823.69	27188
823.83	26967
823.97	27093
824.11	26944
824.25	26899
824.389	27055
824.529	26872
824.669	26952
824.809	26994
824.949	27036
825.089	27005
825.228	26979
825.368	26800
825.508	26819
825.648	26796
825.787	26925
825.927	27001
826.067	26804
826.206	26781
826.346	26777
826.485	26940
826.625	26906
826.765	26887
826.904	26902
827.044	26663
827.183	26575
827.323	26446
827.462	26514
827.601	26648
827.741	26568
827.88	26522
828.02	26275
828.159	26484
828.298	26590
828.437	26537
828.577	26492
828.716	26701
828.855	26438
828.994	26252
829.134	26278
829.273	26298
829.412	26240
829.551	26180
829.69	26278
829.829	26271
829.968	26351
830.107	26423
830.246	26244
830.385	26240
830.524	26218
830.663	26103
830.802	25898
830.941	25845
831.08	25887
831.219	26024
831.357	25902
831.496	26054
831.635	25807
831.774	25738
831.913	25639
832.051	25601
832.19	25548
832.329	25578
832.467	25601
832.606	25601
832.744	25396
832.883	25407
833.022	25609
833.16	25567
833.299	25556
833.437	25411
833.576	25563
833.714	25460
833.852	25662
833.991	25483
834.129	25757
834.267	25620
834.406	25670
834.544	25597
834.682	25575
834.821	25403
834.959	25772
835.097	25514
835.235	25693
835.373	25605
835.511	25601
835.65	25426
835.788	25495
835.926	25388
836.064	25148
836.202	25259
836.34	25445
836.478	25426
836.615	25278
836.753	25301
836.891	25468
837.029	25346
837.167	25324
837.305	25259
837.443	25327
837.58	25118
837.718	25213
837.856	25187
837.993	25213
838.131	25145
838.269	25088
838.406	25114
838.544	25008
838.681	24901
838.819	24970
838.956	24722
839.094	24696
839.231	24669
839.369	24951
839.506	25114
839.643	24787
839.781	24582
839.918	24650
840.055	24726
840.193	24547
840.33	24505
840.467	24631
840.604	24601
840.742	24844
840.879	24289
841.016	24483
841.153	24536
841.29	24711
841.427	24540
841.564	24715
841.701	24395
841.838	24498
841.975	24353
842.112	24505
842.249	24289
842.385	24327
842.522	24456
842.659	24391
842.796	24315
842.933	24296
843.069	24277
843.206	24350
843.343	24258
843.479	24330
843.616	24350
843.752	24136
843.889	24148
844.025	24213
844.162	24026
844.298	24098
844.435	24095
844.571	24163
844.708	24117
844.844	24376
844.98	24315
845.117	24197
845.253	24133
845.389	23920
845.525	24049
845.661	23920
845.798	23786
845.934	23790
846.07	23863
846.206	23916
846.342	23916
846.478	23843
846.614	23752
846.75	23539
846.886	23596
847.022	23695
847.158	23577
847.294	23501
847.429	23562
847.565	23493
847.701	23855
847.837	23311
847.972	23174
848.108	23395
848.244	23410
848.379	23117
848.515	23056
848.65	23048
848.786	23235
848.921	23102
849.057	23250
849.192	23197
849.328	23159
849.463	23060
849.598	23216
849.734	23064
849.869	23105
850.004	22972
850.14	22961
850.275	22900
850.41	22850
850.545	22869
850.68	22881
850.815	22953
850.95	22831
851.085	23280
851.22	23098
851.355	22999
851.49	22873
851.625	22729
851.76	22984
851.895	22892
852.03	22885
852.165	22904
852.299	22991
852.434	23140
852.569	22965
852.703	22869
852.838	22949
852.973	23044
853.107	23159
853.242	22938
853.376	22672
853.511	22561
853.645	22733
853.78	22752
853.914	22812
854.048	22748
854.183	22668
854.317	22683
854.451	22839
854.585	22687
854.72	22740
854.854	22816
854.988	22752
855.122	22717
855.256	22725
855.39	22748
855.524	22763
855.658	22847
855.792	22805
855.926	22679
856.06	22687
856.194	22675
856.327	22755
856.461	22672
856.595	22763
856.729	22645
856.862	22835
856.996	22782
857.13	22854
857.263	22919
857.397	22839
857.53	22721
857.664	22816
857.797	22767
857.931	22995
858.064	22767
858.197	22759
858.331	22573
858.464	22740
858.597	22603
858.731	22710
858.864	22641
858.997	22702
859.13	22862
859.263	22831
859.396	22801
859.529	22744
859.662	22649
859.795	22687
859.928	22790
860.061	22691
860.194	23006
860.327	22824
860.46	22721
860.592	22816
860.725	22930
860.858	22835
860.99	22778
861.123	22653
861.256	22683
861.388	22698
861.521	23463
861.653	22596
861.786	22565
861.918	22615
862.05	22607
862.183	22588
862.315	22767
862.447	22710
862.58	22660
862.712	22459
862.844	22577
862.976	22634
863.108	22516
863.24	22908
863.372	22481
863.504	22443
863.636	22462
863.768	22455
863.9	22386
864.032	22409
864.164	22348
864.296	22428
864.428	22550
864.559	22470
864.691	22470
864.823	22440
864.954	22447
865.086	22367
865.217	22402
865.349	22219
865.48	22322
865.612	22390
865.743	22497
865.875	22284
866.006	22261
866.137	22310
866.269	22405
866.4	22299
866.531	22200
866.662	22207
866.793	22303
866.924	22299
867.055	22284
867.186	22177
867.317	22226
867.448	22051
867.579	22215
867.71	22173
867.841	22124
867.972	22120
868.103	22211
868.233	22249
868.364	22249
868.495	22325
868.625	22455
868.756	22653
868.886	22485
869.017	22493
869.147	22405
869.278	22573
869.408	22508
869.539	22432
869.669	22546
869.799	22546
869.929	22672
870.06	22641
870.19	22831
870.32	22831
870.45	22889
870.58	22927
870.71	23037
870.84	22987
870.97	22843
871.1	23025
871.23	23006
871.36	23147
871.489	22999
871.619	22991
871.749	23037
871.879	23143
872.008	23189
872.138	23200
872.267	23071
872.397	23079
872.526	22999
872.656	22911
872.785	22919
872.915	23117
873.044	23086
873.173	23102
873.303	23193
873.432	23212
873.561	23174
873.69	23170
873.819	23147
873.948	23277
874.077	23140
874.206	23037
874.335	23056
874.464	23204
874.593	23410
874.722	23356
874.851	23311
874.979	23379
875.108	23250
875.237	23242
875.365	23117
875.494	23242
875.623	23162
875.751	23387
875.88	23227
876.008	23417
876.136	23440
876.265	23665
876.393	23786
876.521	23764
876.65	23813
876.778	23851
876.906	23630
877.034	23642
877.162	23672
877.29	23592
877.418	23642
877.546	23589
877.674	23737
877.802	23729
877.93	23695
878.058	23448
878.185	23493
878.313	23604
878.441	23707
878.568	23634
878.696	23482
878.824	23733
878.951	23699
879.079	23863
879.206	23863
879.333	23813
879.461	23836
879.588	23809
879.715	23710
879.842	23889
879.97	23783
880.097	23535
880.224	23604
880.351	23490
880.478	23459
880.605	23429
880.732	23436
880.859	23592
880.986	23531
881.112	23558
881.239	23284
881.366	23284
881.493	23155
881.619	23006
881.746	23086
881.872	23102
881.999	22923
882.125	22927
882.252	23029
882.378	22843
882.505	23098
882.631	22828
882.757	22683
882.883	22721
883.01	22748
883.136	22603
883.262	22607
883.388	22466
883.514	22733
883.64	22679
883.766	22516
883.892	22417
884.018	22466
884.143	22664
884.269	22596
884.395	22447
884.52	22306
884.646	22348
884.772	22188
884.897	22154
885.023	22352
885.148	22478
885.274	22443
885.399	22394
885.524	22386
885.65	22333
885.775	22402
885.9	22432
886.025	22367
886.15	22371
886.275	22257
886.4	22166
886.525	22272
886.65	22249
886.775	22219
886.9	22508
887.025	22512
887.149	22276
887.274	22261
887.399	22158
887.523	22040
887.648	21953
887.773	21983
887.897	22059
888.021	22128
888.146	21918
888.27	22158
888.395	22200
888.519	22169
888.643	22162
888.767	22143
888.891	21873
889.015	21869
889.139	21987
889.263	21846
889.387	21941
889.511	21949
889.635	21968
889.759	21873
889.883	21846
890.006	21835
890.13	22048
890.254	21797
890.377	21793
890.501	21698
890.624	21511
890.748	21652
890.871	21622
890.995	21359
891.118	21412
891.241	21405
891.364	21431
891.488	21576
891.611	21439
891.734	21462
891.857	21477
891.98	21450
892.103	21466
892.226	21405
892.349	21355
892.471	21264
892.594	21397
892.717	21336
892.839	21283
892.962	21302
893.085	21382
893.207	21176
893.33	21195
893.452	21230
893.575	21412
893.697	21272
893.819	21412
893.941	21526
894.064	21576
894.186	21321
894.308	21272
894.43	21302
894.552	21500
894.674	21287
894.796	21252
894.918	21351
895.04	21218
895.161	21393
895.283	21310
895.405	21264
895.526	21348
895.648	21207
895.769	21256
895.891	21287
896.012	21363
896.134	21332
896.255	21283
896.376	21207
896.498	21188
896.619	21214
896.74	21256
896.861	21298
896.982	21500
897.103	21644
897.224	21462
897.345	21492
897.466	21534
897.587	21397
897.708	21549
897.828	21606
897.949	21317
898.07	21214
898.19	21408
898.311	21568
898.431	21355
898.552	21450
898.672	21511
898.792	21530
898.913	21485
899.033	21268
899.153	21283
899.273	21169
899.393	21249
899.513	21302
899.633	21108
899.753	21188
899.873	21199
899.993	21176
900.113	21055
900.232	21207
900.352	21104
900.472	21055
900.591	20880
900.711	21009
900.83	20925
900.95	21036
901.069	21013
901.189	20788
901.308	20640
901.427	20480
901.546	20434
901.665	20587
901.784	20617
901.904	20499
902.023	20313
902.141	20084
902.26	20008
902.379	20130
902.498	20073
902.617	20039
902.735	19902
902.854	20027
902.973	20001
903.091	19685
903.21	19719
903.328	19681
903.446	19578
903.565	19632
903.683	19537
903.801	19430
903.919	19510
904.038	19377
904.156	19270
904.274	19365
904.392	19369
904.51	19148
904.627	19304
904.745	19285
904.863	19293
904.981	19046
905.098	18878
905.216	18833
905.334	18897
905.451	18882
905.569	18833
905.686	18829
905.803	18916
905.921	18692
906.038	18848
906.155	18757
906.272	18612
906.389	18555
906.506	18452
906.623	18372
906.74	18407
906.857	18319
906.974	18372
907.091	18532
907.208	18570
907.324	18330
907.441	18384
907.557	18186
907.674	18201
907.79	18026
907.907	18057
908.023	18194
908.139	18155
908.256	18076
908.372	18041
908.488	18041
908.604	17961
908.72	17855
908.836	17805
908.952	17733
909.068	17840
909.184	17999
909.3	17832
909.415	17885
909.531	17805
909.647	17566
909.762	17623
909.878	17436
909.993	17505
910.108	17440
910.224	17486
910.339	17459
910.454	17368
910.57	17429
910.685	17246
910.8	17520
910.915	17433
911.03	17277
911.145	17178
911.259	17052
911.374	17124
911.489	17006
911.604	16972
911.718	16915
911.833	16892
911.947	16683
912.062	16736
912.176	16824
912.291	16968
912.405	16774
912.519	17113
912.633	17086
912.748	16881
912.862	16843
912.976	16618
913.09	16558
913.204	16599
913.318	16694
913.431	16805
913.545	16774
913.659	16771
913.772	16675
913.886	16504
914	16489
914.113	16580
914.226	16550
914.34	16580
914.453	16348
914.566	16470
914.68	16390
914.793	16382
914.906	16109
915.019	16082
915.132	15941
915.245	15960
915.358	16010
915.47	16017
915.583	16013
915.696	16044
915.809	16166
915.921	16150
916.034	15953
916.146	15945
916.259	15884
916.371	16017
916.483	15945
916.595	15846
916.708	15918
916.82	15857
916.932	15778
917.044	15816
917.156	15793
917.268	15633
917.38	15705
917.491	15564
917.603	15614
917.715	15698
917.826	15743
917.938	15599
918.049	15466
918.161	15606
918.272	15736
918.384	15698
918.495	15622
918.606	15401
918.717	15291
918.828	15397
918.939	15431
919.05	15211
919.161	15374
919.272	15142
919.383	15241
919.494	15370
919.604	15519
919.715	15302
919.826	15317
919.936	15283
920.047	15416
920.157	15279
920.267	15526
920.378	15348
920.488	15370
920.598	15511
920.708	15648
920.818	15496
920.928	15515
921.038	15679
921.148	15500
921.258	15389
921.368	15241
921.477	15074
921.587	14979
921.697	14933
921.806	15036
921.916	14864
922.025	14769
922.134	14625
922.244	14560
922.353	14788
922.462	14602
922.571	14442
922.68	14370
922.789	14271
922.898	14370
923.007	14317
923.116	14336
923.224	14339
923.333	14248
923.442	14221
923.55	14183
923.659	14199
923.767	14164
923.876	14164
923.984	14164
924.092	14035
924.201	14100
924.309	14073
924.417	14111
924.525	13978
924.633	13913
924.741	14872
924.849	13795
924.956	13932
925.064	13765
925.172	13590
925.279	13651
925.387	13708
925.494	13780
925.602	13826
925.709	13746
925.816	13605
925.924	13578
926.031	13788
926.138	13582
926.245	13651
926.352	13601
926.459	13689
926.566	13647
926.673	13548
926.779	13400
926.886	13483
926.993	13346
927.099	13175
927.206	13221
927.312	13156
927.419	13320
927.525	13263
927.631	13236
927.737	13080
927.843	13145
927.95	12901
928.056	13042
928.162	13099
928.267	13091
928.373	13544
928.479	13095
928.585	12947
928.69	12973
928.796	12951
928.901	12814
929.007	12715
929.112	12909
929.218	12810
929.323	12837
929.428	12817
929.533	12867
929.638	12635
929.743	12627
929.848	12749
929.953	12719
930.058	12540
930.163	12380
930.267	12418
930.372	12593
930.477	12357
930.581	12593
930.685	12342
930.79	12254
930.894	12311
930.998	12235
931.103	12353
931.207	12015
931.311	11923
931.415	11874
931.519	11589
931.623	11688
