Data from test_V78500241_860.txt Node
Date: Fri Mar 25 15:47:45 CST 2022
User: usil
Spectrometer: V785-0024
Trigger mode: 0
Integration Time (sec): 4.000000E-1
Scans to average: 1
Nonlinearity correction enabled: false
Boxcar width: 0
Storing dark spectrum: false
XAxis mode: Wavelengths
Number of Pixels in Spectrum: 1024
>>>>>Begin Spectral Data<<<<<
801.071	28322
801.214	28223
801.356	27911
801.499	27778
801.641	27953
801.783	27888
801.926	27857
802.068	27914
802.211	27766
802.353	27793
802.496	27523
802.638	27450
802.78	27545
802.923	27496
803.065	27511
803.208	27504
803.35	27530
803.492	27587
803.635	27698
803.777	27526
803.919	27808
804.061	28010
804.204	27739
804.346	27637
804.488	27618
804.63	27644
804.773	27637
804.915	27766
805.057	27819
805.199	27705
805.341	27793
805.483	27709
805.626	27857
805.768	27873
805.91	27930
806.052	27865
806.194	27876
806.336	28105
806.478	28006
806.62	27880
806.762	28143
806.904	28215
807.046	28367
807.188	28379
807.33	28249
807.472	28337
807.614	28139
807.756	28223
807.898	28230
808.04	28097
808.182	28097
808.324	28215
808.465	28299
808.607	28409
808.749	28394
808.891	28599
809.033	28584
809.174	28740
809.316	28557
809.458	28550
809.6	28577
809.741	28729
809.883	28626
810.025	28843
810.166	28927
810.308	28881
810.45	28919
810.591	28668
810.733	28645
810.875	28481
811.016	28390
811.158	28500
811.299	28710
811.441	28755
811.582	28763
811.724	28504
811.865	28542
812.007	28615
812.148	28466
812.29	28554
812.431	28869
812.573	28908
812.714	28991
812.855	29090
812.997	29170
813.138	29254
813.279	29334
813.421	29086
813.562	29155
813.703	28850
813.845	28858
813.986	28569
814.127	28432
814.268	28215
814.41	28223
814.551	28230
814.692	28223
814.833	28188
814.974	28303
815.115	28299
815.256	28147
815.397	28131
815.539	28109
815.68	28017
815.821	28128
815.962	28173
816.103	28086
816.244	27876
816.385	27964
816.526	27842
816.666	27728
816.807	27568
816.948	27671
817.089	27660
817.23	27660
817.371	27610
817.512	27618
817.653	27599
817.793	27450
817.934	27458
818.075	27641
818.216	27485
818.356	27576
818.497	27431
818.638	27272
818.778	27424
818.919	27359
819.06	27439
819.2	27580
819.341	27492
819.481	27553
819.622	27831
819.762	27873
819.903	27873
820.043	27869
820.184	27709
820.324	27686
820.465	27694
820.605	27732
820.746	27682
820.886	27610
821.026	27660
821.167	27656
821.307	27648
821.447	27625
821.588	27523
821.728	27439
821.868	27089
822.008	27116
822.149	27085
822.289	26918
822.429	26857
822.569	26765
822.709	26819
822.849	26632
822.99	26686
823.13	26678
823.27	26556
823.41	26305
823.55	26229
823.69	26366
823.83	26332
823.97	26332
824.11	26244
824.25	26062
824.389	26191
824.529	26294
824.669	26145
824.809	26495
824.949	26301
825.089	26343
825.228	26294
825.368	26073
825.508	26008
825.648	26111
825.787	26020
825.927	26240
826.067	26107
826.206	26168
826.346	26130
826.485	26199
826.625	26062
826.765	26233
826.904	26214
827.044	25852
827.183	25909
827.323	25738
827.462	25830
827.601	25822
827.741	25951
827.88	25951
828.02	25776
828.159	25936
828.298	25750
828.437	25906
828.577	25734
828.716	25860
828.855	25533
828.994	25723
829.134	25487
829.273	25552
829.412	25449
829.551	25506
829.69	25544
829.829	25502
829.968	25590
830.107	25552
830.246	25578
830.385	25373
830.524	25392
830.663	25358
830.802	25221
830.941	24989
831.08	25137
831.219	25274
831.357	25324
831.496	25384
831.635	25084
831.774	25091
831.913	25160
832.051	24924
832.19	25053
832.329	24901
832.467	24738
832.606	24730
832.744	24779
832.883	24753
833.022	24833
833.16	24829
833.299	24821
833.437	24840
833.576	24882
833.714	24939
833.852	24837
833.991	24901
834.129	24890
834.267	25000
834.406	24882
834.544	24821
834.682	24909
834.821	24829
834.959	25000
835.097	24825
835.235	24882
835.373	24844
835.511	24715
835.65	24589
835.788	24730
835.926	24456
836.064	24475
836.202	24555
836.34	24719
836.478	24848
836.615	24677
836.753	24795
836.891	24700
837.029	24711
837.167	24635
837.305	24574
837.443	24505
837.58	24635
837.718	24536
837.856	24582
837.993	24502
838.131	24460
838.269	24426
838.406	24479
838.544	24479
838.681	24174
838.819	24133
838.956	24007
839.094	24064
839.231	24026
839.369	24190
839.506	24441
839.643	24194
839.781	23980
839.918	23897
840.055	23969
840.193	24072
840.33	23927
840.467	23980
840.604	23939
840.742	24076
840.879	23836
841.016	23931
841.153	23733
841.29	23923
841.427	24045
841.564	23889
841.701	23870
841.838	23866
841.975	23798
842.112	23840
842.249	23741
842.385	23585
842.522	23843
842.659	23748
842.796	23691
842.933	23691
843.069	23589
843.206	23554
843.343	23649
843.479	23528
843.616	23680
843.752	23376
843.889	23372
844.025	23493
844.162	23337
844.298	23520
844.435	23330
844.571	23280
844.708	23440
844.844	23547
844.98	23463
845.117	23478
845.253	23410
845.389	23200
845.525	23417
845.661	23220
845.798	23193
845.934	23162
846.07	23098
846.206	23128
846.342	23200
846.478	23109
846.614	23048
846.75	22831
846.886	22877
847.022	22991
847.158	22877
847.294	22809
847.429	22911
847.565	22866
847.701	23102
847.837	22550
847.972	22405
848.108	22672
848.244	22634
848.379	22523
848.515	22497
848.65	22424
848.786	22523
848.921	22432
849.057	22557
849.192	22592
849.328	22455
849.463	22542
849.598	22459
849.734	22310
849.869	22329
850.004	22261
850.14	22367
850.275	22246
850.41	22158
850.545	22158
850.68	22261
850.815	22280
850.95	22181
851.085	22417
851.22	22329
851.355	22234
851.49	22295
851.625	22162
851.76	22215
851.895	22207
852.03	22204
852.165	22284
852.299	22253
852.434	22246
852.569	22295
852.703	22272
852.838	22363
852.973	22382
853.107	22341
853.242	22124
853.376	22086
853.511	21956
853.645	21987
853.78	22287
853.914	21983
854.048	22063
854.183	22154
854.317	21987
854.451	22253
854.585	22051
854.72	22090
854.854	22166
854.988	21979
855.122	22131
855.256	22112
855.39	22093
855.524	22139
855.658	22200
855.792	22196
855.926	22097
856.06	22082
856.194	22162
856.327	22017
856.461	22051
856.595	22147
856.729	22002
856.862	22196
856.996	22169
857.13	22131
857.263	22257
857.397	22226
857.53	22154
857.664	22150
857.797	22067
857.931	22211
858.064	22135
858.197	22219
858.331	22044
858.464	21926
858.597	21953
858.731	22078
858.864	22074
858.997	22059
859.13	22048
859.263	22097
859.396	22181
859.529	21937
859.662	21956
859.795	22055
859.928	22097
860.061	22147
860.194	22207
860.327	22074
860.46	22082
860.592	22109
860.725	22185
860.858	22196
860.99	22051
861.123	22044
861.256	21930
861.388	22109
861.521	22656
861.653	21975
861.786	21888
861.918	21972
862.05	21835
862.183	22017
862.315	22029
862.447	21953
862.58	21983
862.712	21823
862.844	21682
862.976	21949
863.108	21838
863.24	22150
863.372	21660
863.504	21869
863.636	21838
863.768	21838
863.9	21755
864.032	21629
864.164	21698
864.296	21854
864.428	21937
864.559	21903
864.691	21736
864.823	21751
864.954	21728
865.086	21618
865.217	21770
865.349	21637
865.48	21736
865.612	21812
865.743	21823
865.875	21701
866.006	21724
866.137	21614
866.269	21583
866.4	21637
866.531	21603
866.662	21538
866.793	21542
866.924	21545
867.055	21618
867.186	21564
867.317	21526
867.448	21466
867.579	21576
867.71	21530
867.841	21523
867.972	21717
868.103	21606
868.233	21591
868.364	21713
868.495	21728
868.625	21899
868.756	21918
868.886	21759
869.017	21816
869.147	21888
869.278	21911
869.408	21903
869.539	21751
869.669	21819
869.799	21915
869.929	22017
870.06	21911
870.19	22200
870.32	22109
870.45	22112
870.58	22211
870.71	22337
870.84	22485
870.97	22196
871.1	22257
871.23	22405
871.36	22386
871.489	22341
871.619	22329
871.749	22318
871.879	22569
872.008	22531
872.138	22352
872.267	22375
872.397	22405
872.526	22234
872.656	22284
872.785	22196
872.915	22348
873.044	22504
873.173	22493
873.303	22470
873.432	22493
873.561	22618
873.69	22478
873.819	22413
873.948	22588
874.077	22615
874.206	22481
874.335	22447
874.464	22538
874.593	22797
874.722	22561
874.851	22702
874.979	22752
875.108	22683
875.237	22592
875.365	22607
875.494	22630
875.623	22637
875.751	22569
875.88	22694
876.008	22698
876.136	22850
876.265	23090
876.393	23136
876.521	23159
876.65	23109
876.778	23044
876.906	23025
877.034	22915
877.162	22980
877.29	22892
877.418	23060
877.546	23083
877.674	22968
877.802	22999
877.93	22915
878.058	22835
878.185	22908
878.313	22961
878.441	23048
878.568	22866
878.696	23014
878.824	23010
878.951	23132
879.079	23128
879.206	23223
879.333	23174
879.461	23022
879.588	23189
879.715	23208
879.842	23269
879.97	23220
880.097	22831
880.224	22869
880.351	22812
880.478	22900
880.605	22668
880.732	22831
880.859	23147
880.986	22892
881.112	22790
881.239	22782
881.366	22618
881.493	22443
881.619	22443
881.746	22504
881.872	22363
881.999	22459
882.125	22238
882.252	22382
882.378	22390
882.505	22405
882.631	22272
882.757	22112
882.883	22097
883.01	22112
883.136	22017
883.262	21911
883.388	21835
883.514	22101
883.64	22063
883.766	22010
883.892	21785
884.018	21831
884.143	21979
884.269	22051
884.395	21732
884.52	21743
884.646	21838
884.772	21690
884.897	21587
885.023	21705
885.148	21823
885.274	21846
885.399	21827
885.524	21644
885.65	21770
885.775	21743
885.9	21656
886.025	21823
886.15	21762
886.275	21751
886.4	21530
886.525	21644
886.65	21618
886.775	21625
886.9	21690
887.025	21812
887.149	21766
887.274	21450
887.399	21523
887.523	21416
887.648	21477
887.773	21355
887.897	21424
888.021	21469
888.146	21378
888.27	21545
888.395	21473
888.519	21519
888.643	21481
888.767	21557
888.891	21325
889.015	21344
889.139	21325
889.263	21321
889.387	21298
889.511	21500
889.635	21355
889.759	21325
889.883	21180
890.006	21336
890.13	21294
890.254	21192
890.377	21283
890.501	21146
890.624	21039
890.748	21043
890.871	20921
890.995	20804
891.118	20727
891.241	20876
891.364	20845
891.488	20899
891.611	20952
891.734	20727
891.857	20975
891.98	20906
892.103	20899
892.226	20842
892.349	20720
892.471	20594
892.594	20686
892.717	20693
892.839	20838
892.962	20815
893.085	20796
893.207	20705
893.33	20556
893.452	20731
893.575	20823
893.697	20629
893.819	20921
893.941	20941
894.064	20830
894.186	20568
894.308	20689
894.43	20712
894.552	20735
894.674	20815
894.796	20587
894.918	20773
895.04	20689
895.161	20701
895.283	20609
895.405	20686
895.526	20727
895.648	20724
895.769	20697
895.891	20701
896.012	20769
896.134	20735
896.255	20674
896.376	20804
896.498	20708
896.619	20727
896.74	20556
896.861	20746
896.982	21036
897.103	21184
897.224	21039
897.345	20944
897.466	20891
897.587	20815
897.708	20963
897.828	20887
897.949	20902
898.07	20609
898.19	20796
898.311	21062
898.431	20906
898.552	20845
898.672	20933
898.792	20887
898.913	20891
899.033	20842
899.153	20701
899.273	20678
899.393	20549
899.513	20651
899.633	20644
899.753	20560
899.873	20598
899.993	20629
900.113	20522
900.232	20678
900.352	20659
900.472	20404
900.591	20446
900.711	20423
900.83	20374
900.95	20514
901.069	20408
901.189	20278
901.308	20096
901.427	19947
901.546	20031
901.665	20020
901.784	20027
901.904	19909
902.023	19731
902.141	19578
902.26	19594
902.379	19712
902.498	19533
902.617	19480
902.735	19563
902.854	19438
902.973	19434
903.091	19232
903.21	19240
903.328	19232
903.446	19175
903.565	19019
903.683	18932
903.801	18920
903.919	18859
904.038	18943
904.156	18730
904.274	18837
904.392	18703
904.51	18764
904.627	18779
904.745	18734
904.863	18821
904.981	18517
905.098	18376
905.216	18410
905.334	18422
905.451	18437
905.569	18300
905.686	18372
905.803	18452
905.921	18167
906.038	18311
906.155	18243
906.272	18106
906.389	18136
906.506	17866
906.623	17916
906.74	17916
906.857	17771
906.974	17935
907.091	17942
907.208	18125
907.324	17958
907.441	17828
907.557	17676
907.674	17691
907.79	17566
907.907	17710
908.023	17718
908.139	17672
908.256	17600
908.372	17505
908.488	17535
908.604	17391
908.72	17318
908.836	17406
908.952	17398
909.068	17471
909.184	17395
909.3	17372
909.415	17417
909.531	17330
909.647	17045
909.762	17003
909.878	16980
909.993	17037
910.108	17022
910.224	17010
910.339	17067
910.454	17010
910.57	16938
910.685	16869
910.8	17003
910.915	17075
911.03	16889
911.145	16721
911.259	16596
911.374	16622
911.489	16527
911.604	16523
911.718	16333
911.833	16421
911.947	16272
912.062	16303
912.176	16504
912.291	16382
912.405	16417
912.519	16588
912.633	16523
912.748	16268
912.862	16344
912.976	16158
913.09	16051
913.204	16242
913.318	16181
913.431	16242
913.545	16226
913.659	16363
913.772	16128
913.886	16067
914	15857
914.113	15991
914.226	16128
914.34	15998
914.453	15816
914.566	15991
914.68	15869
914.793	15759
914.906	15778
915.019	15580
915.132	15584
915.245	15610
915.358	15633
915.47	15450
915.583	15641
915.696	15667
915.809	15675
915.921	15591
916.034	15488
916.146	15496
916.259	15416
916.371	15595
916.483	15469
916.595	15439
916.708	15412
916.82	15496
916.932	15321
917.044	15275
917.156	15378
917.268	15287
917.38	15222
917.491	15230
917.603	15180
917.715	15313
917.826	15275
917.938	15211
918.049	15104
918.161	15211
918.272	15382
918.384	15264
918.495	15138
918.606	14986
918.717	14990
918.828	15108
918.939	14971
919.05	14941
919.161	14948
919.272	14777
919.383	14853
919.494	14971
919.604	15142
919.715	14937
919.826	14929
919.936	14933
920.047	15051
920.157	14967
920.267	15154
920.378	14944
920.488	14910
920.598	15085
920.708	15150
920.818	15138
920.928	14960
921.038	15207
921.148	15146
921.258	15009
921.368	14697
921.477	14689
921.587	14693
921.697	14533
921.806	14678
921.916	14583
922.025	14385
922.134	14278
922.244	14305
922.353	14294
922.462	14263
922.571	14100
922.68	14016
922.789	13963
922.898	13936
923.007	13917
923.116	13925
923.224	13887
923.333	13993
923.442	13731
923.55	13712
923.659	13947
923.767	13871
923.876	13753
923.984	13784
924.092	13613
924.201	13696
924.309	13746
924.417	13636
924.525	13666
924.633	13590
924.741	14514
924.849	13438
924.956	13636
925.064	13377
925.172	13320
925.279	13331
925.387	13350
925.494	13411
925.602	13407
925.709	13312
925.816	13293
925.924	13350
926.031	13304
926.138	13362
926.245	13293
926.352	13289
926.459	13365
926.566	13221
926.673	13263
926.779	12996
926.886	13046
926.993	12886
927.099	12886
927.206	12837
927.312	12837
927.419	12905
927.525	12897
927.631	12947
927.737	12646
927.843	12700
927.95	12563
928.056	12703
928.162	12673
928.267	12753
928.373	13335
928.479	12802
928.585	12555
928.69	12730
928.796	12654
928.901	12593
929.007	12483
929.112	12635
929.218	12566
929.323	12437
929.428	12388
929.533	12642
929.638	12369
929.743	12486
929.848	12422
929.953	12376
930.058	12235
930.163	12110
930.267	12121
930.372	12167
930.477	12106
930.581	12262
930.685	12095
930.79	11935
930.894	12003
930.998	11904
931.103	12064
931.207	11764
931.311	11649
931.415	11627
931.519	11353
931.623	11406
