Data from test_V78500241_3334.txt Node
Date: Fri Mar 25 16:04:53 CST 2022
User: usil
Spectrometer: V785-0024
Trigger mode: 0
Integration Time (sec): 4.000000E-1
Scans to average: 1
Nonlinearity correction enabled: false
Boxcar width: 0
Storing dark spectrum: false
XAxis mode: Wavelengths
Number of Pixels in Spectrum: 1024
>>>>>Begin Spectral Data<<<<<
801.071	28421
801.214	28268
801.356	28074
801.499	28040
801.641	27922
801.783	27854
801.926	27937
802.068	27869
802.211	27827
802.353	27819
802.496	27564
802.638	27625
802.78	27485
802.923	27580
803.065	27519
803.208	27572
803.35	27534
803.492	27732
803.635	27819
803.777	27778
803.919	27656
804.061	28059
804.204	27804
804.346	27770
804.488	27622
804.63	27747
804.773	27766
804.915	27873
805.057	27785
805.199	27705
805.341	27903
805.483	27789
805.626	28006
805.768	27850
805.91	28040
806.052	28021
806.194	27979
806.336	28002
806.478	28010
806.62	27903
806.762	28116
806.904	28150
807.046	28394
807.188	28489
807.33	28371
807.472	28322
807.614	28306
807.756	28401
807.898	28211
808.04	28234
808.182	28192
808.324	28101
808.465	28261
808.607	28519
808.749	28554
808.891	28584
809.033	28706
809.174	28618
809.316	28645
809.458	28618
809.6	28573
809.741	28820
809.883	28706
810.025	29010
810.166	28934
810.308	28915
810.45	28786
810.591	28713
810.733	28573
810.875	28679
811.016	28546
811.158	28493
811.299	28691
811.441	28908
811.582	28744
811.724	28809
811.865	28584
812.007	28611
812.148	28713
812.29	28790
812.431	28854
812.573	29022
812.714	28949
812.855	29147
812.997	29159
813.138	29402
813.279	29433
813.421	29216
813.562	29128
813.703	29056
813.845	28919
813.986	28599
814.127	28542
814.268	28272
814.41	28386
814.551	28238
814.692	28348
814.833	28249
814.974	28318
815.115	28424
815.256	28158
815.397	28196
815.539	28101
815.68	28120
815.821	28067
815.962	28169
816.103	28154
816.244	27960
816.385	27972
816.526	27835
816.666	27698
816.807	27553
816.948	27557
817.089	27599
817.23	27591
817.371	27599
817.512	27492
817.653	27610
817.793	27652
817.934	27591
818.075	27561
818.216	27511
818.356	27656
818.497	27526
818.638	27504
818.778	27454
818.919	27325
819.06	27488
819.2	27477
819.341	27507
819.481	27603
819.622	27789
819.762	28017
819.903	27888
820.043	27880
820.184	27732
820.324	27827
820.465	27873
820.605	27732
820.746	27892
820.886	27595
821.026	27652
821.167	27690
821.307	27728
821.447	27720
821.588	27603
821.728	27424
821.868	27165
822.008	27123
822.149	27058
822.289	27039
822.429	26830
822.569	26876
822.709	26773
822.849	26579
822.99	26758
823.13	26670
823.27	26602
823.41	26404
823.55	26355
823.69	26412
823.83	26438
823.97	26343
824.11	26309
824.25	26214
824.389	26206
824.529	26301
824.669	26263
824.809	26396
824.949	26377
825.089	26301
825.228	26336
825.368	26111
825.508	26111
825.648	26119
825.787	26202
825.927	26157
826.067	26168
826.206	26043
826.346	26134
826.485	26122
826.625	26164
826.765	26195
826.904	26157
827.044	25963
827.183	26062
827.323	25909
827.462	25936
827.601	25970
827.741	25769
827.88	25833
828.02	25795
828.159	25864
828.298	25917
828.437	25936
828.577	25723
828.716	25875
828.855	25784
828.994	25582
829.134	25647
829.273	25601
829.412	25472
829.551	25544
829.69	25506
829.829	25506
829.968	25582
830.107	25578
830.246	25635
830.385	25563
830.524	25449
830.663	25388
830.802	25179
830.941	25103
831.08	25031
831.219	25141
831.357	25282
831.496	25472
831.635	25228
831.774	25057
831.913	24913
832.051	24973
832.19	24863
832.329	24947
832.467	24856
832.606	24886
832.744	24703
832.883	24783
833.022	24787
833.16	24821
833.299	24810
833.437	24859
833.576	24916
833.714	24939
833.852	24837
833.991	24825
834.129	24875
834.267	24928
834.406	25004
834.544	24913
834.682	24928
834.821	24730
834.959	25004
835.097	24973
835.235	24909
835.373	24814
835.511	24817
835.65	24639
835.788	24749
835.926	24585
836.064	24612
836.202	24536
836.34	24582
836.478	24871
836.615	24692
836.753	24665
836.891	24882
837.029	24703
837.167	24696
837.305	24608
837.443	24665
837.58	24555
837.718	24604
837.856	24570
837.993	24570
838.131	24521
838.269	24490
838.406	24540
838.544	24346
838.681	24296
838.819	24110
838.956	24026
839.094	24121
839.231	24038
839.369	24201
839.506	24452
839.643	24281
839.781	24076
839.918	23935
840.055	23973
840.193	23847
840.33	23832
840.467	23866
840.604	23927
840.742	24163
840.879	23657
841.016	23908
841.153	23855
841.29	23988
841.427	23935
841.564	24038
841.701	23954
841.838	23870
841.975	23832
842.112	23851
842.249	23733
842.385	23615
842.522	23942
842.659	23718
842.796	23619
842.933	23779
843.069	23653
843.206	23672
843.343	23634
843.479	23687
843.616	23585
843.752	23455
843.889	23383
844.025	23611
844.162	23337
844.298	23524
844.435	23440
844.571	23444
844.708	23528
844.844	23581
844.98	23668
845.117	23585
845.253	23337
845.389	23261
845.525	23398
845.661	23265
845.798	23193
845.934	23075
846.07	23056
846.206	23220
846.342	23322
846.478	23151
846.614	22976
846.75	22850
846.886	22854
847.022	22927
847.158	22965
847.294	22862
847.429	22858
847.565	22904
847.701	23060
847.837	22546
847.972	22748
848.108	22816
848.244	22710
848.379	22561
848.515	22508
848.65	22504
848.786	22546
848.921	22550
849.057	22535
849.192	22607
849.328	22519
849.463	22470
849.598	22424
849.734	22390
849.869	22462
850.004	22284
850.14	22310
850.275	22333
850.41	22207
850.545	22158
850.68	22120
850.815	22303
850.95	22265
851.085	22394
851.22	22360
851.355	22299
851.49	22169
851.625	22177
851.76	22150
851.895	22177
852.03	22192
852.165	22314
852.299	22207
852.434	22485
852.569	22382
852.703	22249
852.838	22371
852.973	22478
853.107	22356
853.242	22219
853.376	22150
853.511	21983
853.645	22048
853.78	22169
853.914	22226
854.048	22040
854.183	22021
854.317	22131
854.451	22322
854.585	22128
854.72	22086
854.854	22204
854.988	22044
855.122	22112
855.256	22017
855.39	22067
855.524	22067
855.658	22105
855.792	22147
855.926	22147
856.06	22055
856.194	22188
856.327	22074
856.461	22082
856.595	21998
856.729	21975
856.862	22234
856.996	21998
857.13	22211
857.263	22135
857.397	22173
857.53	22002
857.664	22109
857.797	22166
857.931	22128
858.064	22120
858.197	22204
858.331	22097
858.464	21956
858.597	22063
858.731	22078
858.864	22006
858.997	21983
859.13	22013
859.263	22147
859.396	22166
859.529	22086
859.662	21994
859.795	22002
859.928	22105
860.061	22246
860.194	22272
860.327	22097
860.46	22006
860.592	22177
860.725	22318
860.858	22284
860.99	22230
861.123	21945
861.256	21975
861.388	22154
861.521	22774
861.653	21934
861.786	21903
861.918	21949
862.05	21907
862.183	21945
862.315	22017
862.447	22078
862.58	22086
862.712	21781
862.844	21774
862.976	21907
863.108	21861
863.24	22188
863.372	21808
863.504	21755
863.636	21736
863.768	21869
863.9	21892
864.032	21736
864.164	21766
864.296	21812
864.428	21994
864.559	21846
864.691	21869
864.823	21797
864.954	21747
865.086	21907
865.217	21660
865.349	21679
865.48	21701
865.612	21671
865.743	21880
865.875	21618
866.006	21694
866.137	21667
866.269	21618
866.4	21576
866.531	21644
866.662	21576
866.793	21679
866.924	21530
867.055	21614
867.186	21530
867.317	21534
867.448	21507
867.579	21557
867.71	21500
867.841	21557
867.972	21656
868.103	21614
868.233	21698
868.364	21629
868.495	21694
868.625	21838
868.756	21968
868.886	21789
869.017	21873
869.147	21930
869.278	21998
869.408	21911
869.539	21789
869.669	21918
869.799	21892
869.929	22029
870.06	21934
870.19	22196
870.32	22105
870.45	22223
870.58	22280
870.71	22295
870.84	22348
870.97	22272
871.1	22322
871.23	22409
871.36	22402
871.489	22421
871.619	22352
871.749	22428
871.879	22470
872.008	22481
872.138	22436
872.267	22291
872.397	22310
872.526	22318
872.656	22280
872.785	22268
872.915	22516
873.044	22634
873.173	22527
873.303	22561
873.432	22557
873.561	22569
873.69	22443
873.819	22554
873.948	22531
874.077	22637
874.206	22447
874.335	22451
874.464	22561
874.593	22721
874.722	22634
874.851	22744
874.979	22664
875.108	22778
875.237	22637
875.365	22668
875.494	22713
875.623	22854
875.751	22656
875.88	22801
876.008	22767
876.136	22717
876.265	23170
876.393	23250
876.521	23140
876.65	23052
876.778	23025
876.906	22953
877.034	23079
877.162	23033
877.29	22984
877.418	22984
877.546	23025
877.674	23064
877.802	22991
877.93	22980
878.058	23056
878.185	22938
878.313	22972
878.441	23014
878.568	22927
878.696	22839
878.824	23124
878.951	23048
879.079	23261
879.206	23277
879.333	23143
879.461	23162
879.588	23204
879.715	23280
879.842	23296
879.97	23048
880.097	22915
880.224	22828
880.351	22995
880.478	22980
880.605	22873
880.732	22923
880.859	23086
880.986	22896
881.112	22767
881.239	22698
881.366	22626
881.493	22478
881.619	22382
881.746	22440
881.872	22405
881.999	22402
882.125	22379
882.252	22455
882.378	22398
882.505	22641
882.631	22318
882.757	22044
882.883	22223
883.01	22131
883.136	22021
883.262	21857
883.388	21972
883.514	22135
883.64	22150
883.766	22032
883.892	21854
884.018	21930
884.143	22090
884.269	22093
884.395	21812
884.52	21800
884.646	21751
884.772	21766
884.897	21679
885.023	21743
885.148	21793
885.274	21869
885.399	21770
885.524	21778
885.65	21800
885.775	21823
885.9	21682
886.025	21831
886.15	21808
886.275	21591
886.4	21587
886.525	21671
886.65	21656
886.775	21656
886.9	21922
887.025	22078
887.149	21755
887.274	21625
887.399	21473
887.523	21519
887.648	21424
887.773	21363
887.897	21504
888.021	21428
888.146	21469
888.27	21622
888.395	21519
888.519	21561
888.643	21462
888.767	21572
888.891	21500
889.015	21332
889.139	21287
889.263	21355
889.387	21374
889.511	21591
889.635	21568
889.759	21294
889.883	21272
890.006	21317
890.13	21393
890.254	21222
890.377	21157
890.501	21089
890.624	21017
890.748	21013
890.871	20998
890.995	20769
891.118	20899
891.241	20899
891.364	20910
891.488	20815
891.611	20891
891.734	20887
891.857	20868
891.98	20883
892.103	20902
892.226	20910
892.349	20777
892.471	20651
892.594	20758
892.717	20754
892.839	20655
892.962	20834
893.085	20792
893.207	20716
893.33	20648
893.452	20765
893.575	20830
893.697	20758
893.819	20971
893.941	21058
894.064	20895
894.186	20743
894.308	20594
894.43	20807
894.552	20849
894.674	20944
894.796	20606
894.918	20743
895.04	20708
895.161	20762
895.283	20830
895.405	20724
895.526	20849
895.648	20708
895.769	20663
895.891	20735
896.012	20781
896.134	20758
896.255	20754
896.376	20743
896.498	20705
896.619	20758
896.74	20609
896.861	20743
896.982	21058
897.103	21157
897.224	20998
897.345	20910
897.466	20849
897.587	20891
897.708	21195
897.828	20956
897.949	20883
898.07	20708
898.19	20891
898.311	21013
898.431	20937
898.552	20842
898.672	20998
898.792	20944
898.913	20994
899.033	20830
899.153	20579
899.273	20621
899.393	20743
899.513	20724
899.633	20769
899.753	20678
899.873	20674
899.993	20769
900.113	20678
900.232	20754
900.352	20632
900.472	20533
900.591	20423
900.711	20522
900.83	20366
900.95	20609
901.069	20613
901.189	20317
901.308	20149
901.427	20005
901.546	20119
901.665	20100
901.784	20126
901.904	19875
902.023	19811
902.141	19601
902.26	19590
902.379	19662
902.498	19548
902.617	19472
902.735	19563
902.854	19499
902.973	19464
903.091	19274
903.21	19228
903.328	19160
903.446	19099
903.565	19012
903.683	19031
903.801	18867
903.919	18821
904.038	18993
904.156	18753
904.274	18829
904.392	18909
904.51	18711
904.627	18722
904.745	18833
904.863	18901
904.981	18509
905.098	18559
905.216	18479
905.334	18441
905.451	18483
905.569	18445
905.686	18498
905.803	18304
905.921	18243
906.038	18342
906.155	18213
906.272	18098
906.389	18121
906.506	17904
906.623	17973
906.74	18106
906.857	17855
906.974	17863
907.091	17996
907.208	18053
907.324	17901
907.441	17851
907.557	17718
907.674	17764
907.79	17653
907.907	17630
908.023	17790
908.139	17680
908.256	17585
908.372	17543
908.488	17592
908.604	17436
908.72	17383
908.836	17433
908.952	17395
909.068	17376
909.184	17436
909.3	17421
909.415	17444
909.531	17395
909.647	17075
909.762	17128
909.878	17075
909.993	17041
910.108	17048
910.224	17052
910.339	17060
910.454	16949
910.57	16896
910.685	16812
910.8	17121
910.915	17060
911.03	16816
911.145	16767
911.259	16641
911.374	16611
911.489	16618
911.604	16538
911.718	16329
911.833	16432
911.947	16390
912.062	16276
912.176	16394
912.291	16443
912.405	16375
912.519	16596
912.633	16596
912.748	16451
912.862	16432
912.976	16242
913.09	16124
913.204	16226
913.318	16246
913.431	16341
913.545	16272
913.659	16276
913.772	16120
913.886	16067
914	15994
914.113	16040
914.226	16112
914.34	16025
914.453	15941
914.566	16147
914.68	15960
914.793	15854
914.906	15622
915.019	15610
915.132	15599
915.245	15606
915.358	15637
915.47	15526
915.583	15606
915.696	15686
915.809	15622
915.921	15648
916.034	15507
916.146	15549
916.259	15553
916.371	15553
916.483	15576
916.595	15389
916.708	15477
916.82	15405
916.932	15401
917.044	15389
917.156	15291
917.268	15317
917.38	15203
917.491	15207
917.603	15291
917.715	15340
917.826	15294
917.938	15180
918.049	15032
918.161	15207
918.272	15237
918.384	15260
918.495	15131
918.606	15047
918.717	14910
918.828	15001
918.939	15051
919.05	14918
919.161	14990
919.272	14750
919.383	14807
919.494	14963
919.604	15173
919.715	14948
919.826	14880
919.936	14918
920.047	15005
920.157	14971
920.267	15085
920.378	14937
920.488	14982
920.598	15112
920.708	15230
920.818	15020
920.928	15058
921.038	15169
921.148	15062
921.258	14864
921.368	14819
921.477	14705
921.587	14720
921.697	14575
921.806	14602
921.916	14461
922.025	14336
922.134	14278
922.244	14225
922.353	14328
922.462	14180
922.571	14176
922.68	13826
922.789	13883
922.898	13917
923.007	13906
923.116	13940
923.224	13932
923.333	13864
923.442	13879
923.55	13765
923.659	13818
923.767	13769
923.876	13757
923.984	13833
924.092	13753
924.201	13799
924.309	13723
924.417	13685
924.525	13670
924.633	13658
924.741	14560
924.849	13415
924.956	13597
925.064	13365
925.172	13285
925.279	13343
925.387	13411
925.494	13285
925.602	13529
925.709	13384
925.816	13221
925.924	13228
926.031	13331
926.138	13225
926.245	13308
926.352	13156
926.459	13278
926.566	13289
926.673	13225
926.779	13114
926.886	13080
926.993	12993
927.099	12951
927.206	12913
927.312	12852
927.419	12905
927.525	12913
927.631	12886
927.737	12764
927.843	12715
927.95	12688
928.056	12612
928.162	12703
928.267	12776
928.373	13225
928.479	12852
928.585	12502
928.69	12601
928.796	12772
928.901	12574
929.007	12418
929.112	12646
929.218	12555
929.323	12395
929.428	12479
929.533	12559
929.638	12235
929.743	12308
929.848	12403
929.953	12372
930.058	12285
930.163	12098
930.267	12106
930.372	12140
930.477	12095
930.581	12209
930.685	12197
930.79	11969
930.894	11954
930.998	11939
931.103	12178
931.207	11722
931.311	11619
931.415	11528
931.519	11345
931.623	11341
