Data from test_V78500241_3658.txt Node
Date: Fri Mar 25 16:07:08 CST 2022
User: usil
Spectrometer: V785-0024
Trigger mode: 0
Integration Time (sec): 4.000000E-1
Scans to average: 1
Nonlinearity correction enabled: false
Boxcar width: 0
Storing dark spectrum: false
XAxis mode: Wavelengths
Number of Pixels in Spectrum: 1024
>>>>>Begin Spectral Data<<<<<
801.071	28481
801.214	28565
801.356	28287
801.499	28200
801.641	28078
801.783	28295
801.926	28268
802.068	28109
802.211	28067
802.353	27934
802.496	27816
802.638	27823
802.78	27781
802.923	27785
803.065	27934
803.208	27713
803.35	27968
803.492	28055
803.635	28067
803.777	28044
803.919	28124
804.061	28436
804.204	28223
804.346	28048
804.488	28131
804.63	28086
804.773	28181
804.915	28006
805.057	28310
805.199	28029
805.341	28299
805.483	28284
805.626	28135
805.768	28135
805.91	28185
806.052	28333
806.194	28150
806.336	28428
806.478	28390
806.62	28242
806.762	28421
806.904	28523
807.046	28885
807.188	28717
807.33	28557
807.472	28820
807.614	28786
807.756	28740
807.898	28641
808.04	28554
808.182	28485
808.324	28459
808.465	28626
808.607	28847
808.749	28999
808.891	28995
809.033	29105
809.174	28904
809.316	28953
809.458	28908
809.6	28999
809.741	29022
809.883	29147
810.025	29075
810.166	29296
810.308	29368
810.45	29178
810.591	29140
810.733	28919
810.875	28984
811.016	28831
811.158	28904
811.299	29113
811.441	29060
811.582	29033
811.724	28904
811.865	28980
812.007	28835
812.148	28923
812.29	28995
812.431	29269
812.573	29235
812.714	29406
812.855	29474
812.997	29577
813.138	29543
813.279	29691
813.421	29471
813.562	29414
813.703	29178
813.845	29185
813.986	28877
814.127	28729
814.268	28630
814.41	28618
814.551	28615
814.692	28694
814.833	28554
814.974	28637
815.115	28672
815.256	28588
815.397	28569
815.539	28561
815.68	28470
815.821	28394
815.962	28557
816.103	28512
816.244	28318
816.385	28272
816.526	28386
816.666	27960
816.807	27922
816.948	28040
817.089	28097
817.23	27983
817.371	28006
817.512	27899
817.653	27983
817.793	27892
817.934	27949
818.075	28010
818.216	27960
818.356	27983
818.497	27876
818.638	27785
818.778	27793
818.919	27709
819.06	27876
819.2	27907
819.341	28021
819.481	28021
819.622	28044
819.762	28398
819.903	28185
820.043	28154
820.184	28116
820.324	28010
820.465	28055
820.605	28120
820.746	28257
820.886	27873
821.026	28059
821.167	28010
821.307	28112
821.447	27960
821.588	27823
821.728	27759
821.868	27759
822.008	27443
822.149	27458
822.289	27401
822.429	27230
822.569	27135
822.709	27169
822.849	26994
822.99	27119
823.13	26861
823.27	26960
823.41	26880
823.55	26819
823.69	26746
823.83	26952
823.97	26724
824.11	26629
824.25	26743
824.389	26598
824.529	26823
824.669	26514
824.809	26845
824.949	26739
825.089	26674
825.228	26568
825.368	26568
825.508	26488
825.648	26530
825.787	26518
825.927	26552
826.067	26484
826.206	26507
826.346	26499
826.485	26640
826.625	26480
826.765	26651
826.904	26575
827.044	26389
827.183	26275
827.323	26202
827.462	26267
827.601	26195
827.741	26183
827.88	26278
828.02	26122
828.159	26252
828.298	26324
828.437	26351
828.577	26290
828.716	26073
828.855	26259
828.994	25966
829.134	26027
829.273	26012
829.412	25791
829.551	25887
829.69	25871
829.829	25852
829.968	25947
830.107	25982
830.246	25944
830.385	25955
830.524	25860
830.663	25689
830.802	25594
830.941	25495
831.08	25533
831.219	25514
831.357	25655
831.496	25898
831.635	25582
831.774	25343
831.913	25285
832.051	25369
832.19	25419
832.329	25384
832.467	25335
832.606	25331
832.744	25171
832.883	25145
833.022	25263
833.16	25160
833.299	25289
833.437	25343
833.576	25289
833.714	25384
833.852	25441
833.991	25331
834.129	25396
834.267	25415
834.406	25282
834.544	25324
834.682	25316
834.821	25217
834.959	25529
835.097	25263
835.235	25156
835.373	25422
835.511	25202
835.65	25099
835.788	25164
835.926	25000
836.064	25023
836.202	24981
836.34	25080
836.478	25118
836.615	25080
836.753	25175
836.891	25099
837.029	25187
837.167	24943
837.305	25160
837.443	25008
837.58	24977
837.718	25069
837.856	25110
837.993	24966
838.131	24852
838.269	24924
838.406	24779
838.544	24719
838.681	24631
838.819	24509
838.956	24418
839.094	24361
839.231	24410
839.369	24467
839.506	24863
839.643	24661
839.781	24429
839.918	24460
840.055	24391
840.193	24433
840.33	24315
840.467	24308
840.604	24551
840.742	24650
840.879	24235
841.016	24167
841.153	24292
841.29	24323
841.427	24319
841.564	24521
841.701	24350
841.838	24338
841.975	24254
842.112	24330
842.249	24144
842.385	24018
842.522	24190
842.659	24148
842.796	24083
842.933	24144
843.069	24041
843.206	24026
843.343	24213
843.479	24129
843.616	24117
843.752	23859
843.889	24049
844.025	24049
844.162	23889
844.298	23946
844.435	23935
844.571	23726
844.708	23901
844.844	23935
844.98	23984
845.117	23866
845.253	23942
845.389	23767
845.525	23786
845.661	23600
845.798	23638
845.934	23592
846.07	23596
846.206	23691
846.342	23756
846.478	23596
846.614	23395
846.75	23193
846.886	23341
847.022	23398
847.158	23356
847.294	23376
847.429	23277
847.565	23265
847.701	23562
847.837	23121
847.972	23151
848.108	23174
848.244	23075
848.379	22896
848.515	22869
848.65	22854
848.786	23094
848.921	22889
849.057	22976
849.192	23010
849.328	22869
849.463	22934
849.598	22869
849.734	22820
849.869	22919
850.004	22733
850.14	22793
850.275	22683
850.41	22641
850.545	22592
850.68	22710
850.815	22702
850.95	22607
851.085	22847
851.22	22809
851.355	22733
851.49	22672
851.625	22664
851.76	22622
851.895	22580
852.03	22588
852.165	22634
852.299	22710
852.434	22740
852.569	22778
852.703	22611
852.838	22782
852.973	22774
853.107	22687
853.242	22713
853.376	22459
853.511	22470
853.645	22493
853.78	22611
853.914	22531
854.048	22504
854.183	22504
854.317	22497
854.451	22816
854.585	22565
854.72	22535
854.854	22466
854.988	22455
855.122	22554
855.256	22402
855.39	22402
855.524	22542
855.658	22561
855.792	22459
855.926	22538
856.06	22451
856.194	22459
856.327	22421
856.461	22451
856.595	22432
856.729	22459
856.862	22599
856.996	22546
857.13	22527
857.263	22599
857.397	22577
857.53	22470
857.664	22508
857.797	22485
857.931	22580
858.064	22485
858.197	22573
858.331	22569
858.464	22447
858.597	22322
858.731	22519
858.864	22386
858.997	22447
859.13	22519
859.263	22535
859.396	22497
859.529	22455
859.662	22466
859.795	22550
859.928	22409
860.061	22599
860.194	22679
860.327	22565
860.46	22337
860.592	22713
860.725	22599
860.858	22565
860.99	22508
861.123	22246
861.256	22394
861.388	22344
861.521	23166
861.653	22413
861.786	22508
861.918	22337
862.05	22360
862.183	22455
862.315	22325
862.447	22538
862.58	22382
862.712	22040
862.844	22188
862.976	22109
863.108	22333
863.24	22630
863.372	22207
863.504	22356
863.636	22200
863.768	22242
863.9	22112
864.032	22105
864.164	22257
864.296	22131
864.428	22238
864.559	22413
864.691	22093
864.823	22177
864.954	22131
865.086	22188
865.217	22070
865.349	21918
865.48	22029
865.612	22131
865.743	22204
865.875	22120
866.006	22032
866.137	22112
866.269	22188
866.4	22021
866.531	21930
866.662	21903
866.793	21991
866.924	21979
867.055	21972
867.186	22063
867.317	21968
867.448	21857
867.579	21934
867.71	21956
867.841	21884
867.972	22090
868.103	21972
868.233	21953
868.364	22101
868.495	22093
868.625	22272
868.756	22314
868.886	22143
869.017	22207
869.147	22325
869.278	22166
869.408	22386
869.539	22291
869.669	22352
869.799	22379
869.929	22409
870.06	22287
870.19	22519
870.32	22516
870.45	22630
870.58	22615
870.71	22805
870.84	22748
870.97	22653
871.1	22622
871.23	22805
871.36	22995
871.489	22812
871.619	22889
871.749	22885
871.879	22831
872.008	22847
872.138	22835
872.267	22854
872.397	22679
872.526	22710
872.656	22729
872.785	22691
872.915	22949
873.044	23014
873.173	22957
873.303	22900
873.432	22896
873.561	23037
873.69	22927
873.819	22759
873.948	22767
874.077	22881
874.206	22927
874.335	22953
874.464	23025
874.593	23075
874.722	23098
874.851	23094
874.979	23132
875.108	23048
875.237	23109
875.365	22911
875.494	23029
875.623	23132
875.751	23029
875.88	23155
876.008	23280
876.136	23288
876.265	23402
876.393	23524
876.521	23535
876.65	23547
876.778	23448
876.906	23543
877.034	23425
877.162	23322
877.29	23356
877.418	23429
877.546	23417
877.674	23512
877.802	23551
877.93	23318
878.058	23383
878.185	23246
878.313	23299
878.441	23429
878.568	23239
878.696	23330
878.824	23337
878.951	23528
879.079	23608
879.206	23790
879.333	23615
879.461	23528
879.588	23668
879.715	23649
879.842	23786
879.97	23436
880.097	23181
880.224	23113
880.351	23334
880.478	23235
880.605	23212
880.732	23189
880.859	23368
880.986	23174
881.112	23273
881.239	23079
881.366	22957
881.493	22866
881.619	22892
881.746	22809
881.872	22953
881.999	22744
882.125	22607
882.252	22824
882.378	22771
882.505	22885
882.631	22626
882.757	22508
882.883	22573
883.01	22459
883.136	22428
883.262	22405
883.388	22272
883.514	22489
883.64	22577
883.766	22405
883.892	22265
884.018	22284
884.143	22394
884.269	22424
884.395	22276
884.52	22154
884.646	22063
884.772	22059
884.897	22082
885.023	22124
885.148	22287
885.274	22223
885.399	22223
885.524	22131
885.65	22166
885.775	22029
885.9	22063
886.025	22154
886.15	22135
886.275	21975
886.4	22021
886.525	22040
886.65	21987
886.775	22093
886.9	22268
887.025	22390
887.149	22101
887.274	21930
887.399	21915
887.523	21846
887.648	21816
887.773	21732
887.897	21972
888.021	21857
888.146	21812
888.27	21854
888.395	22025
888.519	21945
888.643	21915
888.767	21793
888.891	21797
889.015	21713
889.139	21808
889.263	21618
889.387	21774
889.511	21854
889.635	21759
889.759	21675
889.883	21591
890.006	21652
890.13	21690
890.254	21660
890.377	21603
890.501	21428
890.624	21298
890.748	21412
890.871	21332
890.995	21336
891.118	21344
891.241	21230
891.364	21382
891.488	21351
891.611	21169
891.734	21313
891.857	21241
891.98	21192
892.103	21245
892.226	21203
892.349	21211
892.471	20937
892.594	21188
892.717	21081
892.839	21146
892.962	21081
893.085	21188
893.207	21058
893.33	20921
893.452	20952
893.575	21146
893.697	20960
893.819	21233
893.941	21382
894.064	21192
894.186	21119
894.308	20925
894.43	21154
894.552	21161
894.674	21207
894.796	21070
894.918	21024
895.04	20971
895.161	21180
895.283	21009
895.405	21036
895.526	21020
895.648	21058
895.769	21142
895.891	21028
896.012	21127
896.134	21116
896.255	21009
896.376	21077
896.498	21051
896.619	21131
896.74	21032
896.861	21176
896.982	21332
897.103	21485
897.224	21272
897.345	21260
897.466	21218
897.587	21249
897.708	21378
897.828	21264
897.949	21214
898.07	21226
898.19	21237
898.311	21332
898.431	21176
898.552	21389
898.672	21298
898.792	21378
898.913	21321
899.033	21154
899.153	21192
899.273	20971
899.393	20979
899.513	21154
899.633	21020
899.753	21009
899.873	20925
899.993	21058
900.113	20933
900.232	20948
900.352	20941
900.472	20838
900.591	20716
900.711	20811
900.83	20621
900.95	20788
901.069	20861
901.189	20590
901.308	20442
901.427	20355
901.546	20393
901.665	20431
901.784	20423
901.904	20214
902.023	20027
902.141	19887
902.26	19845
902.379	19932
902.498	19909
902.617	19761
902.735	19791
902.854	19734
902.973	19674
903.091	19438
903.21	19480
903.328	19571
903.446	19339
903.565	19358
903.683	19247
903.801	19141
903.919	19312
904.038	19247
904.156	19019
904.274	19198
904.392	18989
904.51	19050
904.627	18947
904.745	19179
904.863	19031
904.981	18935
905.098	18677
905.216	18696
905.334	18814
905.451	18711
905.569	18669
905.686	18814
905.803	18715
905.921	18464
906.038	18528
906.155	18551
906.272	18323
906.389	18357
906.506	18235
906.623	18277
906.74	18342
906.857	18125
906.974	18167
907.091	18418
907.208	18311
907.324	18197
907.441	18140
907.557	17901
907.674	18079
907.79	17999
907.907	17946
908.023	17980
908.139	17935
908.256	17965
908.372	18038
908.488	17863
908.604	17798
908.72	17718
908.836	17695
908.952	17722
909.068	17737
909.184	17798
909.3	17817
909.415	17840
909.531	17608
909.647	17448
909.762	17368
909.878	17341
909.993	17341
910.108	17299
910.224	17368
910.339	17448
910.454	17284
910.57	17181
910.685	17132
910.8	17425
910.915	17353
911.03	17166
911.145	17060
911.259	16972
911.374	16949
911.489	16987
911.604	16786
911.718	16763
911.833	16797
911.947	16653
912.062	16497
912.176	16809
912.291	16740
912.405	16672
912.519	16930
912.633	16904
912.748	16763
912.862	16603
912.976	16485
913.09	16432
913.204	16504
913.318	16527
913.431	16675
913.545	16573
913.659	16672
913.772	16546
913.886	16329
914	16303
914.113	16382
914.226	16428
914.34	16432
914.453	16200
914.566	16382
914.68	16135
914.793	16143
914.906	15941
915.019	15880
915.132	15835
915.245	15926
915.358	15873
915.47	16044
915.583	15880
915.696	15899
915.809	15972
915.921	15949
916.034	15873
916.146	15808
916.259	15728
916.371	15854
916.483	15907
916.595	15762
916.708	15751
916.82	15720
916.932	15720
917.044	15686
917.156	15561
917.268	15496
917.38	15599
917.491	15587
917.603	15534
917.715	15633
917.826	15561
917.938	15370
918.049	15408
918.161	15473
918.272	15656
918.384	15515
918.495	15469
918.606	15329
918.717	15256
918.828	15329
918.939	15283
919.05	15039
919.161	15218
919.272	15043
919.383	15112
919.494	15268
919.604	15359
919.715	15283
919.826	15176
919.936	15249
920.047	15226
920.157	15161
920.267	15329
920.378	15142
920.488	15135
920.598	15355
920.708	15462
920.818	15329
920.928	15321
921.038	15576
921.148	15477
921.258	15077
921.368	15017
921.477	15020
921.587	14960
921.697	14746
921.806	14918
921.916	14849
922.025	14693
922.134	14537
922.244	14568
922.353	14564
922.462	14415
922.571	14396
922.68	14298
922.789	14301
922.898	14290
923.007	14084
923.116	14286
923.224	14134
923.333	14191
923.442	14058
923.55	14077
923.659	14103
923.767	14130
923.876	13970
923.984	14039
924.092	13868
924.201	14054
924.309	13906
924.417	14039
924.525	13860
924.633	13788
924.741	14842
924.849	13693
924.956	13818
925.064	13681
925.172	13556
925.279	13582
925.387	13495
925.494	13609
925.602	13704
925.709	13594
925.816	13544
925.924	13495
926.031	13590
926.138	13552
926.245	13639
926.352	13430
926.459	13518
926.566	13594
926.673	13483
926.779	13343
926.886	13339
926.993	13202
927.099	13190
927.206	13046
927.312	13080
927.419	13114
927.525	13110
927.631	13179
927.737	13080
927.843	13000
927.95	12871
928.056	12970
928.162	12973
928.267	13000
928.373	13677
928.479	13107
928.585	12791
928.69	12806
928.796	12958
928.901	12776
929.007	12684
929.112	12707
929.218	12817
929.323	12715
929.428	12642
929.533	12734
929.638	12578
929.743	12547
929.848	12681
929.953	12585
930.058	12498
930.163	12273
930.267	12433
930.372	12498
930.477	12270
930.581	12551
930.685	12334
930.79	12178
930.894	12235
930.998	12155
931.103	12315
931.207	11916
931.311	11874
931.415	11805
931.519	11592
931.623	11585
