Data from test_V78500241_1162.txt Node
Date: Fri Mar 25 15:49:51 CST 2022
User: usil
Spectrometer: V785-0024
Trigger mode: 0
Integration Time (sec): 4.000000E-1
Scans to average: 1
Nonlinearity correction enabled: false
Boxcar width: 0
Storing dark spectrum: false
XAxis mode: Wavelengths
Number of Pixels in Spectrum: 1024
>>>>>Begin Spectral Data<<<<<
801.071	28668
801.214	28478
801.356	28268
801.499	28310
801.641	28356
801.783	28192
801.926	28291
802.068	28276
802.211	28158
802.353	28097
802.496	27831
802.638	27728
802.78	27873
802.923	27728
803.065	27781
803.208	27705
803.35	27892
803.492	28090
803.635	27964
803.777	27956
803.919	28097
804.061	28299
804.204	28074
804.346	28097
804.488	28059
804.63	27964
804.773	27842
804.915	28124
805.057	28234
805.199	28048
805.341	28086
805.483	28276
805.626	28162
805.768	28097
805.91	28173
806.052	28280
806.194	28070
806.336	28535
806.478	28329
806.62	28341
806.762	28421
806.904	28508
807.046	28683
807.188	28721
807.33	28759
807.472	28744
807.614	28599
807.756	28748
807.898	28653
808.04	28497
808.182	28535
808.324	28542
808.465	28584
808.607	28725
808.749	28923
808.891	28877
809.033	29140
809.174	29064
809.316	28961
809.458	29006
809.6	28858
809.741	29140
809.883	29121
810.025	29311
810.166	29303
810.308	29277
810.45	29109
810.591	29353
810.733	29079
810.875	28968
811.016	29014
811.158	28797
811.299	29117
811.441	29094
811.582	29216
811.724	29048
811.865	28908
812.007	29029
812.148	29113
812.29	28972
812.431	29102
812.573	29273
812.714	29512
812.855	29512
812.997	29642
813.138	29680
813.279	29619
813.421	29383
813.562	29486
813.703	29292
813.845	29315
813.986	28946
814.127	28847
814.268	28668
814.41	28820
814.551	28687
814.692	28869
814.833	28645
814.974	28626
815.115	28698
815.256	28550
815.397	28565
815.539	28603
815.68	28493
815.821	28371
815.962	28603
816.103	28462
816.244	28386
816.385	28401
816.526	28375
816.666	28181
816.807	27941
816.948	28131
817.089	28078
817.23	27926
817.371	27979
817.512	28158
817.653	28143
817.793	27953
817.934	27945
818.075	27857
818.216	28013
818.356	28025
818.497	27941
818.638	27644
818.778	27819
818.919	27895
819.06	27838
819.2	27934
819.341	28101
819.481	27956
819.622	28196
819.762	28329
819.903	28299
820.043	28120
820.184	28101
820.324	28173
820.465	28314
820.605	28154
820.746	28204
820.886	27983
821.026	28116
821.167	28078
821.307	28207
821.447	28029
821.588	28013
821.728	27812
821.868	27686
822.008	27641
822.149	27576
822.289	27523
822.429	27317
822.569	27188
822.709	27161
822.849	27081
822.99	26937
823.13	27024
823.27	26925
823.41	26834
823.55	26758
823.69	26842
823.83	26845
823.97	26705
824.11	26587
824.25	26613
824.389	26617
824.529	26632
824.669	26655
824.809	26845
824.949	26750
825.089	26739
825.228	26636
825.368	26746
825.508	26412
825.648	26648
825.787	26568
825.927	26511
826.067	26499
826.206	26678
826.346	26552
826.485	26495
826.625	26423
826.765	26579
826.904	26545
827.044	26408
827.183	26400
827.323	26233
827.462	26347
827.601	26237
827.741	26305
827.88	26358
828.02	26134
828.159	26229
828.298	26282
828.437	26343
828.577	26122
828.716	26355
828.855	26103
828.994	25925
829.134	25814
829.273	26039
829.412	25955
829.551	25955
829.69	26073
829.829	26008
829.968	26012
830.107	25974
830.246	26081
830.385	25803
830.524	25936
830.663	25704
830.802	25548
830.941	25422
831.08	25533
831.219	25674
831.357	25476
831.496	25712
831.635	25525
831.774	25571
831.913	25487
832.051	25392
832.19	25392
832.329	25358
832.467	25122
832.606	25225
832.744	25008
832.883	25122
833.022	25084
833.16	25198
833.299	25209
833.437	25259
833.576	25202
833.714	25225
833.852	25415
833.991	25400
834.129	25411
834.267	25327
834.406	25251
834.544	25316
834.682	25270
834.821	25183
834.959	25403
835.097	25259
835.235	25407
835.373	25346
835.511	25396
835.65	25031
835.788	25080
835.926	25008
836.064	25065
836.202	25061
836.34	25103
836.478	25095
836.615	25255
836.753	25023
836.891	25088
837.029	25148
837.167	24939
837.305	24878
837.443	25023
837.58	24966
837.718	25088
837.856	25057
837.993	24738
838.131	24886
838.269	24821
838.406	24753
838.544	24711
838.681	24604
838.819	24677
838.956	24467
839.094	24350
839.231	24353
839.369	24597
839.506	24806
839.643	24639
839.781	24483
839.918	24395
840.055	24365
840.193	24399
840.33	24266
840.467	24380
840.604	24525
840.742	24578
840.879	24266
841.016	24201
841.153	24057
841.29	24403
841.427	24323
841.564	24319
841.701	24323
841.838	24228
841.975	24194
842.112	24182
842.249	24117
842.385	24106
842.522	24243
842.659	24110
842.796	24076
842.933	24091
843.069	23980
843.206	24041
843.343	24064
843.479	24140
843.616	24106
843.752	23809
843.889	23927
844.025	24007
844.162	23805
844.298	23999
844.435	23836
844.571	23965
844.708	23889
844.844	24041
844.98	23775
845.117	24015
845.253	23775
845.389	23642
845.525	23600
845.661	23748
845.798	23455
845.934	23570
846.07	23691
846.206	23596
846.342	23623
846.478	23478
846.614	23322
846.75	23250
846.886	23239
847.022	23395
847.158	23223
847.294	23261
847.429	23387
847.565	23197
847.701	23421
847.837	23071
847.972	22991
848.108	23022
848.244	23105
848.379	22839
848.515	22820
848.65	22877
848.786	22824
848.921	22839
849.057	23041
849.192	22961
849.328	22896
849.463	22885
849.598	22828
849.734	22717
849.869	22702
850.004	22706
850.14	22573
850.275	22630
850.41	22523
850.545	22607
850.68	22713
850.815	22698
850.95	22740
851.085	22774
851.22	22740
851.355	22535
851.49	22599
851.625	22592
851.76	22607
851.895	22672
852.03	22603
852.165	22668
852.299	22603
852.434	22790
852.569	22618
852.703	22649
852.838	22675
852.973	22835
853.107	22725
853.242	22554
853.376	22554
853.511	22314
853.645	22367
853.78	22523
853.914	22531
854.048	22443
854.183	22421
854.317	22367
854.451	22550
854.585	22478
854.72	22398
854.854	22523
854.988	22333
855.122	22436
855.256	22382
855.39	22405
855.524	22485
855.658	22493
855.792	22470
855.926	22466
856.06	22493
856.194	22596
856.327	22478
856.461	22405
856.595	22310
856.729	22325
856.862	22535
856.996	22577
857.13	22637
857.263	22462
857.397	22352
857.53	22455
857.664	22481
857.797	22516
857.931	22538
858.064	22470
858.197	22698
858.331	22436
858.464	22382
858.597	22276
858.731	22413
858.864	22394
858.997	22371
859.13	22443
859.263	22455
859.396	22603
859.529	22417
859.662	22382
859.795	22485
859.928	22527
860.061	22694
860.194	22679
860.327	22440
860.46	22428
860.592	22634
860.725	22603
860.858	22641
860.99	22485
861.123	22337
861.256	22352
861.388	22512
861.521	23079
861.653	22291
861.786	22207
861.918	22280
862.05	22375
862.183	22200
862.315	22443
862.447	22390
862.58	22352
862.712	22051
862.844	22226
862.976	22344
863.108	22265
863.24	22634
863.372	22048
863.504	22074
863.636	22207
863.768	22067
863.9	22150
864.032	22105
864.164	22067
864.296	22120
864.428	22185
864.559	22021
864.691	22249
864.823	22211
864.954	22093
865.086	22154
865.217	22013
865.349	21903
865.48	22025
865.612	22036
865.743	22105
865.875	22078
866.006	21941
866.137	22013
866.269	22067
866.4	21903
866.531	21892
866.662	21915
866.793	22002
866.924	22078
867.055	22032
867.186	21960
867.317	22059
867.448	21762
867.579	21922
867.71	21827
867.841	21937
867.972	22025
868.103	21869
868.233	21873
868.364	22002
868.495	22124
868.625	22105
868.756	22341
868.886	22169
869.017	22162
869.147	22272
869.278	22367
869.408	22158
869.539	22124
869.669	22188
869.799	22230
869.929	22318
870.06	22341
870.19	22535
870.32	22485
870.45	22481
870.58	22557
870.71	22653
870.84	22713
870.97	22481
871.1	22603
871.23	22683
871.36	22786
871.489	22653
871.619	22713
871.749	22713
871.879	22790
872.008	22927
872.138	22790
872.267	22881
872.397	22577
872.526	22656
872.656	22569
872.785	22569
872.915	22778
873.044	22850
873.173	22801
873.303	22873
873.432	22946
873.561	22809
873.69	22752
873.819	22843
873.948	22847
874.077	22740
874.206	22771
874.335	22850
874.464	23010
874.593	23010
874.722	23025
874.851	23037
874.979	23090
875.108	23102
875.237	22968
875.365	22850
875.494	22927
875.623	23086
875.751	22961
875.88	23067
876.008	23140
876.136	23288
876.265	23425
876.393	23558
876.521	23512
876.65	23478
876.778	23452
876.906	23425
877.034	23433
877.162	23296
877.29	23349
877.418	23452
877.546	23322
877.674	23364
877.802	23277
877.93	23265
878.058	23288
878.185	23086
878.313	23334
878.441	23311
878.568	23212
878.696	23372
878.824	23356
878.951	23402
879.079	23562
879.206	23661
879.333	23444
879.461	23421
879.588	23482
879.715	23524
879.842	23691
879.97	23452
880.097	23269
880.224	23235
880.351	23280
880.478	23277
880.605	23151
880.732	23109
880.859	23467
880.986	23128
881.112	23090
881.239	23048
881.366	22915
881.493	22793
881.619	22725
881.746	22820
881.872	22771
881.999	22675
882.125	22774
882.252	22820
882.378	22626
882.505	22812
882.631	22653
882.757	22382
882.883	22546
883.01	22443
883.136	22299
883.262	22310
883.388	22253
883.514	22394
883.64	22421
883.766	22257
883.892	22128
884.018	22230
884.143	22280
884.269	22436
884.395	22207
884.52	22044
884.646	22067
884.772	21956
884.897	21854
885.023	22063
885.148	22120
885.274	22158
885.399	22215
885.524	22086
885.65	22124
885.775	22040
885.9	22036
886.025	22177
886.15	22093
886.275	22074
886.4	21903
886.525	21972
886.65	21930
886.775	22029
886.9	22150
887.025	22234
887.149	21918
887.274	21907
887.399	21736
887.523	21888
887.648	21747
887.773	21804
887.897	21865
888.021	21930
888.146	21747
888.27	21831
888.395	21789
888.519	21785
888.643	21797
888.767	21850
888.891	21698
889.015	21545
889.139	21599
889.263	21542
889.387	21698
889.511	21778
889.635	21770
889.759	21523
889.883	21561
890.006	21599
890.13	21660
890.254	21587
890.377	21443
890.501	21367
890.624	21275
890.748	21386
890.871	21222
890.995	21165
891.118	21188
891.241	21169
891.364	21142
891.488	21268
891.611	21135
891.734	21230
891.857	21214
891.98	21157
892.103	21055
892.226	21127
892.349	21131
892.471	20921
892.594	21150
892.717	21062
892.839	21005
892.962	21119
893.085	21184
893.207	20956
893.33	20872
893.452	20982
893.575	21131
893.697	20933
893.819	21184
893.941	21165
894.064	21089
894.186	21039
894.308	20941
894.43	21123
894.552	21116
894.674	21100
894.796	20880
894.918	21051
895.04	20963
895.161	21138
895.283	21020
895.405	20891
895.526	20994
895.648	21013
895.769	21150
895.891	21169
896.012	21138
896.134	20948
896.255	21074
896.376	20921
896.498	21013
896.619	21066
896.74	21081
896.861	20990
896.982	21321
897.103	21469
897.224	21302
897.345	21310
897.466	21142
897.587	21211
897.708	21340
897.828	21313
897.949	21188
898.07	21081
898.19	21089
898.311	21230
898.431	21085
898.552	21188
898.672	21214
898.792	21275
898.913	21249
899.033	21116
899.153	21043
899.273	20937
899.393	20941
899.513	20925
899.633	20982
899.753	21047
899.873	20781
899.993	20880
900.113	20914
900.232	20887
900.352	20952
900.472	20880
900.591	20701
900.711	20796
900.83	20655
900.95	20739
901.069	20765
901.189	20590
901.308	20469
901.427	20351
901.546	20240
901.665	20294
901.784	20377
901.904	20164
902.023	19978
902.141	19959
902.26	19860
902.379	19936
902.498	19811
902.617	19822
902.735	19696
902.854	19715
902.973	19712
903.091	19597
903.21	19434
903.328	19373
903.446	19346
903.565	19244
903.683	19126
903.801	19076
903.919	19198
904.038	19194
904.156	18996
904.274	19076
904.392	18875
904.51	18996
904.627	18981
904.745	18916
904.863	19152
904.981	18715
905.098	18738
905.216	18566
905.334	18646
905.451	18817
905.569	18593
905.686	18776
905.803	18684
905.921	18467
906.038	18597
906.155	18460
906.272	18209
906.389	18433
906.506	18228
906.623	18209
906.74	18197
906.857	18110
906.974	18106
907.091	18209
907.208	18330
907.324	18136
907.441	18136
907.557	17988
907.674	17916
907.79	17783
907.907	17882
908.023	17893
908.139	17885
908.256	17847
908.372	17718
908.488	17771
908.604	17585
908.72	17642
908.836	17646
908.952	17581
909.068	17680
909.184	17840
909.3	17741
909.415	17570
909.531	17452
909.647	17383
909.762	17345
909.878	17315
909.993	17318
910.108	17208
910.224	17277
910.339	17307
910.454	17185
910.57	17121
910.685	17094
910.8	17216
910.915	17307
911.03	17117
911.145	17045
911.259	17006
911.374	16885
911.489	16847
911.604	16752
911.718	16603
911.833	16630
911.947	16618
912.062	16447
912.176	16664
912.291	16565
912.405	16622
912.519	16778
912.633	16828
912.748	16706
912.862	16622
912.976	16497
913.09	16272
913.204	16413
913.318	16470
913.431	16554
913.545	16523
913.659	16596
913.772	16428
913.886	16402
914	16257
914.113	16363
914.226	16329
914.34	16348
914.453	16105
914.566	16291
914.68	16124
914.793	16101
914.906	15972
915.019	15956
915.132	15709
915.245	15854
915.358	15854
915.47	15846
915.583	15876
915.696	15903
915.809	15846
915.921	15968
916.034	15732
916.146	15766
916.259	15797
916.371	15728
916.483	15857
916.595	15682
916.708	15663
916.82	15747
916.932	15641
917.044	15580
917.156	15591
917.268	15401
917.38	15553
917.491	15420
917.603	15473
917.715	15572
917.826	15450
917.938	15454
918.049	15283
918.161	15332
918.272	15561
918.384	15591
918.495	15336
918.606	15291
918.717	15195
918.828	15252
918.939	15188
919.05	15081
919.161	15192
919.272	14918
919.383	15081
919.494	15252
919.604	15393
919.715	15207
919.826	15074
919.936	15157
920.047	15241
920.157	15058
920.267	15317
920.378	15039
920.488	15123
920.598	15370
920.708	15492
920.818	15256
920.928	15207
921.038	15363
921.148	15412
921.258	15089
921.368	14842
921.477	14937
921.587	14979
921.697	14697
921.806	14826
921.916	14670
922.025	14587
922.134	14484
922.244	14526
922.353	14488
922.462	14313
922.571	14355
922.68	14195
922.789	14164
922.898	14214
923.007	14088
923.116	14210
923.224	14145
923.333	14039
923.442	14005
923.55	13902
923.659	13947
923.767	14107
923.876	13868
923.984	13944
924.092	13852
924.201	13875
924.309	13871
924.417	13799
924.525	13757
924.633	13769
924.741	14465
924.849	13571
924.956	13811
925.064	13582
925.172	13506
925.279	13533
925.387	13559
925.494	13514
925.602	13586
925.709	13571
925.816	13434
925.924	13434
926.031	13525
926.138	13453
926.245	13419
926.352	13346
926.459	13434
926.566	13563
926.673	13327
926.779	13274
926.886	13168
926.993	13236
927.099	13107
927.206	12993
927.312	12973
927.419	13103
927.525	13023
927.631	13099
927.737	12996
927.843	12973
927.95	12886
928.056	12897
928.162	12840
928.267	12939
928.373	13521
928.479	13019
928.585	12730
928.69	12875
928.796	12863
928.901	12757
929.007	12582
929.112	12631
929.218	12715
929.323	12719
929.428	12544
929.533	12719
929.638	12471
929.743	12506
929.848	12559
929.953	12559
930.058	12376
930.163	12251
930.267	12308
930.372	12391
930.477	12258
930.581	12452
930.685	12330
930.79	12140
930.894	12159
930.998	12095
931.103	12182
931.207	11889
931.311	11802
931.415	11794
931.519	11471
931.623	11478
