Data from test_V78500241_3180.txt Node
Date: Fri Mar 25 16:03:49 CST 2022
User: usil
Spectrometer: V785-0024
Trigger mode: 0
Integration Time (sec): 4.000000E-1
Scans to average: 1
Nonlinearity correction enabled: false
Boxcar width: 0
Storing dark spectrum: false
XAxis mode: Wavelengths
Number of Pixels in Spectrum: 1024
>>>>>Begin Spectral Data<<<<<
801.071	28637
801.214	28615
801.356	28363
801.499	28394
801.641	28242
801.783	28249
801.926	28405
802.068	28329
802.211	28215
802.353	28188
802.496	28051
802.638	28070
802.78	27911
802.923	27907
803.065	27789
803.208	27911
803.35	27964
803.492	28128
803.635	28188
803.777	28177
803.919	28093
804.061	28497
804.204	28265
804.346	28063
804.488	28173
804.63	28120
804.773	28105
804.915	28306
805.057	28367
805.199	28215
805.341	28204
805.483	28314
805.626	28375
805.768	28284
805.91	28360
806.052	28424
806.194	28272
806.336	28554
806.478	28390
806.62	28379
806.762	28607
806.904	28641
807.046	28755
807.188	28733
807.33	28748
807.472	28900
807.614	28915
807.756	28736
807.898	28774
808.04	28691
808.182	28672
808.324	28790
808.465	28816
808.607	28911
808.749	29018
808.891	29128
809.033	29250
809.174	28995
809.316	29041
809.458	28984
809.6	29025
809.741	29227
809.883	29185
810.025	29318
810.166	29379
810.308	29368
810.45	29269
810.591	29200
810.733	29162
810.875	29113
811.016	29064
811.158	28850
811.299	29216
811.441	29242
811.582	29303
811.724	29193
811.865	29292
812.007	29014
812.148	29010
812.29	29189
812.431	29208
812.573	29402
812.714	29516
812.855	29596
812.997	29729
813.138	29954
813.279	29657
813.421	29512
813.562	29623
813.703	29554
813.845	29174
813.986	29010
814.127	28885
814.268	28744
814.41	28793
814.551	28957
814.692	28885
814.833	28679
814.974	28759
815.115	28820
815.256	28713
815.397	28565
815.539	28451
815.68	28611
815.821	28516
815.962	28630
816.103	28512
816.244	28428
816.385	28417
816.526	28261
816.666	28238
816.807	28048
816.948	28048
817.089	28211
817.23	28070
817.371	28021
817.512	28101
817.653	28124
817.793	27941
817.934	28036
818.075	28044
818.216	28105
818.356	28109
818.497	27968
818.638	27831
818.778	27850
818.919	27880
819.06	27884
819.2	27941
819.341	28074
819.481	28124
819.622	28280
819.762	28413
819.903	28401
820.043	28478
820.184	28215
820.324	28105
820.465	28310
820.605	28325
820.746	28356
820.886	28093
821.026	28204
821.167	28173
821.307	28303
821.447	28063
821.588	27975
821.728	27930
821.868	27762
822.008	27595
822.149	27595
822.289	27656
822.429	27416
822.569	27275
822.709	27268
822.849	27192
822.99	27176
823.13	27013
823.27	27089
823.41	26952
823.55	26762
823.69	26952
823.83	26880
823.97	26899
824.11	26800
824.25	26705
824.389	26735
824.529	26880
824.669	26804
824.809	26880
824.949	26826
825.089	26842
825.228	26769
825.368	26598
825.508	26602
825.648	26708
825.787	26609
825.927	26659
826.067	26659
826.206	26442
826.346	26552
826.485	26705
826.625	26621
826.765	26727
826.904	26804
827.044	26423
827.183	26408
827.323	26301
827.462	26412
827.601	26438
827.741	26313
827.88	26396
828.02	26248
828.159	26358
828.298	26244
828.437	26256
828.577	26267
828.716	26511
828.855	26214
828.994	25989
829.134	26119
829.273	26016
829.412	26027
829.551	25947
829.69	26054
829.829	26100
829.968	26122
830.107	26252
830.246	26016
830.385	26001
830.524	26081
830.663	25887
830.802	25712
830.941	25727
831.08	25620
831.219	25704
831.357	25677
831.496	25944
831.635	25601
831.774	25674
831.913	25426
832.051	25362
832.19	25343
832.329	25521
832.467	25228
832.606	25343
832.744	25244
832.883	25354
833.022	25289
833.16	25339
833.299	25491
833.437	25255
833.576	25354
833.714	25479
833.852	25365
833.991	25491
834.129	25373
834.267	25521
834.406	25377
834.544	25430
834.682	25460
834.821	25346
834.959	25518
835.097	25335
835.235	25377
835.373	25293
835.511	25365
835.65	25270
835.788	25320
835.926	25160
836.064	25057
836.202	24977
836.34	25114
836.478	25293
836.615	25160
836.753	25053
836.891	25206
837.029	25293
837.167	25107
837.305	25103
837.443	25027
837.58	25027
837.718	25171
837.856	24985
837.993	25008
838.131	24981
838.269	24878
838.406	25038
838.544	24837
838.681	24654
838.819	24494
838.956	24528
839.094	24441
839.231	24471
839.369	24692
839.506	24776
839.643	24741
839.781	24429
839.918	24441
840.055	24456
840.193	24593
840.33	24422
840.467	24251
840.604	24475
840.742	24639
840.879	24247
841.016	24350
841.153	24304
841.29	24422
841.427	24437
841.564	24327
841.701	24376
841.838	24399
841.975	24292
842.112	24361
842.249	24300
842.385	24072
842.522	24304
842.659	24254
842.796	24053
842.933	24186
843.069	24079
843.206	24068
843.343	24155
843.479	24167
843.616	24102
843.752	23855
843.889	23908
844.025	24060
844.162	23912
844.298	23958
844.435	23828
844.571	23729
844.708	23923
844.844	24015
844.98	24064
845.117	23954
845.253	23885
845.389	23847
845.525	23817
845.661	23817
845.798	23680
845.934	23661
846.07	23703
846.206	23558
846.342	23699
846.478	23581
846.614	23387
846.75	23421
846.886	23372
847.022	23402
847.158	23364
847.294	23516
847.429	23493
847.565	23406
847.701	23676
847.837	23220
847.972	23022
848.108	23258
848.244	23265
848.379	23113
848.515	22930
848.65	22908
848.786	23071
848.921	23029
849.057	23018
849.192	23136
849.328	23018
849.463	23003
849.598	22934
849.734	22892
849.869	22790
850.004	22755
850.14	22793
850.275	22694
850.41	22763
850.545	22622
850.68	22706
850.815	22748
850.95	22580
851.085	22824
851.22	22972
851.355	22839
851.49	22733
851.625	22641
851.76	22668
851.895	22554
852.03	22733
852.165	22759
852.299	22660
852.434	22831
852.569	22721
852.703	22801
852.838	22892
852.973	22805
853.107	22812
853.242	22694
853.376	22497
853.511	22348
853.645	22421
853.78	22774
853.914	22596
854.048	22516
854.183	22550
854.317	22599
854.451	22717
854.585	22637
854.72	22440
854.854	22687
854.988	22466
855.122	22664
855.256	22337
855.39	22592
855.524	22622
855.658	22512
855.792	22523
855.926	22527
856.06	22656
856.194	22729
856.327	22664
856.461	22519
856.595	22405
856.729	22634
856.862	22683
856.996	22588
857.13	22599
857.263	22637
857.397	22634
857.53	22611
857.664	22622
857.797	22641
857.931	22755
858.064	22557
858.197	22584
858.331	22561
858.464	22447
858.597	22443
858.731	22542
858.864	22603
858.997	22417
859.13	22649
859.263	22500
859.396	22702
859.529	22470
859.662	22554
859.795	22417
859.928	22546
860.061	22596
860.194	22786
860.327	22573
860.46	22626
860.592	22767
860.725	22679
860.858	22710
860.99	22710
861.123	22402
861.256	22580
861.388	22459
861.521	23379
861.653	22538
861.786	22261
861.918	22512
862.05	22421
862.183	22485
862.315	22519
862.447	22626
862.58	22344
862.712	22177
862.844	22276
862.976	22322
863.108	22272
863.24	22474
863.372	22204
863.504	22268
863.636	22375
863.768	22299
863.9	22329
864.032	22177
864.164	22226
864.296	22196
864.428	22284
864.559	22291
864.691	22276
864.823	22363
864.954	22257
865.086	22268
865.217	22128
865.349	22158
865.48	22223
865.612	22166
865.743	22310
865.875	22105
866.006	22120
866.137	22196
866.269	22082
866.4	22067
866.531	22013
866.662	22055
866.793	22067
866.924	21994
867.055	22048
867.186	22051
867.317	22109
867.448	22090
867.579	22017
867.71	22036
867.841	21876
867.972	22090
868.103	22048
868.233	21960
868.364	22067
868.495	22139
868.625	22322
868.756	22356
868.886	22238
869.017	22306
869.147	22356
869.278	22390
869.408	22230
869.539	22280
869.669	22447
869.799	22325
869.929	22116
870.06	22337
870.19	22618
870.32	22634
870.45	22649
870.58	22706
870.71	22687
870.84	22824
870.97	22675
871.1	22664
871.23	22889
871.36	22820
871.489	22748
871.619	22835
871.749	22847
871.879	22911
872.008	22953
872.138	22869
872.267	22869
872.397	22767
872.526	22702
872.656	22820
872.785	22748
872.915	22930
873.044	23003
873.173	22843
873.303	23041
873.432	22965
873.561	23086
873.69	22847
873.819	22957
873.948	23056
874.077	22949
874.206	22915
874.335	22957
874.464	23037
874.593	23235
874.722	23155
874.851	23056
874.979	23094
875.108	23143
875.237	23052
875.365	23033
875.494	23067
875.623	23227
875.751	23075
875.88	23155
876.008	23292
876.136	23254
876.265	23577
876.393	23630
876.521	23512
876.65	23745
876.778	23531
876.906	23478
877.034	23448
877.162	23467
877.29	23436
877.418	23364
877.546	23535
877.674	23474
877.802	23421
877.93	23551
878.058	23425
878.185	23376
878.313	23501
878.441	23471
878.568	23292
878.696	23474
878.824	23459
878.951	23566
879.079	23798
879.206	23798
879.333	23608
879.461	23455
879.588	23623
879.715	23638
879.842	23851
879.97	23570
880.097	23337
880.224	23387
880.351	23288
880.478	23288
880.605	23227
880.732	23227
880.859	23551
880.986	23265
881.112	23227
881.239	23113
881.366	23056
881.493	22923
881.619	22839
881.746	22873
881.872	22854
881.999	22778
882.125	22862
882.252	22801
882.378	22759
882.505	22984
882.631	22626
882.757	22607
882.883	22622
883.01	22504
883.136	22485
883.262	22306
883.388	22318
883.514	22531
883.64	22538
883.766	22512
883.892	22318
884.018	22432
884.143	22485
884.269	22523
884.395	22223
884.52	22211
884.646	22162
884.772	22139
884.897	22070
885.023	22078
885.148	22204
885.274	22265
885.399	22192
885.524	22116
885.65	22242
885.775	22067
885.9	22287
886.025	22268
886.15	22272
886.275	22200
886.4	22036
886.525	22063
886.65	22169
886.775	22059
886.9	22196
887.025	22360
887.149	22093
887.274	21926
887.399	22032
887.523	21987
887.648	22006
887.773	21785
887.897	22025
888.021	22059
888.146	21846
888.27	21953
888.395	21994
888.519	21956
888.643	22002
888.767	21880
888.891	21907
889.015	21747
889.139	21789
889.263	21743
889.387	21743
889.511	21903
889.635	21812
889.759	21595
889.883	21682
890.006	21701
890.13	21694
890.254	21671
890.377	21530
890.501	21393
890.624	21492
890.748	21504
890.871	21321
890.995	21233
891.118	21287
891.241	21192
891.364	21154
891.488	21458
891.611	21332
891.734	21332
891.857	21279
891.98	21374
892.103	21237
892.226	21336
892.349	21161
892.471	21081
892.594	21119
892.717	21241
892.839	21138
892.962	21112
893.085	21176
893.207	21135
893.33	21077
893.452	21051
893.575	21233
893.697	21199
893.819	21351
893.941	21416
894.064	21226
894.186	21013
894.308	21135
894.43	21226
894.552	21298
894.674	21245
894.796	20971
894.918	21154
895.04	20952
895.161	21184
895.283	21272
895.405	21013
895.526	20994
895.648	21036
895.769	21195
895.891	21119
896.012	21241
896.134	21142
896.255	21169
896.376	21051
896.498	21085
896.619	21184
896.74	21108
896.861	21176
896.982	21401
897.103	21519
897.224	21450
897.345	21344
897.466	21462
897.587	21298
897.708	21500
897.828	21340
897.949	21256
898.07	21184
898.19	21146
898.311	21405
898.431	21268
898.552	21336
898.672	21454
898.792	21317
898.913	21351
899.033	21203
899.153	21150
899.273	21051
899.393	20990
899.513	21074
899.633	21222
899.753	21146
899.873	20918
899.993	21020
900.113	20864
900.232	20902
900.352	20891
900.472	20853
900.591	20845
900.711	20842
900.83	20788
900.95	20937
901.069	20826
901.189	20708
901.308	20492
901.427	20343
901.546	20488
901.665	20282
901.784	20503
901.904	20214
902.023	20153
902.141	19887
902.26	19963
902.379	20073
902.498	19860
902.617	19928
902.735	19986
902.854	19826
902.973	19776
903.091	19567
903.21	19502
903.328	19552
903.446	19468
903.565	19453
903.683	19392
903.801	19244
903.919	19289
904.038	19312
904.156	19072
904.274	19122
904.392	19148
904.51	19168
904.627	18996
904.745	19152
904.863	19137
904.981	18920
905.098	18722
905.216	18810
905.334	18768
905.451	18722
905.569	18665
905.686	18810
905.803	18673
905.921	18570
906.038	18665
906.155	18494
906.272	18521
906.389	18513
906.506	18304
906.623	18258
906.74	18319
906.857	18098
906.974	18178
907.091	18361
907.208	18380
907.324	18205
907.441	18251
907.557	17977
907.674	18011
907.79	18045
907.907	18091
908.023	18026
908.139	18079
908.256	18022
908.372	17836
908.488	17786
908.604	17775
908.72	17684
908.836	17764
908.952	17691
909.068	17809
909.184	17737
909.3	17741
909.415	17710
909.531	17733
909.647	17471
909.762	17452
909.878	17364
909.993	17467
910.108	17330
910.224	17296
910.339	17372
910.454	17315
910.57	17075
910.685	17227
910.8	17478
910.915	17395
911.03	17166
911.145	16987
911.259	17105
911.374	16904
911.489	16816
911.604	16873
911.718	16736
911.833	16706
911.947	16584
912.062	16497
912.176	16672
912.291	16706
912.405	16748
912.519	16904
912.633	16869
912.748	16771
912.862	16721
912.976	16622
913.09	16417
913.204	16421
913.318	16599
913.431	16470
913.545	16516
913.659	16649
913.772	16402
913.886	16367
914	16310
914.113	16348
914.226	16356
914.34	16348
914.453	16325
914.566	16352
914.68	16207
914.793	16185
914.906	15991
915.019	15915
915.132	15869
915.245	15850
915.358	16006
915.47	15968
915.583	15918
915.696	15934
915.809	16029
915.921	16063
916.034	15869
916.146	15819
916.259	15751
916.371	15869
916.483	15770
916.595	15876
916.708	15762
916.82	15739
916.932	15671
917.044	15641
917.156	15690
917.268	15561
917.38	15553
917.491	15389
917.603	15587
917.715	15606
917.826	15561
917.938	15485
918.049	15378
918.161	15576
918.272	15591
918.384	15667
918.495	15454
918.606	15283
918.717	15195
918.828	15279
918.939	15313
919.05	15173
919.161	15192
919.272	15039
919.383	15116
919.494	15180
919.604	15412
919.715	15211
919.826	15180
919.936	15192
920.047	15306
920.157	15279
920.267	15408
920.378	15264
920.488	15230
920.598	15355
920.708	15568
920.818	15420
920.928	15393
921.038	15534
921.148	15435
921.258	15226
921.368	15089
921.477	14921
921.587	14941
921.697	14823
921.806	14933
921.916	14693
922.025	14545
922.134	14606
922.244	14446
922.353	14537
922.462	14469
922.571	14412
922.68	14218
922.789	14206
922.898	14282
923.007	14100
923.116	14237
923.224	14244
923.333	14187
923.442	14077
923.55	13989
923.659	14081
923.767	14035
923.876	13921
923.984	14058
924.092	13811
924.201	13959
924.309	13902
924.417	13963
924.525	13811
924.633	13841
924.741	14644
924.849	13647
924.956	13738
925.064	13658
925.172	13609
925.279	13643
925.387	13582
925.494	13658
925.602	13636
925.709	13605
925.816	13514
925.924	13525
926.031	13586
926.138	13597
926.245	13476
926.352	13419
926.459	13643
926.566	13616
926.673	13426
926.779	13304
926.886	13327
926.993	13263
927.099	13179
927.206	13099
927.312	13061
927.419	13137
927.525	13232
927.631	13114
927.737	13004
927.843	13015
927.95	12867
928.056	12913
928.162	13015
928.267	13004
928.373	13438
928.479	13004
928.585	12768
928.69	12817
928.796	12882
928.901	12802
929.007	12631
929.112	12848
929.218	12745
929.323	12631
929.428	12639
929.533	12764
929.638	12612
929.743	12642
929.848	12608
929.953	12719
930.058	12494
930.163	12308
930.267	12399
930.372	12509
930.477	12292
930.581	12513
930.685	12391
930.79	12175
930.894	12300
930.998	12209
931.103	12175
931.207	12007
931.311	11908
931.415	11783
931.519	11585
931.623	11589
