Data from test_V78500241_3340.txt Node
Date: Fri Mar 25 16:04:56 CST 2022
User: usil
Spectrometer: V785-0024
Trigger mode: 0
Integration Time (sec): 4.000000E-1
Scans to average: 1
Nonlinearity correction enabled: false
Boxcar width: 0
Storing dark spectrum: false
XAxis mode: Wavelengths
Number of Pixels in Spectrum: 1024
>>>>>Begin Spectral Data<<<<<
801.071	28793
801.214	28839
801.356	28710
801.499	28702
801.641	28588
801.783	28687
801.926	28577
802.068	28550
802.211	28653
802.353	28519
802.496	28440
802.638	28272
802.78	28188
802.923	28185
803.065	28078
803.208	28268
803.35	28204
803.492	28322
803.635	28542
803.777	28314
803.919	28436
804.061	28885
804.204	28550
804.346	28459
804.488	28417
804.63	28382
804.773	28413
804.915	28466
805.057	28596
805.199	28462
805.341	28645
805.483	28694
805.626	28645
805.768	28683
805.91	28786
806.052	28744
806.194	28687
806.336	28809
806.478	28645
806.62	28653
806.762	28809
806.904	29041
807.046	29269
807.188	29022
807.33	29071
807.472	29014
807.614	29086
807.756	29067
807.898	28946
808.04	28850
808.182	28843
808.324	29010
808.465	29121
808.607	29189
808.749	29379
808.891	29436
809.033	29467
809.174	29406
809.316	29353
809.458	29455
809.6	29345
809.741	29509
809.883	29524
810.025	29562
810.166	29794
810.308	29733
810.45	29703
810.591	29604
810.733	29360
810.875	29307
811.016	29326
811.158	29372
811.299	29349
811.441	29615
811.582	29577
811.724	29337
811.865	29299
812.007	29402
812.148	29444
812.29	29455
812.431	29554
812.573	29729
812.714	29608
812.855	29878
812.997	30041
813.138	30129
813.279	30057
813.421	29965
813.562	29790
813.703	29771
813.845	29596
813.986	29452
814.127	29280
814.268	29079
814.41	29223
814.551	29044
814.692	29143
814.833	29071
814.974	29174
815.115	29067
815.256	29010
815.397	29025
815.539	29094
815.68	28911
815.821	28767
815.962	29029
816.103	28869
816.244	28809
816.385	28626
816.526	28790
816.666	28535
816.807	28295
816.948	28451
817.089	28607
817.23	28508
817.371	28531
817.512	28512
817.653	28428
817.793	28440
817.934	28455
818.075	28428
818.216	28466
818.356	28394
818.497	28341
818.638	28200
818.778	28173
818.919	28287
819.06	28257
819.2	28348
819.341	28386
819.481	28447
819.622	28596
819.762	28965
819.903	28778
820.043	28599
820.184	28584
820.324	28519
820.465	28713
820.605	28523
820.746	28413
820.886	28421
821.026	28504
821.167	28466
821.307	28516
821.447	28577
821.588	28485
821.728	28272
821.868	28109
822.008	27850
822.149	28128
822.289	27968
822.429	27755
822.569	27568
822.709	27599
822.849	27325
822.99	27447
823.13	27344
823.27	27389
823.41	27416
823.55	27157
823.69	27252
823.83	27325
823.97	27195
824.11	27135
824.25	26990
824.389	27066
824.529	27028
824.669	26948
824.809	27135
824.949	27264
825.089	27252
825.228	26914
825.368	26891
825.508	26971
825.648	27005
825.787	27017
825.927	27005
826.067	26834
826.206	27028
826.346	27001
826.485	26998
826.625	27028
826.765	27127
826.904	26990
827.044	26716
827.183	26743
827.323	26758
827.462	26727
827.601	26686
827.741	26743
827.88	26667
828.02	26488
828.159	26648
828.298	26731
828.437	26663
828.577	26511
828.716	26777
828.855	26434
828.994	26358
829.134	26453
829.273	26488
829.412	26309
829.551	26252
829.69	26381
829.829	26324
829.968	26484
830.107	26438
830.246	26328
830.385	26305
830.524	26347
830.663	26237
830.802	26153
830.941	25940
831.08	25940
831.219	26199
831.357	26084
831.496	26088
831.635	26008
831.774	25894
831.913	26001
832.051	25700
832.19	25674
832.329	25849
832.467	25776
832.606	25616
832.744	25670
832.883	25620
833.022	25651
833.16	25658
833.299	25753
833.437	25746
833.576	25879
833.714	25628
833.852	25651
833.991	25898
834.129	25959
834.267	25830
834.406	25784
834.544	25830
834.682	25727
834.821	25693
834.959	25818
835.097	25738
835.235	25761
835.373	25738
835.511	25647
835.65	25647
835.788	25635
835.926	25491
836.064	25320
836.202	25324
836.34	25613
836.478	25635
836.615	25502
836.753	25434
836.891	25514
837.029	25594
837.167	25419
837.305	25373
837.443	25438
837.58	25464
837.718	25430
837.856	25449
837.993	25213
838.131	25331
838.269	25320
838.406	25160
838.544	25171
838.681	25015
838.819	24977
838.956	24859
839.094	24791
839.231	24810
839.369	25008
839.506	25244
839.643	25023
839.781	24848
839.918	24696
840.055	24806
840.193	24817
840.33	24692
840.467	24661
840.604	24738
840.742	25027
840.879	24726
841.016	24688
841.153	24540
841.29	24798
841.427	24635
841.564	24677
841.701	24734
841.838	24646
841.975	24631
842.112	24601
842.249	24483
842.385	24384
842.522	24642
842.659	24604
842.796	24494
842.933	24441
843.069	24578
843.206	24426
843.343	24547
843.479	24505
843.616	24429
843.752	24251
843.889	24270
844.025	24525
844.162	24205
844.298	24365
844.435	24247
844.571	24224
844.708	24251
844.844	24304
844.98	24365
845.117	24372
845.253	24155
845.389	24060
845.525	24220
845.661	24060
845.798	24015
845.934	24060
846.07	23923
846.206	24106
846.342	24186
846.478	23920
846.614	23794
846.75	23585
846.886	23771
847.022	23741
847.158	23798
847.294	23756
847.429	23828
847.565	23642
847.701	23965
847.837	23364
847.972	23360
848.108	23558
848.244	23482
848.379	23406
848.515	23440
848.65	23307
848.786	23273
848.921	23414
849.057	23288
849.192	23345
849.328	23330
849.463	23318
849.598	23147
849.734	23166
849.869	23197
850.004	23121
850.14	23162
850.275	23029
850.41	22957
850.545	22999
850.68	22934
850.815	23083
850.95	22934
851.085	23299
851.22	23242
851.355	23128
851.49	23105
851.625	23140
851.76	23037
851.895	23109
852.03	22953
852.165	23056
852.299	23014
852.434	23223
852.569	23200
852.703	23105
852.838	23151
852.973	23284
853.107	23246
853.242	22896
853.376	22919
853.511	22839
853.645	22805
853.78	22999
853.914	22972
854.048	22793
854.183	22866
854.317	22976
854.451	23136
854.585	22839
854.72	22812
854.854	23041
854.988	22820
855.122	22869
855.256	22805
855.39	22869
855.524	22972
855.658	22900
855.792	22923
855.926	22949
856.06	22930
856.194	23075
856.327	22911
856.461	22778
856.595	22854
856.729	22809
856.862	23025
856.996	23018
857.13	22908
857.263	22915
857.397	22976
857.53	22965
857.664	22930
857.797	22835
857.931	22976
858.064	22847
858.197	23037
858.331	22801
858.464	22725
858.597	22812
858.731	22812
858.864	22904
858.997	22923
859.13	22736
859.263	22908
859.396	22968
859.529	22809
859.662	22847
859.795	22885
859.928	22847
860.061	22991
860.194	23143
860.327	22889
860.46	22869
860.592	23003
860.725	23090
860.858	23064
860.99	22858
861.123	22694
861.256	22816
861.388	22911
861.521	23543
861.653	22824
861.786	22717
861.918	22763
862.05	22828
862.183	22809
862.315	22721
862.447	22835
862.58	22885
862.712	22580
862.844	22588
862.976	22740
863.108	22759
863.24	23090
863.372	22554
863.504	22668
863.636	22626
863.768	22706
863.9	22615
864.032	22546
864.164	22569
864.296	22729
864.428	22733
864.559	22721
864.691	22531
864.823	22580
864.954	22409
865.086	22519
865.217	22462
865.349	22413
865.48	22386
865.612	22489
865.743	22626
865.875	22535
866.006	22440
866.137	22443
866.269	22455
866.4	22413
866.531	22451
866.662	22356
866.793	22428
866.924	22303
867.055	22443
867.186	22413
867.317	22485
867.448	22284
867.579	22314
867.71	22455
867.841	22284
867.972	22413
868.103	22318
868.233	22322
868.364	22382
868.495	22512
868.625	22618
868.756	22702
868.886	22516
869.017	22660
869.147	22691
869.278	22782
869.408	22592
869.539	22637
869.669	22793
869.799	22687
869.929	22748
870.06	22649
870.19	23022
870.32	22911
870.45	22919
870.58	23117
870.71	23136
870.84	23197
870.97	23086
871.1	22946
871.23	23269
871.36	23250
871.489	23189
871.619	23151
871.749	23250
871.879	23261
872.008	23250
872.138	23250
872.267	23258
872.397	23124
872.526	23166
872.656	23067
872.785	23132
872.915	23204
873.044	23330
873.173	23140
873.303	23250
873.432	23269
873.561	23391
873.69	23254
873.819	23318
873.948	23318
874.077	23242
874.206	23273
874.335	23246
874.464	23280
874.593	23433
874.722	23417
874.851	23478
874.979	23433
875.108	23452
875.237	23425
875.365	23326
875.494	23364
875.623	23493
875.751	23391
875.88	23440
876.008	23516
876.136	23528
876.265	23779
876.393	23904
876.521	24041
876.65	23897
876.778	23821
876.906	23840
877.034	23722
877.162	23832
877.29	23710
877.418	23855
877.546	23798
877.674	23790
877.802	23760
877.93	23817
878.058	23828
878.185	23570
878.313	23634
878.441	23710
878.568	23623
878.696	23687
878.824	23824
878.951	23889
879.079	23790
879.206	23980
879.333	23843
879.461	23866
879.588	23901
879.715	24064
879.842	24136
879.97	23790
880.097	23684
880.224	23737
880.351	23684
880.478	23566
880.605	23573
880.732	23687
880.859	23741
880.986	23581
881.112	23741
881.239	23455
881.366	23299
881.493	23280
881.619	23204
881.746	23220
881.872	23200
881.999	23094
882.125	23075
882.252	23254
882.378	23197
882.505	23227
882.631	23086
882.757	22995
882.883	22877
883.01	22790
883.136	22675
883.262	22729
883.388	22759
883.514	22896
883.64	22820
883.766	22805
883.892	22588
884.018	22580
884.143	22790
884.269	22900
884.395	22409
884.52	22455
884.646	22516
884.772	22455
884.897	22371
885.023	22402
885.148	22519
885.274	22630
885.399	22535
885.524	22417
885.65	22523
885.775	22466
885.9	22390
886.025	22645
886.15	22436
886.275	22398
886.4	22337
886.525	22440
886.65	22314
886.775	22344
886.9	22508
887.025	22740
887.149	22424
887.274	22291
887.399	22226
887.523	22169
887.648	22120
887.773	22139
887.897	22246
888.021	22219
888.146	22070
888.27	22196
888.395	22287
888.519	22314
888.643	22234
888.767	22280
888.891	22150
889.015	22013
889.139	22025
889.263	21926
889.387	22207
889.511	22253
889.635	22109
889.759	21922
889.883	21972
890.006	22010
890.13	22105
890.254	21876
890.377	21884
890.501	21789
890.624	21846
890.748	21732
890.871	21663
890.995	21694
891.118	21530
891.241	21610
891.364	21507
891.488	21580
891.611	21431
891.734	21564
891.857	21698
891.98	21561
892.103	21576
892.226	21618
892.349	21511
892.471	21310
892.594	21492
892.717	21542
892.839	21298
892.962	21443
893.085	21450
893.207	21481
893.33	21454
893.452	21325
893.575	21496
893.697	21363
893.819	21553
893.941	21576
894.064	21656
894.186	21321
894.308	21279
894.43	21469
894.552	21667
894.674	21397
894.796	21462
894.918	21359
895.04	21408
895.161	21606
895.283	21408
895.405	21336
895.526	21344
895.648	21241
895.769	21329
895.891	21435
896.012	21523
896.134	21424
896.255	21340
896.376	21378
896.498	21283
896.619	21473
896.74	21359
896.861	21374
896.982	21766
897.103	21857
897.224	21675
897.345	21629
897.466	21561
897.587	21690
897.708	21656
897.828	21603
897.949	21473
898.07	21416
898.19	21492
898.311	21660
898.431	21564
898.552	21549
898.672	21762
898.792	21629
898.913	21583
899.033	21458
899.153	21325
899.273	21268
899.393	21348
899.513	21222
899.633	21348
899.753	21374
899.873	21294
899.993	21310
900.113	21203
900.232	21298
900.352	21180
900.472	21081
900.591	21039
900.711	21142
900.83	20994
900.95	21157
901.069	21173
901.189	21062
901.308	20678
901.427	20735
901.546	20731
901.665	20731
901.784	20606
901.904	20442
902.023	20438
902.141	20294
902.26	20199
902.379	20290
902.498	20320
902.617	20081
902.735	20221
902.854	20081
902.973	20103
903.091	19818
903.21	19799
903.328	19784
903.446	19791
903.565	19674
903.683	19647
903.801	19540
903.919	19651
904.038	19635
904.156	19381
904.274	19529
904.392	19422
904.51	19415
904.627	19282
904.745	19476
904.863	19426
904.981	19209
905.098	18973
905.216	19042
905.334	19179
905.451	19114
905.569	19008
905.686	19107
905.803	19114
905.921	18825
906.038	18795
906.155	18856
906.272	18787
906.389	18783
906.506	18566
906.623	18604
906.74	18555
906.857	18536
906.974	18483
907.091	18673
907.208	18616
907.324	18677
907.441	18483
907.557	18254
907.674	18342
907.79	18338
907.907	18388
908.023	18254
908.139	18201
908.256	18235
908.372	18197
908.488	18155
908.604	18091
908.72	17977
908.836	17977
908.952	18026
909.068	17973
909.184	18129
909.3	17904
909.415	17961
909.531	17961
909.647	17710
909.762	17737
909.878	17638
909.993	17672
910.108	17741
910.224	17680
910.339	17661
910.454	17452
910.57	17425
910.685	17406
910.8	17630
910.915	17596
911.03	17440
911.145	17322
911.259	17292
911.374	17318
911.489	17212
911.604	17064
911.718	17098
911.833	17185
911.947	17041
912.062	16774
912.176	17079
912.291	17010
912.405	16987
912.519	17212
912.633	17204
912.748	17014
912.862	16934
912.976	16809
913.09	16771
913.204	16904
913.318	16835
913.431	16991
913.545	16942
913.659	16923
913.772	16721
913.886	16691
914	16630
914.113	16702
914.226	16675
914.34	16599
914.453	16493
914.566	16634
914.68	16516
914.793	16405
914.906	16246
915.019	16063
915.132	16166
915.245	16234
915.358	16223
915.47	16215
915.583	16215
915.696	16188
915.809	16196
915.921	16234
916.034	16204
916.146	16017
916.259	15960
916.371	16090
916.483	16131
916.595	15979
916.708	16025
916.82	15972
916.932	15945
917.044	15865
917.156	15934
917.268	15781
917.38	15827
917.491	15743
917.603	15861
917.715	15915
917.826	15789
917.938	15686
918.049	15545
918.161	15690
918.272	15880
918.384	15793
918.495	15633
918.606	15561
918.717	15458
918.828	15507
918.939	15568
919.05	15481
919.161	15534
919.272	15260
919.383	15355
919.494	15549
919.604	15690
919.715	15500
919.826	15435
919.936	15488
920.047	15504
920.157	15454
920.267	15660
920.378	15424
920.488	15481
920.598	15648
920.708	15778
920.818	15614
920.928	15568
921.038	15747
921.148	15713
921.258	15428
921.368	15264
921.477	15237
921.587	15214
921.697	15039
921.806	15176
921.916	15043
922.025	14906
922.134	14815
922.244	14735
922.353	14796
922.462	14659
922.571	14545
922.68	14549
922.789	14518
922.898	14457
923.007	14446
923.116	14434
923.224	14389
923.333	14438
923.442	14450
923.55	14248
923.659	14286
923.767	14362
923.876	14206
923.984	14206
924.092	14176
924.201	14138
924.309	14206
924.417	14119
924.525	14111
924.633	14088
924.741	15043
924.849	13871
924.956	13970
925.064	13898
925.172	13750
925.279	13795
925.387	13909
925.494	13856
925.602	13940
925.709	13928
925.816	13791
925.924	13803
926.031	13795
926.138	13769
926.245	13795
926.352	13616
926.459	13776
926.566	13818
926.673	13597
926.779	13495
926.886	13495
926.993	13441
927.099	13365
927.206	13327
927.312	13362
927.419	13339
927.525	13285
927.631	13358
927.737	13228
927.843	13126
927.95	13046
928.056	13160
928.162	13160
928.267	13175
928.373	13609
928.479	13259
928.585	13000
928.69	13122
928.796	13099
928.901	13008
929.007	12840
929.112	12954
929.218	12951
929.323	12859
929.428	12760
929.533	12909
929.638	12768
929.743	12779
929.848	12726
929.953	12852
930.058	12623
930.163	12570
930.267	12574
930.372	12650
930.477	12460
930.581	12730
930.685	12574
930.79	12391
930.894	12327
930.998	12361
931.103	12464
931.207	12152
931.311	12034
931.415	12019
931.519	11828
931.623	11657
