Data from test_V78500241_2470.txt Node
Date: Fri Mar 25 15:58:54 CST 2022
User: usil
Spectrometer: V785-0024
Trigger mode: 0
Integration Time (sec): 4.000000E-1
Scans to average: 1
Nonlinearity correction enabled: false
Boxcar width: 0
Storing dark spectrum: false
XAxis mode: Wavelengths
Number of Pixels in Spectrum: 1024
>>>>>Begin Spectral Data<<<<<
801.071	28120
801.214	28150
801.356	27861
801.499	27816
801.641	27663
801.783	27679
801.926	27736
802.068	27705
802.211	27439
802.353	27549
802.496	27534
802.638	27302
802.78	27439
802.923	27378
803.065	27188
803.208	27245
803.35	27279
803.492	27466
803.635	27701
803.777	27523
803.919	27561
804.061	27895
804.204	27629
804.346	27389
804.488	27466
804.63	27561
804.773	27553
804.915	27576
805.057	27701
805.199	27405
805.341	27717
805.483	27785
805.626	27781
805.768	27663
805.91	27736
806.052	27713
806.194	27572
806.336	27819
806.478	27701
806.62	27736
806.762	27835
806.904	27953
807.046	28261
807.188	27968
807.33	28116
807.472	28401
807.614	28188
807.756	28032
807.898	27937
808.04	27816
808.182	27895
808.324	28090
808.465	28105
808.607	28204
808.749	28375
808.891	28409
809.033	28557
809.174	28561
809.316	28234
809.458	28500
809.6	28135
809.741	28386
809.883	28375
810.025	28557
810.166	28550
810.308	28649
810.45	28538
810.591	28561
810.733	28470
810.875	28462
811.016	28303
811.158	28348
811.299	28424
811.441	28356
811.582	28379
811.724	28405
811.865	28481
812.007	28299
812.148	28398
812.29	28325
812.431	28459
812.573	28687
812.714	28626
812.855	28908
812.997	28896
813.138	29102
813.279	28850
813.421	28790
813.562	28805
813.703	28637
813.845	28474
813.986	28287
814.127	28166
814.268	27937
814.41	28059
814.551	27987
814.692	28036
814.833	28013
814.974	27873
815.115	28097
815.256	27812
815.397	27861
815.539	27930
815.68	27732
815.821	27728
815.962	27770
816.103	27846
816.244	27785
816.385	27591
816.526	27553
816.666	27447
816.807	27336
816.948	27344
817.089	27287
817.23	27367
817.371	27332
817.512	27268
817.653	27382
817.793	27272
817.934	27332
818.075	27291
818.216	27367
818.356	27184
818.497	27268
818.638	26960
818.778	27222
818.919	27043
819.06	27165
819.2	27100
819.341	27226
819.481	27310
819.622	27488
819.762	27618
819.903	27382
820.043	27564
820.184	27576
820.324	27485
820.465	27458
820.605	27564
820.746	27412
820.886	27249
821.026	27431
821.167	27393
821.307	27420
821.447	27443
821.588	27226
821.728	27112
821.868	27013
822.008	26857
822.149	26807
822.289	26960
822.429	26461
822.569	26564
822.709	26423
822.849	26347
822.99	26351
823.13	26328
823.27	26180
823.41	26043
823.55	26122
823.69	26153
823.83	26157
823.97	26031
824.11	26012
824.25	25887
824.389	25906
824.529	25986
824.669	25875
824.809	26050
824.949	26031
825.089	26084
825.228	25852
825.368	25795
825.508	25852
825.648	25693
825.787	25936
825.927	25772
826.067	25727
826.206	25852
826.346	25799
826.485	25807
826.625	25727
826.765	25902
826.904	25890
827.044	25674
827.183	25525
827.323	25624
827.462	25670
827.601	25540
827.741	25453
827.88	25506
828.02	25438
828.159	25434
828.298	25582
828.437	25491
828.577	25441
828.716	25563
828.855	25552
828.994	25263
829.134	25259
829.273	25209
829.412	25244
829.551	25038
829.69	25206
829.829	25198
829.968	25213
830.107	25312
830.246	25175
830.385	25148
830.524	25183
830.663	25027
830.802	24943
830.941	24791
831.08	24814
831.219	24844
831.357	24772
831.496	24970
831.635	24749
831.774	24669
831.913	24707
832.051	24574
832.19	24703
832.329	24597
832.467	24509
832.606	24384
832.744	24525
832.883	24494
833.022	24437
833.16	24429
833.299	24563
833.437	24585
833.576	24475
833.714	24639
833.852	24593
833.991	24566
834.129	24654
834.267	24597
834.406	24566
834.544	24623
834.682	24547
834.821	24445
834.959	24798
835.097	24399
835.235	24681
835.373	24483
835.511	24593
835.65	24365
835.788	24479
835.926	24216
836.064	24350
836.202	24388
836.34	24403
836.478	24327
836.615	24399
836.753	24376
836.891	24475
837.029	24376
837.167	24285
837.305	24391
837.443	24216
837.58	24163
837.718	24391
837.856	24186
837.993	24254
838.131	24171
838.269	24121
838.406	24167
838.544	24045
838.681	23805
838.819	23733
838.956	23699
839.094	23646
839.231	23794
839.369	23882
839.506	24148
839.643	23882
839.781	23710
839.918	23516
840.055	23630
840.193	23672
840.33	23566
840.467	23695
840.604	23630
840.742	23790
840.879	23417
841.016	23642
841.153	23379
841.29	23653
841.427	23551
841.564	23600
841.701	23627
841.838	23562
841.975	23387
842.112	23497
842.249	23410
842.385	23440
842.522	23528
842.659	23490
842.796	23341
842.933	23376
843.069	23356
843.206	23265
843.343	23360
843.479	23353
843.616	23261
843.752	23071
843.889	23117
844.025	23220
844.162	23071
844.298	23231
844.435	23151
844.571	23121
844.708	23113
844.844	23345
844.98	23265
845.117	23254
845.253	23136
845.389	22930
845.525	23037
845.661	22984
845.798	22831
845.934	22927
846.07	22778
846.206	22881
846.342	23025
846.478	22752
846.614	22694
846.75	22478
846.886	22504
847.022	22649
847.158	22615
847.294	22577
847.429	22733
847.565	22596
847.701	22854
847.837	22287
847.972	22257
848.108	22409
848.244	22436
848.379	22257
848.515	22215
848.65	22261
848.786	22226
848.921	22200
849.057	22314
849.192	22306
849.328	22124
849.463	22299
849.598	22116
849.734	21968
849.869	22067
850.004	21945
850.14	21895
850.275	21918
850.41	21842
850.545	21842
850.68	21915
850.815	21930
850.95	21812
851.085	22101
851.22	21991
851.355	21983
851.49	21873
851.625	21876
851.76	21960
851.895	21903
852.03	21804
852.165	21983
852.299	21975
852.434	21926
852.569	21915
852.703	21911
852.838	22025
852.973	22067
853.107	22116
853.242	21800
853.376	21789
853.511	21671
853.645	21587
853.78	21884
853.914	21838
854.048	21709
854.183	21770
854.317	21774
854.451	21884
854.585	21816
854.72	21755
854.854	21934
854.988	21576
855.122	21732
855.256	21698
855.39	21663
855.524	21899
855.658	21816
855.792	21759
855.926	21736
856.06	21781
856.194	21831
856.327	21808
856.461	21732
856.595	21694
856.729	21797
856.862	21819
856.996	21850
857.13	21876
857.263	21797
857.397	21827
857.53	21949
857.664	21781
857.797	21793
857.931	21899
858.064	21812
858.197	21915
858.331	21823
858.464	21690
858.597	21660
858.731	21675
858.864	21675
858.997	21557
859.13	21762
859.263	21835
859.396	21899
859.529	21793
859.662	21644
859.795	21701
859.928	21778
860.061	21846
860.194	21937
860.327	21743
860.46	21660
860.592	21816
860.725	21968
860.858	21797
860.99	21762
861.123	21679
861.256	21644
861.388	21705
861.521	22596
861.653	21492
861.786	21530
861.918	21625
862.05	21663
862.183	21633
862.315	21728
862.447	21827
862.58	21797
862.712	21576
862.844	21435
862.976	21610
863.108	21538
863.24	21751
863.372	21523
863.504	21443
863.636	21469
863.768	21500
863.9	21583
864.032	21355
864.164	21401
864.296	21557
864.428	21606
864.559	21530
864.691	21572
864.823	21481
864.954	21519
865.086	21439
865.217	21458
865.349	21382
865.48	21424
865.612	21443
865.743	21420
865.875	21340
866.006	21435
866.137	21332
866.269	21386
866.4	21325
866.531	21340
866.662	21222
866.793	21378
866.924	21176
867.055	21306
867.186	21310
867.317	21241
867.448	21336
867.579	21245
867.71	21207
867.841	21241
867.972	21252
868.103	21188
868.233	21256
868.364	21279
868.495	21405
868.625	21656
868.756	21610
868.886	21462
869.017	21466
869.147	21618
869.278	21622
869.408	21408
869.539	21515
869.669	21583
869.799	21652
869.929	21660
870.06	21682
870.19	21857
870.32	21827
870.45	21831
870.58	21865
870.71	22063
870.84	22097
870.97	22055
871.1	21869
871.23	22002
871.36	22204
871.489	21960
871.619	22200
871.749	22086
871.879	22234
872.008	22238
872.138	22230
872.267	22124
872.397	21949
872.526	21903
872.656	21922
872.785	21953
872.915	22105
873.044	22284
873.173	22101
873.303	22200
873.432	22325
873.561	22234
873.69	22105
873.819	22196
873.948	22169
874.077	22166
874.206	22150
874.335	22078
874.464	22379
874.593	22352
874.722	22363
874.851	22474
874.979	22428
875.108	22474
875.237	22238
875.365	22306
875.494	22386
875.623	22417
875.751	22405
875.88	22512
876.008	22569
876.136	22481
876.265	22843
876.393	22904
876.521	22717
876.65	22656
876.778	22752
876.906	22721
877.034	22668
877.162	22691
877.29	22702
877.418	22915
877.546	22797
877.674	22691
877.802	22767
877.93	22664
878.058	22660
878.185	22436
878.313	22596
878.441	22710
878.568	22546
878.696	22858
878.824	22733
878.951	22873
879.079	22900
879.206	23006
879.333	22744
879.461	22736
879.588	22812
879.715	22869
879.842	23083
879.97	22755
880.097	22580
880.224	22470
880.351	22759
880.478	22538
880.605	22459
880.732	22516
880.859	22752
880.986	22519
881.112	22519
881.239	22344
881.366	22295
881.493	22249
881.619	22143
881.746	22158
881.872	22040
881.999	21934
882.125	22044
882.252	22211
882.378	22143
882.505	22303
882.631	21941
882.757	21774
882.883	21907
883.01	21789
883.136	21717
883.262	21519
883.388	21705
883.514	21812
883.64	21842
883.766	21717
883.892	21599
884.018	21561
884.143	21679
884.269	21804
884.395	21564
884.52	21370
884.646	21481
884.772	21378
884.897	21340
885.023	21648
885.148	21606
885.274	21603
885.399	21663
885.524	21534
885.65	21462
885.775	21462
885.9	21340
886.025	21500
886.15	21583
886.275	21492
886.4	21245
886.525	21332
886.65	21344
886.775	21420
886.9	21523
887.025	21500
887.149	21485
887.274	21256
887.399	21184
887.523	21237
887.648	21142
887.773	21157
887.897	21237
888.021	21180
888.146	21199
888.27	21272
888.395	21256
888.519	21241
888.643	21230
888.767	21184
888.891	21150
889.015	20971
889.139	21081
889.263	21055
889.387	21165
889.511	21203
889.635	21150
889.759	21055
889.883	20925
890.006	21043
890.13	20986
890.254	20990
890.377	21028
890.501	20754
890.624	20819
890.748	20724
890.871	20705
890.995	20530
891.118	20469
891.241	20629
891.364	20575
891.488	20678
891.611	20644
891.734	20541
891.857	20743
891.98	20655
892.103	20587
892.226	20602
892.349	20412
892.471	20400
892.594	20488
892.717	20480
892.839	20465
892.962	20533
893.085	20636
893.207	20522
893.33	20336
893.452	20408
893.575	20575
893.697	20408
893.819	20621
893.941	20598
894.064	20568
894.186	20545
894.308	20317
894.43	20488
894.552	20663
894.674	20545
894.796	20389
894.918	20431
895.04	20457
895.161	20648
895.283	20476
895.405	20400
895.526	20389
895.648	20461
895.769	20549
895.891	20511
896.012	20613
896.134	20545
896.255	20454
896.376	20450
896.498	20495
896.619	20533
896.74	20488
896.861	20438
896.982	20781
897.103	20853
897.224	20708
897.345	20648
897.466	20549
897.587	20735
897.708	20716
897.828	20640
897.949	20705
898.07	20609
898.19	20697
898.311	20739
898.431	20625
898.552	20670
898.672	20659
898.792	20731
898.913	20777
899.033	20644
899.153	20434
899.273	20370
899.393	20412
899.513	20522
899.633	20461
899.753	20511
899.873	20358
899.993	20461
900.113	20393
900.232	20339
900.352	20305
900.472	20313
900.591	20157
900.711	20168
900.83	20202
900.95	20271
901.069	20301
901.189	20138
901.308	19837
901.427	19681
901.546	19811
901.665	19807
901.784	19814
901.904	19502
902.023	19476
902.141	19411
902.26	19247
902.379	19358
902.498	19301
902.617	19304
902.735	19202
902.854	19183
902.973	19232
903.091	18981
903.21	18973
903.328	18985
903.446	18882
903.565	18734
903.683	18875
903.801	18764
903.919	18620
904.038	18563
904.156	18627
904.274	18639
904.392	18608
904.51	18460
904.627	18555
904.745	18498
904.863	18490
904.981	18372
905.098	18209
905.216	18163
905.334	18239
905.451	18327
905.569	18140
905.686	18228
905.803	18197
905.921	17969
906.038	18076
906.155	18079
906.272	17859
906.389	17992
906.506	17642
906.623	17802
906.74	17630
906.857	17585
906.974	17668
907.091	17718
907.208	17809
907.324	17748
907.441	17562
907.557	17490
907.674	17398
907.79	17353
907.907	17478
908.023	17436
908.139	17486
908.256	17376
908.372	17254
908.488	17353
908.604	17212
908.72	17086
908.836	17124
908.952	17071
909.068	17117
909.184	17162
909.3	17181
909.415	17117
909.531	17117
909.647	16839
909.762	16801
909.878	16812
909.993	16862
910.108	16725
910.224	16752
910.339	16812
910.454	16786
910.57	16717
910.685	16485
910.8	16763
910.915	16786
911.03	16592
911.145	16527
911.259	16451
911.374	16424
911.489	16329
911.604	16318
911.718	16162
911.833	16158
911.947	16101
912.062	15915
912.176	16223
912.291	16162
912.405	16219
912.519	16314
912.633	16299
912.748	16230
912.862	16211
912.976	16067
913.09	15857
913.204	15949
913.318	15994
913.431	16112
913.545	16112
913.659	16162
913.772	15960
913.886	15823
914	15778
914.113	15873
914.226	15949
914.34	15808
914.453	15603
914.566	15800
914.68	15675
914.793	15679
914.906	15523
915.019	15439
915.132	15378
915.245	15420
915.358	15374
915.47	15447
915.583	15283
915.696	15393
915.809	15458
915.921	15534
916.034	15310
916.146	15325
916.259	15214
916.371	15370
916.483	15245
916.595	15218
916.708	15237
916.82	15283
916.932	15112
917.044	15226
917.156	15222
917.268	14986
917.38	15024
917.491	15055
917.603	15017
917.715	15032
917.826	15081
917.938	14861
918.049	14765
918.161	14982
918.272	15032
918.384	15077
918.495	14960
918.606	14834
918.717	14613
918.828	14819
918.939	14796
919.05	14727
919.161	14716
919.272	14606
919.383	14571
919.494	14750
919.604	15104
919.715	14762
919.826	14663
919.936	14754
920.047	14815
920.157	14693
920.267	14941
920.378	14720
920.488	14712
920.598	14929
920.708	15028
920.818	14861
920.928	14830
921.038	14975
921.148	15001
921.258	14781
921.368	14602
921.477	14507
921.587	14366
921.697	14377
921.806	14438
921.916	14347
922.025	14153
922.134	14202
922.244	14111
922.353	14191
922.462	13974
922.571	13879
922.68	13856
922.789	13833
922.898	13700
923.007	13700
923.116	13772
923.224	13856
923.333	13601
923.442	13571
923.55	13632
923.659	13594
923.767	13666
923.876	13582
923.984	13647
924.092	13487
924.201	13460
924.309	13411
924.417	13400
924.525	13426
924.633	13434
924.741	14168
924.849	13308
924.956	13304
925.064	13217
925.172	13152
925.279	13114
925.387	13263
925.494	13137
925.602	13308
925.709	13190
925.816	13012
925.924	13126
926.031	13179
926.138	13103
926.245	13266
926.352	12935
926.459	13034
926.566	13202
926.673	12989
926.779	12928
926.886	12878
926.993	12783
927.099	12665
927.206	12684
927.312	12627
927.419	12745
927.525	12703
927.631	12760
927.737	12623
927.843	12589
927.95	12521
928.056	12532
928.162	12646
928.267	12582
928.373	13263
928.479	12509
928.585	12300
928.69	12456
928.796	12509
928.901	12315
929.007	12213
929.112	12380
929.218	12388
929.323	12304
929.428	12311
929.533	12441
929.638	12213
929.743	12239
929.848	12232
929.953	12190
930.058	12091
930.163	11973
930.267	11946
930.372	12072
930.477	11973
930.581	12136
930.685	11961
930.79	11832
930.894	11790
930.998	11756
931.103	11893
931.207	11615
931.311	11535
931.415	11402
931.519	11170
931.623	11189
