Data from test_V78500241_3628.txt Node
Date: Fri Mar 25 16:06:56 CST 2022
User: usil
Spectrometer: V785-0024
Trigger mode: 0
Integration Time (sec): 4.000000E-1
Scans to average: 1
Nonlinearity correction enabled: false
Boxcar width: 0
Storing dark spectrum: false
XAxis mode: Wavelengths
Number of Pixels in Spectrum: 1024
>>>>>Begin Spectral Data<<<<<
801.071	28584
801.214	28455
801.356	28234
801.499	28143
801.641	28017
801.783	28055
801.926	28101
802.068	28128
802.211	27975
802.353	27854
802.496	27911
802.638	27812
802.78	27648
802.923	27641
803.065	27671
803.208	27603
803.35	27762
803.492	27869
803.635	28021
803.777	27774
803.919	27888
804.061	28272
804.204	27991
804.346	27926
804.488	27835
804.63	27895
804.773	27991
804.915	27934
805.057	28090
805.199	28070
805.341	28013
805.483	28173
805.626	27998
805.768	27983
805.91	28063
806.052	28139
806.194	28154
806.336	28379
806.478	28257
806.62	28105
806.762	28295
806.904	28447
807.046	28542
807.188	28538
807.33	28523
807.472	28626
807.614	28493
807.756	28557
807.898	28401
808.04	28375
808.182	28451
808.324	28523
808.465	28462
808.607	28618
808.749	28873
808.891	28965
809.033	29010
809.174	28961
809.316	28885
809.458	28866
809.6	28725
809.741	28847
809.883	28850
810.025	29090
810.166	29056
810.308	29048
810.45	29006
810.591	28869
810.733	28820
810.875	28767
811.016	28771
811.158	28850
811.299	29086
811.441	29006
811.582	28919
811.724	28862
811.865	28713
812.007	28771
812.148	28839
812.29	28987
812.431	29056
812.573	29185
812.714	29220
812.855	29512
812.997	29277
813.138	29497
813.279	29478
813.421	29299
813.562	29326
813.703	29121
813.845	29117
813.986	28797
814.127	28599
814.268	28519
814.41	28523
814.551	28409
814.692	28626
814.833	28538
814.974	28531
815.115	28413
815.256	28424
815.397	28390
815.539	28272
815.68	28204
815.821	28230
815.962	28314
816.103	28223
816.244	28204
816.385	28105
816.526	28120
816.666	27968
816.807	27648
816.948	27823
817.089	27914
817.23	27835
817.371	27884
817.512	27911
817.653	27907
817.793	27690
817.934	27827
818.075	27842
818.216	27907
818.356	27743
818.497	27561
818.638	27454
818.778	27599
818.919	27355
819.06	27690
819.2	27846
819.341	27888
819.481	27812
819.622	28059
819.762	28135
819.903	28044
820.043	27968
820.184	27911
820.324	28032
820.465	28082
820.605	27998
820.746	27949
820.886	27755
821.026	27800
821.167	27800
821.307	27968
821.447	27835
821.588	27937
821.728	27507
821.868	27473
822.008	27359
822.149	27332
822.289	27169
822.429	26933
822.569	26967
822.709	27043
822.849	26845
822.99	26781
823.13	26769
823.27	26720
823.41	26602
823.55	26385
823.69	26655
823.83	26579
823.97	26575
824.11	26533
824.25	26282
824.389	26476
824.529	26476
824.669	26465
824.809	26518
824.949	26476
825.089	26465
825.228	26590
825.368	26393
825.508	26358
825.648	26332
825.787	26339
825.927	26415
826.067	26355
826.206	26324
826.346	26488
826.485	26480
826.625	26233
826.765	26393
826.904	26446
827.044	26248
827.183	26149
827.323	26008
827.462	26122
827.601	26153
827.741	26092
827.88	26084
828.02	26103
828.159	26065
828.298	26069
828.437	26153
828.577	26077
828.716	26043
828.855	25982
828.994	25769
829.134	25811
829.273	25795
829.412	25658
829.551	25662
829.69	25811
829.829	25731
829.968	25750
830.107	25951
830.246	25849
830.385	25647
830.524	25658
830.663	25510
830.802	25415
830.941	25403
831.08	25419
831.219	25533
831.357	25479
831.496	25449
831.635	25415
831.774	25297
831.913	25164
832.051	25080
832.19	25217
832.329	25091
832.467	25122
832.606	25046
832.744	24962
832.883	25042
833.022	24935
833.16	24992
833.299	25126
833.437	25015
833.576	24962
833.714	25198
833.852	25148
833.991	25027
834.129	25316
834.267	25187
834.406	25053
834.544	25209
834.682	25141
834.821	25110
834.959	25244
835.097	25095
835.235	25110
835.373	25065
835.511	25179
835.65	24966
835.788	24932
835.926	24772
836.064	24795
836.202	24673
836.34	24905
836.478	25107
836.615	24882
836.753	24935
836.891	25053
837.029	24951
837.167	24970
837.305	24806
837.443	24840
837.58	24677
837.718	24970
837.856	24692
837.993	24726
838.131	24821
838.269	24604
838.406	24563
838.544	24639
838.681	24369
838.819	24380
838.956	24072
839.094	24201
839.231	24342
839.369	24376
839.506	24536
839.643	24429
839.781	24216
839.918	24144
840.055	24342
840.193	24186
840.33	24049
840.467	24106
840.604	24190
840.742	24380
840.879	23950
841.016	24091
841.153	23973
841.29	24194
841.427	24148
841.564	24091
841.701	24171
841.838	24015
841.975	24041
842.112	23870
842.249	23916
842.385	23832
842.522	24091
842.659	23950
842.796	23840
842.933	23843
843.069	23771
843.206	23855
843.343	23863
843.479	23870
843.616	23889
843.752	23615
843.889	23752
844.025	23855
844.162	23748
844.298	23745
844.435	23577
844.571	23646
844.708	23726
844.844	23828
844.98	23802
845.117	23714
845.253	23604
845.389	23478
845.525	23520
845.661	23558
845.798	23429
845.934	23379
846.07	23391
846.206	23322
846.342	23516
846.478	23242
846.614	23200
846.75	23067
846.886	23014
847.022	23136
847.158	23109
847.294	23166
847.429	23094
847.565	23132
847.701	23360
847.837	22721
847.972	22793
848.108	22885
848.244	22999
848.379	22854
848.515	22698
848.65	22733
848.786	22740
848.921	22820
849.057	22679
849.192	22675
849.328	22645
849.463	22580
849.598	22599
849.734	22675
849.869	22443
850.004	22455
850.14	22500
850.275	22409
850.41	22535
850.545	22512
850.68	22363
850.815	22531
850.95	22379
851.085	22634
851.22	22626
851.355	22557
851.49	22440
851.625	22390
851.76	22466
851.895	22402
852.03	22379
852.165	22390
852.299	22424
852.434	22497
852.569	22432
852.703	22417
852.838	22577
852.973	22588
853.107	22546
853.242	22497
853.376	22310
853.511	22150
853.645	22230
853.78	22417
853.914	22363
854.048	22158
854.183	22192
854.317	22344
854.451	22504
854.585	22272
854.72	22318
854.854	22341
854.988	22249
855.122	22424
855.256	22272
855.39	22207
855.524	22363
855.658	22367
855.792	22432
855.926	22238
856.06	22299
856.194	22413
856.327	22223
856.461	22249
856.595	22192
856.729	22188
856.862	22405
856.996	22276
857.13	22443
857.263	22455
857.397	22360
857.53	22223
857.664	22284
857.797	22310
857.931	22436
858.064	22405
858.197	22405
858.331	22382
858.464	22234
858.597	22135
858.731	22268
858.864	22341
858.997	22272
859.13	22314
859.263	22344
859.396	22367
859.529	22299
859.662	22234
859.795	22238
859.928	22253
860.061	22421
860.194	22421
860.327	22341
860.46	22306
860.592	22519
860.725	22443
860.858	22451
860.99	22413
861.123	22223
861.256	22162
861.388	22280
861.521	23181
861.653	22090
861.786	22166
861.918	22185
862.05	22124
862.183	22261
862.315	22196
862.447	22272
862.58	22200
862.712	22067
862.844	21975
862.976	21987
863.108	22032
863.24	22523
863.372	21937
863.504	22048
863.636	21945
863.768	22002
863.9	22017
864.032	21934
864.164	21930
864.296	21979
864.428	22097
864.559	21998
864.691	22074
864.823	22036
864.954	21934
865.086	21972
865.217	21804
865.349	21774
865.48	21941
865.612	21945
865.743	21876
865.875	21964
866.006	21865
866.137	21838
866.269	21930
866.4	21827
866.531	21698
866.662	21759
866.793	21888
866.924	21785
867.055	21869
867.186	21880
867.317	21732
867.448	21679
867.579	21732
867.71	21709
867.841	21679
867.972	21698
868.103	21831
868.233	21838
868.364	21698
868.495	21861
868.625	21968
868.756	22169
868.886	21953
869.017	21922
869.147	22211
869.278	22181
869.408	22112
869.539	22097
869.669	22044
869.799	22143
869.929	22166
870.06	22204
870.19	22318
870.32	22306
870.45	22386
870.58	22405
870.71	22554
870.84	22679
870.97	22402
871.1	22424
871.23	22641
871.36	22607
871.489	22596
871.619	22607
871.749	22653
871.879	22603
872.008	22812
872.138	22694
872.267	22687
872.397	22535
872.526	22500
872.656	22519
872.785	22379
872.915	22672
873.044	22706
873.173	22618
873.303	22630
873.432	22664
873.561	22675
873.69	22858
873.819	22622
873.948	22698
874.077	22691
874.206	22573
874.335	22736
874.464	22752
874.593	22953
874.722	22923
874.851	22934
874.979	22900
875.108	23006
875.237	22885
875.365	22801
875.494	22885
875.623	22957
875.751	22843
875.88	22869
876.008	22961
876.136	23090
876.265	23307
876.393	23208
876.521	23334
876.65	23322
876.778	23242
876.906	23223
877.034	23254
877.162	23284
877.29	23174
877.418	23193
877.546	23299
877.674	23143
877.802	23246
877.93	23299
878.058	23277
878.185	23098
878.313	23200
878.441	23250
878.568	23037
878.696	23212
878.824	23212
878.951	23307
879.079	23421
879.206	23482
879.333	23265
879.461	23197
879.588	23391
879.715	23318
879.842	23524
879.97	23311
880.097	23083
880.224	23048
880.351	23086
880.478	23056
880.605	23071
880.732	23010
880.859	23235
880.986	23079
881.112	23254
881.239	22930
881.366	22820
881.493	22755
881.619	22725
881.746	22702
881.872	22527
881.999	22653
882.125	22626
882.252	22630
882.378	22527
882.505	22755
882.631	22386
882.757	22352
882.883	22333
883.01	22322
883.136	22246
883.262	22150
883.388	22093
883.514	22276
883.64	22310
883.766	22131
883.892	22097
884.018	22150
884.143	22291
884.269	22322
884.395	22128
884.52	21797
884.646	21941
884.772	21926
884.897	21850
885.023	21854
885.148	22051
885.274	22086
885.399	22040
885.524	21956
885.65	21934
885.775	22017
885.9	21987
886.025	21964
886.15	21926
886.275	21854
886.4	21831
886.525	21842
886.65	21918
886.775	21755
886.9	22040
887.025	22188
887.149	21831
887.274	21713
887.399	21629
887.523	21724
887.648	21724
887.773	21492
887.897	21686
888.021	21747
888.146	21542
888.27	21701
888.395	21781
888.519	21808
888.643	21618
888.767	21781
888.891	21549
889.015	21405
889.139	21454
889.263	21420
889.387	21511
889.511	21686
889.635	21663
889.759	21481
889.883	21492
890.006	21561
890.13	21610
890.254	21447
890.377	21405
890.501	21180
890.624	21188
890.748	21203
890.871	21081
890.995	21036
891.118	20941
891.241	21100
891.364	21051
891.488	21058
891.611	21005
891.734	21013
891.857	21070
891.98	21127
892.103	21032
892.226	21005
892.349	21005
892.471	20800
892.594	20952
892.717	20944
892.839	20933
892.962	20883
893.085	21028
893.207	20979
893.33	20807
893.452	20849
893.575	20838
893.697	20986
893.819	21104
893.941	21142
894.064	21036
894.186	20872
894.308	20815
894.43	20906
894.552	21039
894.674	21017
894.796	20891
894.918	20937
895.04	20823
895.161	20914
895.283	20895
895.405	20872
895.526	20823
895.648	20868
895.769	20769
895.891	20876
896.012	20921
896.134	20929
896.255	20921
896.376	20819
896.498	20918
896.619	20910
896.74	21047
896.861	20960
896.982	21180
897.103	21283
897.224	21112
897.345	21104
897.466	21123
897.587	21104
897.708	21142
897.828	21241
897.949	21074
898.07	20986
898.19	20963
898.311	21112
898.431	21024
898.552	21112
898.672	21192
898.792	21184
898.913	21116
899.033	21028
899.153	20830
899.273	20857
899.393	20849
899.513	20941
899.633	20804
899.753	20834
899.873	20868
899.993	20883
900.113	20842
900.232	20876
900.352	20708
900.472	20648
900.591	20533
900.711	20648
900.83	20503
900.95	20636
901.069	20629
901.189	20461
901.308	20240
901.427	20122
901.546	20206
901.665	20100
901.784	20157
901.904	20187
902.023	19970
902.141	19772
902.26	19750
902.379	19799
902.498	19578
902.617	19674
902.735	19674
902.854	19822
902.973	19674
903.091	19377
903.21	19350
903.328	19346
903.446	19202
903.565	19164
903.683	19236
903.801	19050
903.919	19050
904.038	19095
904.156	18886
904.274	19027
904.392	18973
904.51	18890
904.627	18844
904.745	18924
904.863	18909
904.981	18677
905.098	18654
905.216	18559
905.334	18582
905.451	18540
905.569	18509
905.686	18498
905.803	18574
905.921	18319
906.038	18418
906.155	18342
906.272	18251
906.389	18304
906.506	18155
906.623	18163
906.74	18060
906.857	17977
906.974	17946
907.091	18083
907.208	18292
907.324	18057
907.441	17965
907.557	17866
907.674	17824
907.79	17737
907.907	17726
908.023	17958
908.139	17794
908.256	17752
908.372	17798
908.488	17680
908.604	17566
908.72	17566
908.836	17440
908.952	17520
909.068	17551
909.184	17505
909.3	17551
909.415	17596
909.531	17520
909.647	17178
909.762	17166
909.878	17250
909.993	17296
910.108	17159
910.224	17151
910.339	17193
910.454	17056
910.57	17105
910.685	17006
910.8	17109
910.915	17102
911.03	17022
911.145	16774
911.259	16946
911.374	16820
911.489	16771
911.604	16752
911.718	16645
911.833	16462
911.947	16447
912.062	16402
912.176	16512
912.291	16504
912.405	16561
912.519	16664
912.633	16683
912.748	16656
912.862	16405
912.976	16341
913.09	16154
913.204	16375
913.318	16341
913.431	16417
913.545	16436
913.659	16443
913.772	16329
913.886	16154
914	16150
914.113	16249
914.226	16276
914.34	16215
914.453	16010
914.566	16093
914.68	15991
914.793	15854
914.906	15797
915.019	15739
915.132	15717
915.245	15709
915.358	15739
915.47	15656
915.583	15800
915.696	15713
915.809	15865
915.921	15945
916.034	15717
916.146	15610
916.259	15530
916.371	15667
916.483	15622
916.595	15618
916.708	15610
916.82	15454
916.932	15496
917.044	15386
917.156	15401
917.268	15325
917.38	15424
917.491	15344
917.603	15252
917.715	15367
917.826	15511
917.938	15378
918.049	15131
918.161	15408
918.272	15435
918.384	15302
918.495	15313
918.606	15138
918.717	15058
918.828	15104
918.939	15207
919.05	15051
919.161	15070
919.272	14899
919.383	14960
919.494	15135
919.604	15348
919.715	15157
919.826	15009
919.936	15005
920.047	15142
920.157	15112
920.267	15287
920.378	15074
920.488	14975
920.598	15169
920.708	15298
920.818	15138
920.928	15142
921.038	15389
921.148	15211
921.258	15039
921.368	14895
921.477	14750
921.587	14739
921.697	14625
921.806	14773
921.916	14640
922.025	14396
922.134	14404
922.244	14275
922.353	14381
922.462	14275
922.571	14263
922.68	14126
922.789	14081
922.898	14130
923.007	14001
923.116	14123
923.224	13997
923.333	13989
923.442	13955
923.55	13871
923.659	13932
923.767	13936
923.876	13849
923.984	13944
924.092	13868
924.201	13795
924.309	13772
924.417	13731
924.525	13772
924.633	13772
924.741	14655
924.849	13499
924.956	13715
925.064	13552
925.172	13381
925.279	13426
925.387	13487
925.494	13354
925.602	13510
925.709	13480
925.816	13327
925.924	13396
926.031	13514
926.138	13331
926.245	13476
926.352	13236
926.459	13449
926.566	13476
926.673	13316
926.779	13107
926.886	13137
926.993	13034
927.099	13038
927.206	12970
927.312	12867
927.419	13038
927.525	12958
927.631	12981
927.737	12909
927.843	12852
927.95	12757
928.056	12795
928.162	12798
928.267	12863
928.373	13434
928.479	12856
928.585	12673
928.69	12772
928.796	12825
928.901	12654
929.007	12517
929.112	12654
929.218	12700
929.323	12570
929.428	12532
929.533	12684
929.638	12513
929.743	12464
929.848	12597
929.953	12441
930.058	12365
930.163	12110
930.267	12319
930.372	12380
930.477	12144
930.581	12410
930.685	12197
930.79	12106
930.894	12110
930.998	12121
931.103	12186
931.207	11897
931.311	11745
931.415	11710
931.519	11520
931.623	11482
