Data from test_V78500241_96.txt Node
Date: Fri Mar 25 15:42:28 CST 2022
User: usil
Spectrometer: V785-0024
Trigger mode: 0
Integration Time (sec): 4.000000E-1
Scans to average: 1
Nonlinearity correction enabled: false
Boxcar width: 0
Storing dark spectrum: false
XAxis mode: Wavelengths
Number of Pixels in Spectrum: 1024
>>>>>Begin Spectral Data<<<<<
801.071	29562
801.214	29589
801.356	29296
801.499	29246
801.641	29292
801.783	28858
801.926	29200
802.068	29086
802.211	28908
802.353	28961
802.496	28721
802.638	28854
802.78	28717
802.923	28580
803.065	28409
803.208	28546
803.35	28679
803.492	28877
803.635	28812
803.777	28523
803.919	28820
804.061	29170
804.204	28759
804.346	28733
804.488	28759
804.63	28717
804.773	28611
804.915	28767
805.057	28976
805.199	28873
805.341	28778
805.483	29014
805.626	29022
805.768	28892
805.91	28854
806.052	28873
806.194	28812
806.336	29060
806.478	28987
806.62	28892
806.762	29048
806.904	29162
807.046	29318
807.188	29136
807.33	29208
807.472	29383
807.614	29212
807.756	29273
807.898	29200
808.04	29052
808.182	28965
808.324	29056
808.465	29102
808.607	29204
808.749	29334
808.891	29516
809.033	29657
809.174	29493
809.316	29474
809.458	29471
809.6	29520
809.741	29543
809.883	29634
810.025	29646
810.166	29619
810.308	29630
810.45	29589
810.591	29512
810.733	29379
810.875	29421
811.016	29288
811.158	29193
811.299	29486
811.441	29531
811.582	29577
811.724	29364
811.865	29311
812.007	29239
812.148	29269
812.29	29463
812.431	29531
812.573	29589
812.714	29756
812.855	29866
812.997	29950
813.138	30003
813.279	29999
813.421	29824
813.562	29649
813.703	29684
813.845	29448
813.986	29246
814.127	29014
814.268	28900
814.41	28984
814.551	29102
814.692	29117
814.833	28900
814.974	28881
815.115	28934
815.256	28790
815.397	28721
815.539	28691
815.68	28649
815.821	28637
815.962	28672
816.103	28615
816.244	28577
816.385	28485
816.526	28462
816.666	28246
816.807	28120
816.948	28166
817.089	28284
817.23	28112
817.371	28147
817.512	27975
817.653	28086
817.793	28101
817.934	27998
818.075	28067
818.216	28017
818.356	27880
818.497	27880
818.638	27808
818.778	27766
818.919	27842
819.06	27816
819.2	27960
819.341	27941
819.481	27880
819.622	28223
819.762	28272
819.903	28185
820.043	28063
820.184	28280
820.324	28116
820.465	28238
820.605	27975
820.746	28124
820.886	27937
821.026	28162
821.167	27941
821.307	28055
821.447	27907
821.588	27888
821.728	27633
821.868	27534
822.008	27306
822.149	27431
822.289	27291
822.429	27138
822.569	26906
822.709	27169
822.849	26891
822.99	26925
823.13	26765
823.27	26785
823.41	26659
823.55	26617
823.69	26644
823.83	26807
823.97	26625
824.11	26469
824.25	26366
824.389	26431
824.529	26473
824.669	26366
824.809	26594
824.949	26564
825.089	26488
825.228	26518
825.368	26358
825.508	26161
825.648	26328
825.787	26336
825.927	26339
826.067	26256
826.206	26233
826.346	26328
826.485	26286
826.625	26191
826.765	26389
826.904	26237
827.044	25959
827.183	26065
827.323	26005
827.462	25906
827.601	26001
827.741	25925
827.88	25902
828.02	25746
828.159	25852
828.298	25917
828.437	25940
828.577	25776
828.716	25997
828.855	25734
828.994	25506
829.134	25624
829.273	25567
829.412	25594
829.551	25430
829.69	25506
829.829	25445
829.968	25689
830.107	25597
830.246	25571
830.385	25502
830.524	25377
830.663	25266
830.802	25221
830.941	25129
831.08	25053
831.219	25179
831.357	25190
831.496	25171
831.635	25107
831.774	25126
831.913	24905
832.051	24848
832.19	24863
832.329	24833
832.467	24760
832.606	24692
832.744	24623
832.883	24711
833.022	24711
833.16	24684
833.299	24696
833.437	24741
833.576	24741
833.714	24715
833.852	24795
833.991	24760
834.129	24681
834.267	24817
834.406	24707
834.544	24711
834.682	24665
834.821	24585
834.959	24821
835.097	24700
835.235	24753
835.373	24696
835.511	24623
835.65	24589
835.788	24608
835.926	24479
836.064	24220
836.202	24304
836.34	24429
836.478	24642
836.615	24517
836.753	24517
836.891	24646
837.029	24593
837.167	24391
837.305	24380
837.443	24388
837.58	24289
837.718	24388
837.856	24388
837.993	24220
838.131	24441
838.269	24144
838.406	24205
838.544	24045
838.681	23988
838.819	24022
838.956	23821
839.094	23684
839.231	23783
839.369	24003
839.506	24148
839.643	23942
839.781	23661
839.918	23684
840.055	23684
840.193	23722
840.33	23665
840.467	23657
840.604	23680
840.742	23866
840.879	23376
841.016	23585
841.153	23493
841.29	23585
841.427	23596
841.564	23570
841.701	23467
841.838	23608
841.975	23531
842.112	23414
842.249	23501
842.385	23341
842.522	23524
842.659	23379
842.796	23326
842.933	23311
843.069	23254
843.206	23242
843.343	23402
843.479	23159
843.616	23250
843.752	23071
843.889	23124
844.025	23193
844.162	22972
844.298	23147
844.435	22999
844.571	22946
844.708	22946
844.844	23048
844.98	23075
845.117	22999
845.253	22987
845.389	22873
845.525	23041
845.661	22877
845.798	22854
845.934	22805
846.07	22664
846.206	22786
846.342	22858
846.478	22706
846.614	22618
846.75	22413
846.886	22466
847.022	22455
847.158	22409
847.294	22504
847.429	22554
847.565	22314
847.701	22584
847.837	22181
847.972	22139
848.108	22074
848.244	22154
848.379	22097
848.515	21922
848.65	21876
848.786	22032
848.921	22025
849.057	22112
849.192	22059
849.328	21994
849.463	22150
849.598	21800
849.734	21781
849.869	21812
850.004	21774
850.14	21618
850.275	21701
850.41	21557
850.545	21595
850.68	21728
850.815	21682
850.95	21652
851.085	21884
851.22	21819
851.355	21747
851.49	21618
851.625	21606
851.76	21660
851.895	21572
852.03	21511
852.165	21717
852.299	21641
852.434	21705
852.569	21728
852.703	21682
852.838	21785
852.973	21846
853.107	21781
853.242	21610
853.376	21534
853.511	21412
853.645	21477
853.78	21519
853.914	21458
854.048	21553
854.183	21428
854.317	21534
854.451	21614
854.585	21542
854.72	21511
854.854	21466
854.988	21435
855.122	21405
855.256	21355
855.39	21469
855.524	21595
855.658	21408
855.792	21526
855.926	21424
856.06	21530
856.194	21439
856.327	21504
856.461	21382
856.595	21481
856.729	21511
856.862	21599
856.996	21530
857.13	21618
857.263	21606
857.397	21568
857.53	21416
857.664	21481
857.797	21458
857.931	21542
858.064	21545
858.197	21561
858.331	21272
858.464	21340
858.597	21306
858.731	21412
858.864	21431
858.997	21393
859.13	21431
859.263	21443
859.396	21663
859.529	21310
859.662	21332
859.795	21260
859.928	21363
860.061	21618
860.194	21462
860.327	21458
860.46	21325
860.592	21595
860.725	21496
860.858	21526
860.99	21359
861.123	21336
861.256	21279
861.388	21351
861.521	21937
861.653	21313
861.786	21351
861.918	21192
862.05	21420
862.183	21507
862.315	21431
862.447	21431
862.58	21367
862.712	21252
862.844	21173
862.976	21218
863.108	21135
863.24	21526
863.372	21085
863.504	21127
863.636	21287
863.768	21100
863.9	21013
864.032	21077
864.164	21032
864.296	21039
864.428	21321
864.559	21138
864.691	21127
864.823	21058
864.954	21028
865.086	21146
865.217	20925
865.349	20895
865.48	21024
865.612	20956
865.743	20960
865.875	20956
866.006	20941
866.137	21013
866.269	21001
866.4	21024
866.531	20891
866.662	20963
866.793	20887
866.924	20842
867.055	20944
867.186	20914
867.317	20941
867.448	20792
867.579	20811
867.71	20792
867.841	20758
867.972	20883
868.103	20868
868.233	20929
868.364	20792
868.495	20990
868.625	21096
868.756	21127
868.886	21112
869.017	21116
869.147	21287
869.278	21199
869.408	21036
869.539	21066
869.669	21138
869.799	21192
869.929	21226
870.06	21077
870.19	21306
870.32	21469
870.45	21420
870.58	21504
870.71	21545
870.84	21656
870.97	21610
871.1	21538
871.23	21603
871.36	21701
871.489	21778
871.619	21660
871.749	21713
871.879	21705
872.008	21926
872.138	21785
872.267	21713
872.397	21766
872.526	21606
872.656	21652
872.785	21500
872.915	21690
873.044	21793
873.173	21808
873.303	21736
873.432	21747
873.561	21785
873.69	21762
873.819	21793
873.948	21759
874.077	21648
874.206	21568
874.335	21686
874.464	21800
874.593	21964
874.722	21915
874.851	21979
874.979	22074
875.108	21941
875.237	21915
875.365	21895
875.494	21975
875.623	22070
875.751	21998
875.88	21994
876.008	22086
876.136	22303
876.265	22398
876.393	22573
876.521	22379
876.65	22481
876.778	22413
876.906	22325
877.034	22226
877.162	22455
877.29	22268
877.418	22333
877.546	22428
877.674	22348
877.802	22367
877.93	22371
878.058	22280
878.185	22154
878.313	22356
878.441	22352
878.568	22173
878.696	22268
878.824	22329
878.951	22417
879.079	22535
879.206	22588
879.333	22527
879.461	22318
879.588	22478
879.715	22584
879.842	22618
879.97	22443
880.097	22181
880.224	22074
880.351	22257
880.478	22253
880.605	22120
880.732	22097
880.859	22531
880.986	22128
881.112	22128
881.239	22097
881.366	21876
881.493	21793
881.619	21743
881.746	21720
881.872	21778
881.999	21682
882.125	21682
882.252	21705
882.378	21614
882.505	21846
882.631	21720
882.757	21511
882.883	21641
883.01	21610
883.136	21367
883.262	21374
883.388	21192
883.514	21542
883.64	21496
883.766	21370
883.892	21173
884.018	21279
884.143	21454
884.269	21473
884.395	21237
884.52	21104
884.646	20967
884.772	21089
884.897	21020
885.023	21138
885.148	21112
885.274	21188
885.399	21195
885.524	21017
885.65	21089
885.775	21173
885.9	21131
886.025	21298
886.15	21112
886.275	21051
886.4	20994
886.525	21001
886.65	20918
886.775	20815
886.9	21176
887.025	21188
887.149	21028
887.274	20861
887.399	20861
887.523	20868
887.648	20674
887.773	20750
887.897	20948
888.021	20899
888.146	20754
888.27	20925
888.395	20948
888.519	20868
888.643	20979
888.767	20788
888.891	20670
889.015	20613
889.139	20606
889.263	20571
889.387	20648
889.511	20868
889.635	20670
889.759	20492
889.883	20625
890.006	20541
890.13	20743
890.254	20545
890.377	20564
890.501	20286
890.624	20286
890.748	20450
890.871	20286
890.995	20039
891.118	20202
891.241	20138
891.364	20237
891.488	20275
891.611	20240
891.734	20191
891.857	20161
891.98	20119
892.103	20092
892.226	20290
892.349	20180
892.471	20008
892.594	20183
892.717	20142
892.839	20096
892.962	20122
893.085	20187
893.207	20149
893.33	19989
893.452	19925
893.575	20119
893.697	20107
893.819	20278
893.941	20229
894.064	20233
894.186	19921
894.308	19974
894.43	20058
894.552	20134
894.674	20115
894.796	19913
894.918	20062
895.04	19993
895.161	20164
895.283	20195
895.405	20031
895.526	20027
895.648	20111
895.769	20115
895.891	20088
896.012	20073
896.134	20199
896.255	20161
896.376	20035
896.498	20138
896.619	20142
896.74	20107
896.861	20244
896.982	20549
897.103	20598
897.224	20366
897.345	20355
897.466	20400
897.587	20301
897.708	20522
897.828	20442
897.949	20244
898.07	20134
898.19	20233
898.311	20400
898.431	20259
898.552	20256
898.672	20282
898.792	20286
898.913	20324
899.033	20153
899.153	20027
899.273	19993
899.393	20016
899.513	20016
899.633	20111
899.753	19963
899.873	19974
899.993	20050
900.113	19818
900.232	19974
900.352	19822
900.472	19879
900.591	19898
900.711	19955
900.83	19795
900.95	19936
901.069	19814
901.189	19651
901.308	19502
901.427	19472
901.546	19460
901.665	19445
901.784	19430
901.904	19228
902.023	19164
902.141	18989
902.26	18856
902.379	18985
902.498	18939
902.617	18859
902.735	18916
902.854	18890
902.973	18669
903.091	18483
903.21	18517
903.328	18429
903.446	18429
903.565	18228
903.683	18372
903.801	18197
903.919	18334
904.038	18262
904.156	18197
904.274	18106
904.392	18030
904.51	18068
904.627	18072
904.745	18224
904.863	18114
904.981	17840
905.098	17790
905.216	17714
905.334	17783
905.451	17764
905.569	17718
905.686	17783
905.803	17710
905.921	17448
906.038	17653
906.155	17535
906.272	17490
906.389	17486
906.506	17193
906.623	17269
906.74	17212
906.857	17147
906.974	17239
907.091	17376
907.208	17490
907.324	17181
907.441	17197
907.557	17090
907.674	16930
907.79	16854
907.907	16980
908.023	16980
908.139	16957
908.256	16889
908.372	16877
908.488	16873
908.604	16729
908.72	16504
908.836	16588
908.952	16573
909.068	16645
909.184	16759
909.3	16668
909.415	16508
909.531	16607
909.647	16344
909.762	16367
909.878	16375
909.993	16303
910.108	16211
910.224	16272
910.339	16306
910.454	16131
910.57	16215
910.685	16097
910.8	16405
910.915	16295
911.03	16158
911.145	15968
911.259	15960
911.374	15857
911.489	15705
911.604	15766
911.718	15713
911.833	15641
911.947	15557
912.062	15572
912.176	15652
912.291	15629
912.405	15812
912.519	15941
912.633	15850
912.748	15663
912.862	15523
912.976	15477
913.09	15397
913.204	15344
913.318	15507
913.431	15515
913.545	15614
913.659	15530
913.772	15408
913.886	15332
914	15173
914.113	15378
914.226	15428
914.34	15252
914.453	15173
914.566	15188
914.68	15127
914.793	15165
914.906	15020
915.019	14937
915.132	14883
915.245	14899
915.358	14880
915.47	14967
915.583	14876
915.696	15024
915.809	15024
915.921	14960
916.034	14941
916.146	14819
916.259	14708
916.371	14861
916.483	14788
916.595	14667
916.708	14792
916.82	14750
916.932	14670
917.044	14667
917.156	14636
917.268	14571
917.38	14511
917.491	14590
917.603	14419
917.715	14648
917.826	14663
917.938	14560
918.049	14351
918.161	14526
918.272	14659
918.384	14674
918.495	14400
918.606	14252
918.717	14248
918.828	14290
918.939	14298
919.05	14210
919.161	14282
919.272	14092
919.383	14180
919.494	14336
919.604	14412
919.715	14271
919.826	14218
919.936	14111
920.047	14240
920.157	14221
920.267	14446
920.378	14218
920.488	14202
920.598	14412
920.708	14514
920.818	14366
920.928	14294
921.038	14419
921.148	14461
921.258	14107
921.368	14100
921.477	14008
921.587	13803
921.697	13769
921.806	13967
921.916	13765
922.025	13742
922.134	13616
922.244	13563
922.353	13594
922.462	13499
922.571	13521
922.68	13282
922.789	13179
922.898	13213
923.007	13164
923.116	13175
923.224	13202
923.333	13107
923.442	13126
923.55	13057
923.659	13183
923.767	13072
923.876	13023
923.984	13137
924.092	12897
924.201	12916
924.309	12989
924.417	13031
924.525	12814
924.633	12833
924.741	13620
924.849	12783
924.956	12844
925.064	12719
925.172	12692
925.279	12688
925.387	12669
925.494	12631
925.602	12798
925.709	12722
925.816	12623
925.924	12570
926.031	12692
926.138	12642
926.245	12711
926.352	12471
926.459	12604
926.566	12776
926.673	12551
926.779	12380
926.886	12388
926.993	12213
927.099	12273
927.206	12209
927.312	12144
927.419	12232
927.525	12136
927.631	12201
927.737	12136
927.843	12201
927.95	11939
928.056	12060
928.162	12079
928.267	12197
928.373	12726
928.479	12159
928.585	11832
928.69	12007
928.796	12022
928.901	11973
929.007	11802
929.112	11843
929.218	11912
929.323	11737
929.428	11729
929.533	11885
929.638	11783
929.743	11764
929.848	11821
929.953	11680
930.058	11657
930.163	11417
930.267	11410
930.372	11619
930.477	11406
930.581	11611
930.685	11452
930.79	11353
930.894	11326
930.998	11299
931.103	11490
931.207	11098
931.311	10999
931.415	10915
931.519	10729
931.623	10752
