Data from test_V78500241_1515.txt Node
Date: Fri Mar 25 15:52:17 CST 2022
User: usil
Spectrometer: V785-0024
Trigger mode: 0
Integration Time (sec): 4.000000E-1
Scans to average: 1
Nonlinearity correction enabled: false
Boxcar width: 0
Storing dark spectrum: false
XAxis mode: Wavelengths
Number of Pixels in Spectrum: 1024
>>>>>Begin Spectral Data<<<<<
801.071	28143
801.214	28059
801.356	27960
801.499	27857
801.641	27774
801.783	27644
801.926	27762
802.068	27599
802.211	27644
802.353	27549
802.496	27401
802.638	27329
802.78	27306
802.923	27374
803.065	27302
803.208	27496
803.35	27351
803.492	27519
803.635	27526
803.777	27370
803.919	27568
804.061	27873
804.204	27743
804.346	27622
804.488	27572
804.63	27633
804.773	27408
804.915	27728
805.057	27648
805.199	27576
805.341	27641
805.483	27781
805.626	27838
805.768	27724
805.91	27888
806.052	27789
806.194	27637
806.336	27865
806.478	27705
806.62	27720
806.762	28006
806.904	28010
807.046	28230
807.188	28135
807.33	28230
807.472	28295
807.614	28120
807.756	28040
807.898	27998
808.04	28051
808.182	27998
808.324	27968
808.465	28067
808.607	28181
808.749	28356
808.891	28542
809.033	28634
809.174	28451
809.316	28314
809.458	28577
809.6	28451
809.741	28421
809.883	28672
810.025	28618
810.166	28759
810.308	28626
810.45	28744
810.591	28687
810.733	28481
810.875	28417
811.016	28303
811.158	28139
811.299	28550
811.441	28436
811.582	28592
811.724	28371
811.865	28322
812.007	28257
812.148	28436
812.29	28363
812.431	28630
812.573	28683
812.714	28702
812.855	28896
812.997	28934
813.138	29178
813.279	29075
813.421	28866
813.562	28805
813.703	28717
813.845	28653
813.986	28500
814.127	28162
814.268	28055
814.41	28150
814.551	28070
814.692	28143
814.833	27987
814.974	28059
815.115	28162
815.256	27884
815.397	27960
815.539	28040
815.68	27846
815.821	27789
815.962	27911
816.103	27926
816.244	27701
816.385	27736
816.526	27614
816.666	27500
816.807	27424
816.948	27412
817.089	27454
817.23	27382
817.371	27351
817.512	27382
817.653	27336
817.793	27294
817.934	27340
818.075	27370
818.216	27230
818.356	27382
818.497	27184
818.638	27173
818.778	27176
818.919	27233
819.06	27218
819.2	27397
819.341	27386
819.481	27291
819.622	27488
819.762	27759
819.903	27724
820.043	27599
820.184	27542
820.324	27332
820.465	27496
820.605	27515
820.746	27515
820.886	27275
821.026	27488
821.167	27389
821.307	27485
821.447	27663
821.588	27359
821.728	27176
821.868	27001
822.008	26758
822.149	26910
822.289	26883
822.429	26697
822.569	26522
822.709	26583
822.849	26396
822.99	26423
823.13	26415
823.27	26366
823.41	26244
823.55	26050
823.69	26073
823.83	26145
823.97	26229
824.11	25955
824.25	25833
824.389	26065
824.529	26050
824.669	26096
824.809	26084
824.949	26134
825.089	26107
825.228	26142
825.368	25909
825.508	25894
825.648	25894
825.787	25814
825.927	26031
826.067	25928
826.206	25864
826.346	26001
826.485	25845
826.625	25909
826.765	25963
826.904	25917
827.044	25662
827.183	25727
827.323	25582
827.462	25556
827.601	25571
827.741	25704
827.88	25567
828.02	25499
828.159	25578
828.298	25616
828.437	25628
828.577	25529
828.716	25700
828.855	25514
828.994	25388
829.134	25209
829.273	25392
829.412	25274
829.551	25206
829.69	25187
829.829	25316
829.968	25464
830.107	25407
830.246	25289
830.385	25270
830.524	25148
830.663	25141
830.802	24916
830.941	24897
831.08	24886
831.219	24897
831.357	25133
831.496	25194
831.635	24947
831.774	24935
831.913	24753
832.051	24700
832.19	24677
832.329	24711
832.467	24574
832.606	24486
832.744	24631
832.883	24441
833.022	24559
833.16	24563
833.299	24661
833.437	24505
833.576	24582
833.714	24681
833.852	24677
833.991	24631
834.129	24623
834.267	24772
834.406	24677
834.544	24692
834.682	24585
834.821	24460
834.959	24760
835.097	24513
835.235	24623
835.373	24521
835.511	24601
835.65	24509
835.788	24513
835.926	24384
836.064	24384
836.202	24178
836.34	24509
836.478	24536
836.615	24483
836.753	24433
836.891	24460
837.029	24513
837.167	24311
837.305	24357
837.443	24327
837.58	24258
837.718	24327
837.856	24209
837.993	24232
838.131	24353
838.269	24251
838.406	24319
838.544	24087
838.681	23961
838.819	23824
838.956	23859
839.094	23771
839.231	23748
839.369	23996
839.506	24163
839.643	23958
839.781	23779
839.918	23672
840.055	23718
840.193	23627
840.33	23866
840.467	23741
840.604	23665
840.742	23977
840.879	23558
841.016	23528
841.153	23512
841.29	23756
841.427	23566
841.564	23809
841.701	23718
841.838	23684
841.975	23360
842.112	23649
842.249	23505
842.385	23459
842.522	23748
842.659	23436
842.796	23459
842.933	23436
843.069	23402
843.206	23402
843.343	23417
843.479	23436
843.616	23490
843.752	23273
843.889	23151
844.025	23269
844.162	23159
844.298	23174
844.435	23269
844.571	23162
844.708	23265
844.844	23288
844.98	23376
845.117	23261
845.253	23079
845.389	23041
845.525	23018
845.661	23041
845.798	22984
845.934	22911
846.07	22744
846.206	22976
846.342	23136
846.478	22900
846.614	22782
846.75	22615
846.886	22641
847.022	22744
847.158	22637
847.294	22668
847.429	22771
847.565	22668
847.701	22900
847.837	22417
847.972	22348
848.108	22516
848.244	22535
848.379	22440
848.515	22215
848.65	22287
848.786	22344
848.921	22272
849.057	22329
849.192	22333
849.328	22246
849.463	22379
849.598	22242
849.734	22124
849.869	22211
850.004	22109
850.14	21994
850.275	22044
850.41	21884
850.545	21941
850.68	21941
850.815	22021
850.95	21975
851.085	22082
851.22	22173
851.355	22002
851.49	22021
851.625	21937
851.76	22025
851.895	21964
852.03	21964
852.165	22051
852.299	21987
852.434	21998
852.569	21994
852.703	22029
852.838	22185
852.973	22025
853.107	22150
853.242	21861
853.376	21827
853.511	21751
853.645	21865
853.78	21918
853.914	21739
854.048	21789
854.183	21819
854.317	21903
854.451	22021
854.585	21762
854.72	21762
854.854	21956
854.988	21755
855.122	21892
855.256	21667
855.39	21793
855.524	21964
855.658	21949
855.792	21717
855.926	21838
856.06	21880
856.194	21800
856.327	21846
856.461	21812
856.595	21694
856.729	21793
856.862	21983
856.996	21846
857.13	21911
857.263	21972
857.397	21941
857.53	21785
857.664	21888
857.797	21827
857.931	22078
858.064	21797
858.197	21884
858.331	21793
858.464	21751
858.597	21797
858.731	21854
858.864	21709
858.997	21709
859.13	21915
859.263	21759
859.396	21831
859.529	21831
859.662	21861
859.795	21720
859.928	21934
860.061	22055
860.194	22021
860.327	21846
860.46	21941
860.592	21998
860.725	22010
860.858	22048
860.99	21736
861.123	21781
861.256	21781
861.388	21857
861.521	22413
861.653	21667
861.786	21606
861.918	21629
862.05	21713
862.183	21759
862.315	21690
862.447	21770
862.58	21800
862.712	21633
862.844	21443
862.976	21583
863.108	21671
863.24	22029
863.372	21564
863.504	21595
863.636	21435
863.768	21557
863.9	21500
864.032	21534
864.164	21466
864.296	21610
864.428	21743
864.559	21625
864.691	21641
864.823	21599
864.954	21515
865.086	21561
865.217	21424
865.349	21355
865.48	21428
865.612	21393
865.743	21511
865.875	21420
866.006	21454
866.137	21382
866.269	21454
866.4	21389
866.531	21412
866.662	21332
866.793	21298
866.924	21363
867.055	21374
867.186	21332
867.317	21260
867.448	21222
867.579	21351
867.71	21359
867.841	21241
867.972	21378
868.103	21435
868.233	21313
868.364	21363
868.495	21485
868.625	21572
868.756	21713
868.886	21625
869.017	21644
869.147	21701
869.278	21774
869.408	21526
869.539	21606
869.669	21679
869.799	21595
869.929	21660
870.06	21732
870.19	21949
870.32	21922
870.45	21869
870.58	22036
870.71	22093
870.84	22181
870.97	21857
871.1	22029
871.23	22242
871.36	22082
871.489	22101
871.619	22219
871.749	22169
871.879	22207
872.008	22322
872.138	22322
872.267	22207
872.397	22124
872.526	22120
872.656	22063
872.785	22044
872.915	22268
873.044	22367
873.173	22261
873.303	22249
873.432	22363
873.561	22253
873.69	22265
873.819	22268
873.948	22295
874.077	22306
874.206	22169
874.335	22257
874.464	22329
874.593	22535
874.722	22329
874.851	22516
874.979	22592
875.108	22645
875.237	22424
875.365	22360
875.494	22398
875.623	22466
875.751	22443
875.88	22523
876.008	22607
876.136	22535
876.265	22774
876.393	22919
876.521	22957
876.65	22763
876.778	22843
876.906	22736
877.034	22706
877.162	22797
877.29	22793
877.418	22927
877.546	22736
877.674	22816
877.802	22702
877.93	22828
878.058	22733
878.185	22660
878.313	22740
878.441	22816
878.568	22748
878.696	22729
878.824	22885
878.951	22957
879.079	22805
879.206	23128
879.333	23014
879.461	22900
879.588	22900
879.715	22942
879.842	23113
879.97	22934
880.097	22641
880.224	22664
880.351	22653
880.478	22577
880.605	22508
880.732	22710
880.859	22889
880.986	22660
881.112	22588
881.239	22516
881.366	22379
881.493	22306
881.619	22150
881.746	22162
881.872	22234
881.999	22188
882.125	22109
882.252	22181
882.378	22109
882.505	22150
882.631	21945
882.757	21895
882.883	21987
883.01	21835
883.136	21835
883.262	21747
883.388	21717
883.514	21831
883.64	21873
883.766	21804
883.892	21686
884.018	21667
884.143	21781
884.269	22010
884.395	21622
884.52	21523
884.646	21568
884.772	21530
884.897	21260
885.023	21416
885.148	21580
885.274	21576
885.399	21561
885.524	21424
885.65	21511
885.775	21648
885.9	21450
886.025	21553
886.15	21686
886.275	21435
886.4	21332
886.525	21428
886.65	21416
886.775	21329
886.9	21515
887.025	21682
887.149	21538
887.274	21431
887.399	21230
887.523	21313
887.648	21310
887.773	21256
887.897	21310
888.021	21291
888.146	21150
888.27	21332
888.395	21272
888.519	21275
888.643	21340
888.767	21211
888.891	21298
889.015	21043
889.139	21176
889.263	21119
889.387	21180
889.511	21226
889.635	21188
889.759	21108
889.883	21020
890.006	21123
890.13	21074
890.254	20994
890.377	20994
890.501	20739
890.624	20823
890.748	20830
890.871	20796
890.995	20644
891.118	20598
891.241	20640
891.364	20640
891.488	20762
891.611	20629
891.734	20625
891.857	20693
891.98	20632
892.103	20648
892.226	20659
892.349	20533
892.471	20381
892.594	20533
892.717	20423
892.839	20522
892.962	20537
893.085	20575
893.207	20488
893.33	20286
893.452	20454
893.575	20495
893.697	20499
893.819	20632
893.941	20712
894.064	20651
894.186	20503
894.308	20427
894.43	20659
894.552	20606
894.674	20686
894.796	20415
894.918	20469
895.04	20473
895.161	20488
895.283	20556
895.405	20484
895.526	20465
895.648	20537
895.769	20488
895.891	20598
896.012	20663
896.134	20442
896.255	20583
896.376	20560
896.498	20541
896.619	20640
896.74	20560
896.861	20674
896.982	20941
897.103	20975
897.224	20800
897.345	20750
897.466	20663
897.587	20765
897.708	20823
897.828	20861
897.949	20746
898.07	20556
898.19	20659
898.311	20724
898.431	20629
898.552	20644
898.672	20777
898.792	20838
898.913	20674
899.033	20571
899.153	20606
899.273	20473
899.393	20427
899.513	20590
899.633	20408
899.753	20549
899.873	20370
899.993	20484
900.113	20423
900.232	20423
900.352	20328
900.472	20377
900.591	20305
900.711	20396
900.83	20233
900.95	20400
901.069	20271
901.189	20161
901.308	19868
901.427	19830
901.546	19826
901.665	19951
901.784	19860
901.904	19799
902.023	19655
902.141	19400
902.26	19533
902.379	19548
902.498	19217
902.617	19411
902.735	19293
902.854	19369
902.973	19263
903.091	18943
903.21	19046
903.328	19057
903.446	18897
903.565	18757
903.683	18738
903.801	18730
903.919	18825
904.038	18734
904.156	18604
904.274	18681
904.392	18578
904.51	18559
904.627	18547
904.745	18570
904.863	18620
904.981	18311
905.098	18308
905.216	18243
905.334	18209
905.451	18125
905.569	18205
905.686	18277
905.803	18201
905.921	18045
906.038	18053
906.155	18079
906.272	18026
906.389	17855
906.506	17786
906.623	17745
906.74	17752
906.857	17691
906.974	17661
907.091	17836
907.208	17897
907.324	17817
907.441	17649
907.557	17592
907.674	17497
907.79	17341
907.907	17482
908.023	17486
908.139	17520
908.256	17360
908.372	17318
908.488	17406
908.604	17280
908.72	17273
908.836	17189
908.952	17231
909.068	17193
909.184	17250
909.3	17181
909.415	17261
909.531	17193
909.647	16862
909.762	16915
909.878	16816
909.993	16942
910.108	16885
910.224	16793
910.339	16843
910.454	16733
910.57	16603
910.685	16626
910.8	16866
910.915	16816
911.03	16713
911.145	16500
911.259	16478
911.374	16459
911.489	16348
911.604	16341
911.718	16196
911.833	16280
911.947	16101
912.062	16040
912.176	16306
912.291	16318
912.405	16257
912.519	16531
912.633	16417
912.748	16185
912.862	16226
912.976	16150
913.09	15895
913.204	16036
913.318	16002
913.431	16112
913.545	16063
913.659	16124
913.772	16010
913.886	15907
914	15804
914.113	15884
914.226	15857
914.34	15930
914.453	15774
914.566	15876
914.68	15644
914.793	15625
914.906	15561
915.019	15374
915.132	15344
915.245	15401
915.358	15564
915.47	15431
915.583	15359
915.696	15401
915.809	15351
915.921	15389
916.034	15431
916.146	15272
916.259	15283
916.371	15485
916.483	15359
916.595	15218
916.708	15298
916.82	15256
916.932	15272
917.044	15264
917.156	15116
917.268	15039
917.38	15097
917.491	15066
917.603	15131
917.715	15157
917.826	15043
917.938	14971
918.049	14899
918.161	15024
918.272	15211
918.384	15146
918.495	15005
918.606	14880
918.717	14746
918.828	14826
918.939	14887
919.05	14727
919.161	14785
919.272	14469
919.383	14663
919.494	14773
919.604	15077
919.715	14788
919.826	14701
919.936	14727
920.047	14838
920.157	14857
920.267	14990
920.378	14750
920.488	14792
920.598	14998
920.708	15009
920.818	15028
920.928	14929
921.038	15146
921.148	14967
921.258	14701
921.368	14587
921.477	14511
921.587	14587
921.697	14408
921.806	14556
921.916	14351
922.025	14195
922.134	14229
922.244	14054
922.353	14199
922.462	14008
922.571	13936
922.68	13879
922.789	13837
922.898	13826
923.007	13776
923.116	13849
923.224	13658
923.333	13780
923.442	13708
923.55	13731
923.659	13613
923.767	13712
923.876	13540
923.984	13628
924.092	13537
924.201	13533
924.309	13521
924.417	13658
924.525	13403
924.633	13480
924.741	14427
924.849	13297
924.956	13373
925.064	13278
925.172	13236
925.279	13095
925.387	13213
925.494	13209
925.602	13354
925.709	13194
925.816	13118
925.924	13164
926.031	13149
926.138	13225
926.245	13240
926.352	13023
926.459	13145
926.566	13289
926.673	13023
926.779	12954
926.886	13034
926.993	12878
927.099	12791
927.206	12658
927.312	12764
927.419	12856
927.525	12783
927.631	12772
927.737	12703
927.843	12669
927.95	12445
928.056	12452
928.162	12585
928.267	12635
928.373	13362
928.479	12498
928.585	12388
928.69	12483
928.796	12597
928.901	12426
929.007	12361
929.112	12429
929.218	12475
929.323	12380
929.428	12239
929.533	12395
929.638	12216
929.743	12311
929.848	12262
929.953	12216
930.058	12129
930.163	11916
930.267	11878
930.372	12095
930.477	11851
930.581	12171
930.685	11999
930.79	11885
930.894	11813
930.998	11775
931.103	11939
931.207	11630
931.311	11547
931.415	11425
931.519	11170
931.623	11208
