Data from test_V78500241_1250.txt Node
Date: Fri Mar 25 15:50:27 CST 2022
User: usil
Spectrometer: V785-0024
Trigger mode: 0
Integration Time (sec): 4.000000E-1
Scans to average: 1
Nonlinearity correction enabled: false
Boxcar width: 0
Storing dark spectrum: false
XAxis mode: Wavelengths
Number of Pixels in Spectrum: 1024
>>>>>Begin Spectral Data<<<<<
801.071	28691
801.214	28592
801.356	28516
801.499	28379
801.641	28325
801.783	28253
801.926	28352
802.068	28485
802.211	28284
802.353	28261
802.496	28101
802.638	27888
802.78	27907
802.923	27888
803.065	27838
803.208	27937
803.35	28021
803.492	28086
803.635	28139
803.777	27972
803.919	28265
804.061	28516
804.204	28257
804.346	28238
804.488	28090
804.63	28173
804.773	28272
804.915	28234
805.057	28325
805.199	28367
805.341	28371
805.483	28379
805.626	28440
805.768	28287
805.91	28428
806.052	28428
806.194	28272
806.336	28702
806.478	28390
806.62	28386
806.762	28573
806.904	28584
807.046	28923
807.188	28797
807.33	28839
807.472	28904
807.614	28755
807.756	28831
807.898	28797
808.04	28615
808.182	28592
808.324	28759
808.465	28740
808.607	28938
808.749	29121
808.891	29102
809.033	29349
809.174	29090
809.316	29098
809.458	29090
809.6	29075
809.741	29155
809.883	29200
810.025	29349
810.166	29493
810.308	29459
810.45	29303
810.591	29204
810.733	29181
810.875	29143
811.016	28991
811.158	29010
811.299	29239
811.441	29497
811.582	29284
811.724	29231
811.865	29033
812.007	29071
812.148	29113
812.29	29102
812.431	29322
812.573	29417
812.714	29440
812.855	29581
812.997	29638
813.138	29965
813.279	29737
813.421	29570
813.562	29653
813.703	29501
813.845	29299
813.986	29041
814.127	28991
814.268	28824
814.41	28877
814.551	28820
814.692	28938
814.833	28729
814.974	28786
815.115	28888
815.256	28721
815.397	28656
815.539	28721
815.68	28649
815.821	28668
815.962	28679
816.103	28615
816.244	28394
816.385	28447
816.526	28341
816.666	28253
816.807	28116
816.948	28143
817.089	28112
817.23	28188
817.371	28143
817.512	28139
817.653	28105
817.793	27991
817.934	28295
818.075	28002
818.216	28120
818.356	28101
818.497	28025
818.638	27835
818.778	27956
818.919	27888
819.06	27960
819.2	28029
819.341	28287
819.481	28086
819.622	28284
819.762	28584
819.903	28333
820.043	28322
820.184	28341
820.324	28135
820.465	28280
820.605	28310
820.746	28226
820.886	28147
821.026	28169
821.167	28272
821.307	28314
821.447	28253
821.588	28154
821.728	27888
821.868	27797
822.008	27580
822.149	27610
822.289	27644
822.429	27294
822.569	27275
822.709	27275
822.849	27222
822.99	27207
823.13	26956
823.27	27074
823.41	26944
823.55	26842
823.69	26982
823.83	26940
823.97	26815
824.11	26720
824.25	26697
824.389	26724
824.529	26979
824.669	26937
824.809	27009
824.949	26986
825.089	26921
825.228	26815
825.368	26621
825.508	26727
825.648	26788
825.787	26861
825.927	26731
826.067	26693
826.206	26587
826.346	26724
826.485	26670
826.625	26636
826.765	26720
826.904	26788
827.044	26492
827.183	26473
827.323	26415
827.462	26374
827.601	26362
827.741	26351
827.88	26484
828.02	26218
828.159	26225
828.298	26400
828.437	26419
828.577	26233
828.716	26442
828.855	26347
828.994	26077
829.134	26199
829.273	26062
829.412	25902
829.551	25997
829.69	26119
829.829	26145
829.968	26183
830.107	26206
830.246	26092
830.385	25947
830.524	25940
830.663	25986
830.802	25811
830.941	25700
831.08	25693
831.219	25753
831.357	25765
831.496	25947
831.635	25552
831.774	25605
831.913	25632
832.051	25499
832.19	25426
832.329	25365
832.467	25350
832.606	25232
832.744	25331
832.883	25350
833.022	25297
833.16	25407
833.299	25324
833.437	25441
833.576	25430
833.714	25449
833.852	25487
833.991	25400
834.129	25472
834.267	25365
834.406	25476
834.544	25552
834.682	25453
834.821	25411
834.959	25567
835.097	25236
835.235	25297
835.373	25324
835.511	25293
835.65	25240
835.788	25202
835.926	25114
836.064	25053
836.202	25084
836.34	25263
836.478	25301
836.615	25179
836.753	25285
836.891	25316
837.029	25217
837.167	25103
837.305	25137
837.443	25000
837.58	25088
837.718	25091
837.856	25141
837.993	25015
838.131	25023
838.269	25012
838.406	25031
838.544	24821
838.681	24726
838.819	24578
838.956	24441
839.094	24536
839.231	24551
839.369	24734
839.506	24916
839.643	24882
839.781	24494
839.918	24460
840.055	24559
840.193	24597
840.33	24494
840.467	24486
840.604	24532
840.742	24795
840.879	24327
841.016	24426
841.153	24384
841.29	24475
841.427	24209
841.564	24410
841.701	24350
841.838	24353
841.975	24311
842.112	24319
842.249	24220
842.385	24262
842.522	24350
842.659	24235
842.796	24167
842.933	24163
843.069	24186
843.206	24194
843.343	24235
843.479	24171
843.616	24129
843.752	24068
843.889	23965
844.025	23942
844.162	24057
844.298	24007
844.435	23969
844.571	23954
844.708	23988
844.844	24030
844.98	24174
845.117	24117
845.253	23893
845.389	23870
845.525	23863
845.661	23859
845.798	23672
845.934	23630
846.07	23604
846.206	23794
846.342	23798
846.478	23573
846.614	23448
846.75	23406
846.886	23322
847.022	23395
847.158	23326
847.294	23414
847.429	23303
847.565	23296
847.701	23608
847.837	23083
847.972	23117
848.108	23227
848.244	23136
848.379	22980
848.515	23003
848.65	22831
848.786	23014
848.921	22900
849.057	23052
849.192	23079
849.328	23048
849.463	23159
849.598	22915
849.734	22869
849.869	22858
850.004	22866
850.14	22748
850.275	22687
850.41	22546
850.545	22668
850.68	22752
850.815	22759
850.95	22637
851.085	22885
851.22	22862
851.355	22774
851.49	22618
851.625	22649
851.76	22778
851.895	22584
852.03	22618
852.165	22618
852.299	22896
852.434	22919
852.569	22713
852.703	22755
852.838	22892
852.973	22858
853.107	22847
853.242	22687
853.376	22675
853.511	22432
853.645	22474
853.78	22702
853.914	22664
854.048	22577
854.183	22588
854.317	22538
854.451	22820
854.585	22611
854.72	22603
854.854	22694
854.988	22440
855.122	22603
855.256	22337
855.39	22592
855.524	22626
855.658	22615
855.792	22630
855.926	22592
856.06	22500
856.194	22694
856.327	22546
856.461	22462
856.595	22436
856.729	22459
856.862	22744
856.996	22649
857.13	22710
857.263	22641
857.397	22596
857.53	22569
857.664	22599
857.797	22512
857.931	22675
858.064	22656
858.197	22615
858.331	22584
858.464	22493
858.597	22470
858.731	22493
858.864	22538
858.997	22561
859.13	22592
859.263	22588
859.396	22599
859.529	22626
859.662	22470
859.795	22500
859.928	22531
860.061	22755
860.194	22790
860.327	22653
860.46	22535
860.592	22683
860.725	22668
860.858	22694
860.99	22672
861.123	22535
861.256	22493
861.388	22611
861.521	23341
861.653	22360
861.786	22348
861.918	22348
862.05	22394
862.183	22390
862.315	22451
862.447	22447
862.58	22508
862.712	22306
862.844	22169
862.976	22386
863.108	22382
863.24	22615
863.372	22158
863.504	22261
863.636	22204
863.768	22219
863.9	22287
864.032	22135
864.164	22177
864.296	22268
864.428	22306
864.559	22352
864.691	22303
864.823	22219
864.954	22192
865.086	22131
865.217	22093
865.349	22086
865.48	22211
865.612	22139
865.743	22188
865.875	22048
866.006	22116
866.137	22177
866.269	22097
866.4	22101
866.531	21998
866.662	22059
866.793	22135
866.924	22044
867.055	22162
867.186	22242
867.317	22063
867.448	22040
867.579	22017
867.71	21937
867.841	21956
867.972	22055
868.103	22074
868.233	21991
868.364	22044
868.495	22196
868.625	22310
868.756	22337
868.886	22265
869.017	22375
869.147	22325
869.278	22394
869.408	22382
869.539	22337
869.669	22394
869.799	22299
869.929	22371
870.06	22519
870.19	22679
870.32	22615
870.45	22607
870.58	22736
870.71	22835
870.84	22850
870.97	22733
871.1	22740
871.23	22767
871.36	22869
871.489	22854
871.619	22915
871.749	22987
871.879	22866
872.008	22938
872.138	22995
872.267	22938
872.397	22702
872.526	22812
872.656	22748
872.785	22664
872.915	22938
873.044	23098
873.173	22911
873.303	22896
873.432	22843
873.561	23071
873.69	22980
873.819	22908
873.948	22987
874.077	23037
874.206	22801
874.335	22862
874.464	23044
874.593	23105
874.722	23056
874.851	23166
874.979	23181
875.108	23235
875.237	23086
875.365	23010
875.494	23162
875.623	23083
875.751	23140
875.88	23174
876.008	23269
876.136	23318
876.265	23547
876.393	23573
876.521	23604
876.65	23524
876.778	23573
876.906	23444
877.034	23459
877.162	23497
877.29	23356
877.418	23440
877.546	23448
877.674	23402
877.802	23360
877.93	23509
878.058	23280
878.185	23376
878.313	23364
878.441	23387
878.568	23216
878.696	23311
878.824	23444
878.951	23452
879.079	23589
879.206	23630
879.333	23695
879.461	23421
879.588	23554
879.715	23463
879.842	23809
879.97	23463
880.097	23356
880.224	23288
880.351	23292
880.478	23220
880.605	23250
880.732	23216
880.859	23585
880.986	23254
881.112	23231
881.239	23136
881.366	23048
881.493	22934
881.619	22934
881.746	22790
881.872	22820
881.999	22824
882.125	22755
882.252	22839
882.378	22885
882.505	22942
882.631	22774
882.757	22550
882.883	22645
883.01	22512
883.136	22512
883.262	22474
883.388	22386
883.514	22508
883.64	22523
883.766	22485
883.892	22265
884.018	22238
884.143	22421
884.269	22474
884.395	22261
884.52	22135
884.646	22181
884.772	22059
884.897	22093
885.023	22055
885.148	22238
885.274	22246
885.399	22272
885.524	22143
885.65	22120
885.775	22169
885.9	22124
886.025	22192
886.15	22246
886.275	22093
886.4	21964
886.525	22074
886.65	22006
886.775	21991
886.9	22360
887.025	22333
887.149	22048
887.274	21918
887.399	21926
887.523	21892
887.648	21911
887.773	21743
887.897	21953
888.021	22036
888.146	21857
888.27	21953
888.395	22067
888.519	22032
888.643	21911
888.767	21975
888.891	21751
889.015	21701
889.139	21797
889.263	21808
889.387	21842
889.511	21819
889.635	21751
889.759	21568
889.883	21770
890.006	21599
890.13	21774
890.254	21599
890.377	21580
890.501	21420
890.624	21439
890.748	21439
890.871	21397
890.995	21237
891.118	21157
891.241	21169
891.364	21241
891.488	21435
891.611	21291
891.734	21306
891.857	21287
891.98	21439
892.103	21203
892.226	21214
892.349	21298
892.471	21074
892.594	21119
892.717	21169
892.839	21161
892.962	21233
893.085	21218
893.207	21237
893.33	21104
893.452	21116
893.575	21074
893.697	21150
893.819	21275
893.941	21443
894.064	21294
894.186	21081
894.308	21032
894.43	21150
894.552	21192
894.674	21226
894.796	20925
894.918	21093
895.04	21062
895.161	21211
895.283	21146
895.405	21036
895.526	21184
895.648	21070
895.769	21184
895.891	21081
896.012	21165
896.134	21256
896.255	21100
896.376	21089
896.498	21150
896.619	21214
896.74	21127
896.861	21176
896.982	21428
897.103	21538
897.224	21321
897.345	21344
897.466	21249
897.587	21310
897.708	21507
897.828	21386
897.949	21218
898.07	21119
898.19	21321
898.311	21363
898.431	21222
898.552	21268
898.672	21291
898.792	21348
898.913	21317
899.033	21241
899.153	21077
899.273	21055
899.393	20956
899.513	21112
899.633	20979
899.753	21001
899.873	20979
899.993	21077
900.113	21062
900.232	21123
900.352	21009
900.472	20876
900.591	20895
900.711	20887
900.83	20849
900.95	20921
901.069	20925
901.189	20651
901.308	20533
901.427	20404
901.546	20358
901.665	20358
901.784	20431
901.904	20271
902.023	20122
902.141	19936
902.26	19932
902.379	19898
902.498	19769
902.617	19799
902.735	19936
902.854	19856
902.973	19769
903.091	19613
903.21	19582
903.328	19552
903.446	19403
903.565	19324
903.683	19228
903.801	19331
903.919	19346
904.038	19377
904.156	19069
904.274	19099
904.392	19072
904.51	19118
904.627	19095
904.745	19278
904.863	19274
904.981	18924
905.098	18776
905.216	18646
905.334	18833
905.451	18829
905.569	18757
905.686	18772
905.803	18681
905.921	18578
906.038	18650
906.155	18593
906.272	18395
906.389	18460
906.506	18311
906.623	18319
906.74	18372
906.857	18117
906.974	18235
907.091	18300
907.208	18327
907.324	18262
907.441	18182
907.557	18060
907.674	18030
907.79	17958
907.907	17984
908.023	17996
908.139	18015
908.256	17992
908.372	17824
908.488	17828
908.604	17748
908.72	17657
908.836	17680
908.952	17722
909.068	17745
909.184	17752
909.3	17783
909.415	17714
909.531	17687
909.647	17528
909.762	17360
909.878	17303
909.993	17406
910.108	17448
910.224	17284
910.339	17417
910.454	17204
910.57	17193
910.685	17128
910.8	17315
910.915	17383
911.03	17151
911.145	17083
911.259	16961
911.374	16995
911.489	16896
911.604	16900
911.718	16771
911.833	16774
911.947	16535
912.062	16569
912.176	16752
912.291	16630
912.405	16782
912.519	16976
912.633	16862
912.748	16736
912.862	16782
912.976	16512
913.09	16409
913.204	16504
913.318	16470
913.431	16645
913.545	16596
913.659	16573
913.772	16500
913.886	16371
914	16219
914.113	16405
914.226	16462
914.34	16390
914.453	16188
914.566	16394
914.68	16147
914.793	16207
914.906	15975
915.019	15857
915.132	15838
915.245	15972
915.358	15922
915.47	15880
915.583	15949
915.696	15915
915.809	16086
915.921	16067
916.034	15892
916.146	15743
916.259	15736
916.371	15937
916.483	15793
916.595	15789
916.708	15694
916.82	15743
916.932	15732
917.044	15686
917.156	15648
917.268	15534
917.38	15530
917.491	15511
917.603	15469
917.715	15606
917.826	15564
917.938	15443
918.049	15344
918.161	15370
918.272	15610
918.384	15557
918.495	15526
918.606	15252
918.717	15313
918.828	15211
918.939	15256
919.05	15127
919.161	15245
919.272	15085
919.383	15070
919.494	15260
919.604	15389
919.715	15119
919.826	15116
919.936	15116
920.047	15252
920.157	15233
920.267	15431
920.378	15184
920.488	15199
920.598	15370
920.708	15481
920.818	15367
920.928	15332
921.038	15462
921.148	15454
921.258	15108
921.368	15017
921.477	14899
921.587	14864
921.697	14823
921.806	14929
921.916	14746
922.025	14621
922.134	14545
922.244	14549
922.353	14579
922.462	14419
922.571	14419
922.68	14218
922.789	14107
922.898	14092
923.007	14172
923.116	14240
923.224	14149
923.333	14084
923.442	14031
923.55	14005
923.659	14054
923.767	14092
923.876	14050
923.984	13989
924.092	13932
924.201	13898
924.309	13913
924.417	13925
924.525	13868
924.633	13871
924.741	14792
924.849	13708
924.956	13776
925.064	13578
925.172	13563
925.279	13540
925.387	13556
925.494	13521
925.602	13666
925.709	13670
925.816	13495
925.924	13480
926.031	13636
926.138	13472
926.245	13529
926.352	13381
926.459	13582
926.566	13590
926.673	13426
926.779	13316
926.886	13274
926.993	13190
927.099	13103
927.206	13053
927.312	13046
927.419	13129
927.525	13050
927.631	13152
927.737	13027
927.843	12932
927.95	12783
928.056	12890
928.162	12913
928.267	13027
928.373	13571
928.479	12954
928.585	12829
928.69	12871
928.796	12909
928.901	12662
929.007	12582
929.112	12776
929.218	12779
929.323	12833
929.428	12623
929.533	12821
929.638	12536
929.743	12517
929.848	12551
929.953	12681
930.058	12597
930.163	12330
930.267	12365
930.372	12547
930.477	12235
930.581	12490
930.685	12266
930.79	12171
930.894	12106
930.998	12163
931.103	12330
931.207	12034
931.311	11939
931.415	11760
931.519	11539
931.623	11570
