Data from test_V78500241_2139.txt Node
Date: Fri Mar 25 15:56:37 CST 2022
User: usil
Spectrometer: V785-0024
Trigger mode: 0
Integration Time (sec): 4.000000E-1
Scans to average: 1
Nonlinearity correction enabled: false
Boxcar width: 0
Storing dark spectrum: false
XAxis mode: Wavelengths
Number of Pixels in Spectrum: 1024
>>>>>Begin Spectral Data<<<<<
801.071	29159
801.214	29090
801.356	28683
801.499	28706
801.641	28546
801.783	28801
801.926	28721
802.068	28622
802.211	28710
802.353	28565
802.496	28573
802.638	28386
802.78	28276
802.923	28512
803.065	28242
803.208	28371
803.35	28512
803.492	28542
803.635	28516
803.777	28535
803.919	28668
804.061	28839
804.204	28725
804.346	28538
804.488	28577
804.63	28538
804.773	28493
804.915	28645
805.057	28721
805.199	28683
805.341	28812
805.483	28843
805.626	28759
805.768	28786
805.91	28976
806.052	28805
806.194	28793
806.336	28934
806.478	28725
806.62	28786
806.762	28877
806.904	29029
807.046	29368
807.188	29242
807.33	29330
807.472	29387
807.614	29147
807.756	29246
807.898	29124
808.04	29041
808.182	28984
808.324	29216
808.465	29296
808.607	29364
808.749	29512
808.891	29383
809.033	29710
809.174	29570
809.316	29608
809.458	29505
809.6	29467
809.741	29634
809.883	29623
810.025	29786
810.166	29897
810.308	29984
810.45	29794
810.591	29653
810.733	29615
810.875	29554
811.016	29398
811.158	29486
811.299	29528
811.441	29707
811.582	29737
811.724	29493
811.865	29406
812.007	29520
812.148	29665
812.29	29497
812.431	29653
812.573	29798
812.714	30091
812.855	29954
812.997	30304
813.138	30353
813.279	30247
813.421	30315
813.562	29874
813.703	29752
813.845	29729
813.986	29395
814.127	29261
814.268	29322
814.41	29307
814.551	29334
814.692	29337
814.833	29254
814.974	29284
815.115	29372
815.256	29197
815.397	29136
815.539	29067
815.68	29174
815.821	28991
815.962	29102
816.103	29083
816.244	29014
816.385	28991
816.526	28923
816.666	28752
816.807	28649
816.948	28702
817.089	28626
817.23	28630
817.371	28519
817.512	28649
817.653	28557
817.793	28470
817.934	28481
818.075	28645
818.216	28592
818.356	28481
818.497	28493
818.638	28360
818.778	28455
818.919	28135
819.06	28474
819.2	28401
819.341	28679
819.481	28611
819.622	28752
819.762	29006
819.903	28854
820.043	28755
820.184	28740
820.324	28752
820.465	28752
820.605	28759
820.746	28641
820.886	28557
821.026	28683
821.167	28565
821.307	28782
821.447	28748
821.588	28474
821.728	28455
821.868	28303
822.008	27964
822.149	28082
822.289	28021
822.429	27797
822.569	27819
822.709	27606
822.849	27492
822.99	27572
823.13	27549
823.27	27477
823.41	27416
823.55	27363
823.69	27405
823.83	27367
823.97	27389
824.11	27222
824.25	27272
824.389	27116
824.529	27226
824.669	27184
824.809	27420
824.949	27306
825.089	27405
825.228	27241
825.368	27150
825.508	27154
825.648	27116
825.787	27237
825.927	27252
826.067	27070
826.206	27119
826.346	27233
826.485	27275
826.625	27108
826.765	27291
826.904	26963
827.044	26857
827.183	27017
827.323	26823
827.462	26842
827.601	26819
827.741	26876
827.88	26880
828.02	26674
828.159	26834
828.298	26712
828.437	26883
828.577	26644
828.716	26830
828.855	26743
828.994	26552
829.134	26526
829.273	26587
829.412	26537
829.551	26560
829.69	26453
829.829	26571
829.968	26621
830.107	26545
830.246	26545
830.385	26484
830.524	26343
830.663	26423
830.802	26259
830.941	26145
831.08	26103
831.219	26024
831.357	26103
831.496	26358
831.635	26142
831.774	26005
831.913	25989
832.051	25928
832.19	25921
832.329	25860
832.467	25772
832.606	25723
832.744	25784
832.883	25826
833.022	25681
833.16	25833
833.299	25852
833.437	25913
833.576	25944
833.714	25906
833.852	25947
833.991	25917
834.129	25860
834.267	25890
834.406	25841
834.544	25940
834.682	25803
834.821	25814
834.959	26065
835.097	25799
835.235	25875
835.373	25734
835.511	25788
835.65	25799
835.788	25628
835.926	25491
836.064	25521
836.202	25472
836.34	25521
836.478	25753
836.615	25514
836.753	25628
836.891	25609
837.029	25620
837.167	25563
837.305	25613
837.443	25586
837.58	25510
837.718	25518
837.856	25487
837.993	25407
838.131	25403
838.269	25297
838.406	25244
838.544	25434
838.681	25145
838.819	25129
838.956	24894
839.094	24848
839.231	24810
839.369	25118
839.506	25251
839.643	25217
839.781	24901
839.918	24859
840.055	24878
840.193	24935
840.33	24848
840.467	24821
840.604	25008
840.742	25050
840.879	24760
841.016	24947
841.153	24719
841.29	24970
841.427	24947
841.564	24833
841.701	24913
841.838	24791
841.975	24722
842.112	24692
842.249	24578
842.385	24612
842.522	24825
842.659	24665
842.796	24456
842.933	24593
843.069	24384
843.206	24631
843.343	24715
843.479	24650
843.616	24692
843.752	24285
843.889	24410
844.025	24528
844.162	24319
844.298	24467
844.435	24429
844.571	24342
844.708	24395
844.844	24555
844.98	24327
845.117	24505
845.253	24395
845.389	24136
845.525	24235
845.661	24258
845.798	24045
845.934	24068
846.07	24167
846.206	24140
846.342	24289
846.478	23973
846.614	23824
846.75	23760
846.886	23752
847.022	23866
847.158	23805
847.294	23912
847.429	23813
847.565	23676
847.701	23870
847.837	23509
847.972	23509
848.108	23657
848.244	23600
848.379	23417
848.515	23379
848.65	23307
848.786	23383
848.921	23387
849.057	23505
849.192	23330
849.328	23436
849.463	23284
849.598	23337
849.734	23364
849.869	23318
850.004	23155
850.14	23086
850.275	23227
850.41	23151
850.545	23147
850.68	23109
850.815	23159
850.95	23235
851.085	23391
851.22	23277
851.355	23033
851.49	23044
851.625	23090
851.76	23193
851.895	22976
852.03	23052
852.165	23273
852.299	23235
852.434	23318
852.569	23284
852.703	23064
852.838	23349
852.973	23299
853.107	23246
853.242	23235
853.376	22953
853.511	22877
853.645	22980
853.78	23147
853.914	23044
854.048	22984
854.183	22995
854.317	22968
854.451	23079
854.585	23018
854.72	23052
854.854	22957
854.988	22991
855.122	22858
855.256	22885
855.39	23029
855.524	23075
855.658	23090
855.792	22953
855.926	23010
856.06	22930
856.194	23029
856.327	22927
856.461	22999
856.595	22984
856.729	23006
856.862	23140
856.996	22995
857.13	22987
857.263	22972
857.397	23037
857.53	22972
857.664	23033
857.797	23159
857.931	23128
858.064	22972
858.197	23075
858.331	22987
858.464	22892
858.597	22873
858.731	22953
858.864	23067
858.997	22885
859.13	22968
859.263	23060
859.396	23022
859.529	23029
859.662	22949
859.795	22987
859.928	23143
860.061	23132
860.194	23083
860.327	23022
860.46	22976
860.592	23189
860.725	23098
860.858	23094
860.99	22995
861.123	22877
861.256	22949
861.388	23006
861.521	23570
861.653	22843
861.786	22736
861.918	22850
862.05	22904
862.183	22942
862.315	22942
862.447	22877
862.58	22923
862.712	22550
862.844	22706
862.976	22923
863.108	22733
863.24	23155
863.372	22500
863.504	22675
863.636	22603
863.768	22744
863.9	22774
864.032	22573
864.164	22702
864.296	22786
864.428	22778
864.559	22828
864.691	22736
864.823	22710
864.954	22615
865.086	22656
865.217	22500
865.349	22615
865.48	22405
865.612	22653
865.743	22573
865.875	22649
866.006	22645
866.137	22542
866.269	22485
866.4	22538
866.531	22531
866.662	22504
866.793	22470
866.924	22519
867.055	22466
867.186	22421
867.317	22516
867.448	22409
867.579	22424
867.71	22352
867.841	22265
867.972	22512
868.103	22470
868.233	22573
868.364	22447
868.495	22580
868.625	22736
868.756	22961
868.886	22679
869.017	22782
869.147	22881
869.278	22801
869.408	22736
869.539	22706
869.669	22725
869.799	22816
869.929	22911
870.06	22892
870.19	22934
870.32	22953
870.45	23056
870.58	23162
870.71	23250
870.84	23254
870.97	23071
871.1	23250
871.23	23189
871.36	23239
871.489	23181
871.619	23273
871.749	23471
871.879	23265
872.008	23345
872.138	23277
872.267	23421
872.397	23208
872.526	23094
872.656	23155
872.785	23193
872.915	23406
873.044	23436
873.173	23273
873.303	23414
873.432	23585
873.561	23512
873.69	23452
873.819	23239
873.948	23474
874.077	23402
874.206	23315
874.335	23223
874.464	23410
874.593	23535
874.722	23497
874.851	23570
874.979	23562
875.108	23695
875.237	23539
875.365	23509
875.494	23493
875.623	23638
875.751	23528
875.88	23505
876.008	23691
876.136	23771
876.265	23923
876.393	23992
876.521	23908
876.65	24045
876.778	23897
876.906	23965
877.034	23882
877.162	23935
877.29	23817
877.418	23840
877.546	23843
877.674	23866
877.802	23851
877.93	23946
878.058	23847
878.185	23684
878.313	23866
878.441	23920
878.568	23737
878.696	23821
878.824	23969
878.951	23912
879.079	24129
879.206	24106
879.333	24064
879.461	23817
879.588	23980
879.715	24049
879.842	24262
879.97	23897
880.097	23592
880.224	23764
880.351	23672
880.478	23707
880.605	23661
880.732	23589
880.859	23866
880.986	23710
881.112	23733
881.239	23520
881.366	23436
881.493	23425
881.619	23280
881.746	23181
881.872	23258
881.999	23181
882.125	23208
882.252	23227
882.378	23193
882.505	23330
882.631	23227
882.757	22911
882.883	22968
883.01	23014
883.136	22885
883.262	22915
883.388	22755
883.514	22904
883.64	23018
883.766	22915
883.892	22630
884.018	22626
884.143	22778
884.269	22881
884.395	22653
884.52	22470
884.646	22588
884.772	22348
884.897	22417
885.023	22569
885.148	22645
885.274	22660
885.399	22672
885.524	22481
885.65	22649
885.775	22557
885.9	22531
886.025	22626
886.15	22615
886.275	22523
886.4	22390
886.525	22531
886.65	22474
886.775	22379
886.9	22675
887.025	22771
887.149	22379
887.274	22371
887.399	22238
887.523	22284
887.648	22360
887.773	22128
887.897	22375
888.021	22367
888.146	22234
888.27	22310
888.395	22344
888.519	22295
888.643	22367
888.767	22261
888.891	22314
889.015	22029
889.139	22135
889.263	22044
889.387	22177
889.511	22226
889.635	22154
889.759	22093
889.883	22143
890.006	22044
890.13	22051
890.254	21937
890.377	21979
890.501	21865
890.624	21800
890.748	21804
890.871	21747
890.995	21667
891.118	21637
891.241	21595
891.364	21652
891.488	21736
891.611	21614
891.734	21534
891.857	21606
891.98	21667
892.103	21606
892.226	21469
892.349	21492
892.471	21401
892.594	21519
892.717	21557
892.839	21492
892.962	21542
893.085	21534
893.207	21511
893.33	21466
893.452	21496
893.575	21641
893.697	21553
893.819	21694
893.941	21724
894.064	21622
894.186	21458
894.308	21439
894.43	21564
894.552	21633
894.674	21534
894.796	21401
894.918	21561
895.04	21412
895.161	21637
895.283	21534
895.405	21435
895.526	21481
895.648	21538
895.769	21469
895.891	21599
896.012	21576
896.134	21477
896.255	21576
896.376	21397
896.498	21519
896.619	21420
896.74	21447
896.861	21485
896.982	21880
897.103	21835
897.224	21717
897.345	21553
897.466	21496
897.587	21648
897.708	21778
897.828	21736
897.949	21625
898.07	21568
898.19	21549
898.311	21759
898.431	21511
898.552	21618
898.672	21728
898.792	21648
898.913	21641
899.033	21462
899.153	21435
899.273	21355
899.393	21336
899.513	21283
899.633	21389
899.753	21507
899.873	21370
899.993	21500
900.113	21332
900.232	21389
900.352	21256
900.472	21222
900.591	21157
900.711	21199
900.83	21154
900.95	21245
901.069	21313
901.189	21066
901.308	20781
901.427	20765
901.546	20689
901.665	20621
901.784	20682
901.904	20602
902.023	20545
902.141	20259
902.26	20271
902.379	20415
902.498	20183
902.617	20225
902.735	20317
902.854	20267
902.973	20107
903.091	19860
903.21	19883
903.328	19913
903.446	19670
903.565	19715
903.683	19567
903.801	19521
903.919	19594
904.038	19586
904.156	19358
904.274	19540
904.392	19350
904.51	19411
904.627	19354
904.745	19377
904.863	19384
904.981	19198
905.098	19000
905.216	19103
905.334	19095
905.451	19107
905.569	19122
905.686	19137
905.803	19015
905.921	18833
906.038	19042
906.155	18871
906.272	18787
906.389	18757
906.506	18601
906.623	18604
906.74	18696
906.857	18471
906.974	18582
907.091	18559
907.208	18677
907.324	18620
907.441	18486
907.557	18273
907.674	18338
907.79	18300
907.907	18270
908.023	18311
908.139	18384
908.256	18205
908.372	18159
908.488	18190
908.604	17996
908.72	17969
908.836	18057
908.952	18003
909.068	18007
909.184	18026
909.3	17965
909.415	17984
909.531	17946
909.647	17699
909.762	17729
909.878	17718
909.993	17737
910.108	17680
910.224	17737
910.339	17684
910.454	17611
910.57	17501
910.685	17429
910.8	17756
910.915	17649
911.03	17509
911.145	17353
911.259	17250
911.374	17368
911.489	17181
911.604	17094
911.718	17041
911.833	17014
911.947	16889
912.062	16885
912.176	17037
912.291	17029
912.405	17052
912.519	17204
912.633	17166
912.748	17102
912.862	16938
912.976	16927
913.09	16744
913.204	16778
913.318	16854
913.431	16858
913.545	16873
913.659	16949
913.772	16812
913.886	16668
914	16622
914.113	16683
914.226	16733
914.34	16717
914.453	16516
914.566	16596
914.68	16447
914.793	16508
914.906	16169
915.019	16196
915.132	16071
915.245	16101
915.358	16147
915.47	16143
915.583	16074
915.696	16169
915.809	16272
915.921	16257
916.034	16090
916.146	15960
916.259	16036
916.371	16101
916.483	16158
916.595	16010
916.708	16040
916.82	16021
916.932	15937
917.044	15918
917.156	15835
917.268	15937
917.38	15838
917.491	15812
917.603	15827
917.715	15793
917.826	15880
917.938	15747
918.049	15663
918.161	15739
918.272	15907
918.384	15911
918.495	15747
918.606	15564
918.717	15405
918.828	15572
918.939	15667
919.05	15351
919.161	15374
919.272	15325
919.383	15336
919.494	15530
919.604	15736
919.715	15568
919.826	15329
919.936	15481
920.047	15511
920.157	15374
920.267	15641
920.378	15473
920.488	15481
920.598	15656
920.708	15709
920.818	15644
920.928	15576
921.038	15713
921.148	15701
921.258	15504
921.368	15374
921.477	15146
921.587	15180
921.697	15039
921.806	15233
921.916	15013
922.025	14804
922.134	14777
922.244	14857
922.353	14902
922.462	14731
922.571	14667
922.68	14518
922.789	14358
922.898	14507
923.007	14427
923.116	14450
923.224	14408
923.333	14400
923.442	14385
923.55	14305
923.659	14317
923.767	14294
923.876	14195
923.984	14286
924.092	14206
924.201	14263
924.309	14126
924.417	14161
924.525	14058
924.633	14062
924.741	14800
924.849	13898
924.956	13917
925.064	13868
925.172	13833
925.279	13822
925.387	13845
925.494	13845
925.602	13868
925.709	13909
925.816	13734
925.924	13670
926.031	13765
926.138	13662
926.245	13837
926.352	13700
926.459	13818
926.566	13784
926.673	13601
926.779	13525
926.886	13480
926.993	13453
927.099	13289
927.206	13304
927.312	13335
927.419	13422
927.525	13282
927.631	13266
927.737	13114
927.843	13259
927.95	13099
928.056	13129
928.162	13137
928.267	13145
928.373	13864
928.479	13301
928.585	12962
928.69	13057
928.796	13084
928.901	13034
929.007	12863
929.112	12947
929.218	12970
929.323	12882
929.428	12905
929.533	12993
929.638	12738
929.743	12764
929.848	12894
929.953	12806
930.058	12578
930.163	12513
930.267	12570
930.372	12635
930.477	12517
930.581	12711
930.685	12555
930.79	12403
930.894	12483
930.998	12384
931.103	12589
931.207	12121
931.311	12079
931.415	11954
931.519	11745
931.623	11752
