Data from test_V78500241_559.txt Node
Date: Fri Mar 25 15:45:40 CST 2022
User: usil
Spectrometer: V785-0024
Trigger mode: 0
Integration Time (sec): 4.000000E-1
Scans to average: 1
Nonlinearity correction enabled: false
Boxcar width: 0
Storing dark spectrum: false
XAxis mode: Wavelengths
Number of Pixels in Spectrum: 1024
>>>>>Begin Spectral Data<<<<<
801.071	27427
801.214	27291
801.356	27169
801.499	27017
801.641	26895
801.783	26796
801.926	26914
802.068	26785
802.211	26644
802.353	26739
802.496	26537
802.638	26606
802.78	26530
802.923	26530
803.065	26404
803.208	26313
803.35	26431
803.492	26594
803.635	26594
803.777	26518
803.919	26514
804.061	26960
804.204	26606
804.346	26473
804.488	26526
804.63	26568
804.773	26587
804.915	26743
805.057	26541
805.199	26579
805.341	26670
805.483	26807
805.626	26819
805.768	26670
805.91	26819
806.052	26849
806.194	26617
806.336	26880
806.478	26880
806.62	26735
806.762	26762
806.904	26994
807.046	27230
807.188	27230
807.33	27287
807.472	27245
807.614	27165
807.756	27066
807.898	27020
808.04	27085
808.182	26853
808.324	27009
808.465	27116
808.607	27138
808.749	27359
808.891	27408
809.033	27507
809.174	27587
809.316	27344
809.458	27370
809.6	27393
809.741	27519
809.883	27629
810.025	27534
810.166	27762
810.308	27644
810.45	27545
810.591	27675
810.733	27336
810.875	27344
811.016	27146
811.158	27378
811.299	27370
811.441	27519
811.582	27496
811.724	27374
811.865	27427
812.007	27306
812.148	27340
812.29	27397
812.431	27568
812.573	27816
812.714	27766
812.855	27880
812.997	27831
813.138	28109
813.279	27983
813.421	28002
813.562	27831
813.703	27682
813.845	27564
813.986	27325
814.127	27188
814.268	27017
814.41	27116
814.551	27039
814.692	26956
814.833	26994
814.974	27024
815.115	26891
815.256	26800
815.397	26861
815.539	26823
815.68	26765
815.821	26861
815.962	26861
816.103	26773
816.244	26777
816.385	26667
816.526	26564
816.666	26457
816.807	26259
816.948	26317
817.089	26305
817.23	26305
817.371	26324
817.512	26381
817.653	26320
817.793	26191
817.934	26187
818.075	26396
818.216	26252
818.356	26336
818.497	26252
818.638	25940
818.778	25963
818.919	26020
819.06	26107
819.2	26180
819.341	26221
819.481	26122
819.622	26457
819.762	26651
819.903	26438
820.043	26385
820.184	26423
820.324	26358
820.465	26339
820.605	26271
820.746	26389
820.886	26290
821.026	26313
821.167	26339
821.307	26473
821.447	26256
821.588	26206
821.728	26130
821.868	26005
822.008	25917
822.149	25708
822.289	25731
822.429	25472
822.569	25362
822.709	25476
822.849	25282
822.99	25194
823.13	25194
823.27	25148
823.41	25099
823.55	24825
823.69	25012
823.83	25187
823.97	25072
824.11	24890
824.25	24825
824.389	24920
824.529	25000
824.669	24821
824.809	24970
824.949	24943
825.089	24939
825.228	24973
825.368	24696
825.508	24612
825.648	24673
825.787	24726
825.927	24852
826.067	24700
826.206	24544
826.346	24688
826.485	24772
826.625	24681
826.765	24878
826.904	24719
827.044	24566
827.183	24479
827.323	24426
827.462	24388
827.601	24429
827.741	24365
827.88	24490
828.02	24251
828.159	24270
828.298	24422
828.437	24532
828.577	24292
828.716	24414
828.855	24403
828.994	24258
829.134	24190
829.273	24243
829.412	24163
829.551	24057
829.69	24133
829.829	24182
829.968	24167
830.107	24201
830.246	24110
830.385	24068
830.524	24045
830.663	23939
830.802	23927
830.941	23809
831.08	23756
831.219	23764
831.357	23794
831.496	23939
831.635	23843
831.774	23581
831.913	23531
832.051	23436
832.19	23520
832.329	23509
832.467	23482
832.606	23391
832.744	23387
832.883	23368
833.022	23376
833.16	23349
833.299	23452
833.437	23497
833.576	23414
833.714	23619
833.852	23551
833.991	23516
834.129	23554
834.267	23630
834.406	23455
834.544	23505
834.682	23471
834.821	23433
834.959	23589
835.097	23535
835.235	23566
835.373	23440
835.511	23429
835.65	23292
835.788	23410
835.926	23105
836.064	23162
836.202	23022
836.34	23326
836.478	23364
836.615	23265
836.753	23474
836.891	23417
837.029	23330
837.167	23242
837.305	23265
837.443	23147
837.58	23071
837.718	23315
837.856	23136
837.993	22999
838.131	23303
838.269	22938
838.406	23067
838.544	22896
838.681	22809
838.819	22801
838.956	22660
839.094	22645
839.231	22710
839.369	22721
839.506	23022
839.643	22634
839.781	22569
839.918	22481
840.055	22675
840.193	22637
840.33	22485
840.467	22645
840.604	22649
840.742	22755
840.879	22394
841.016	22516
841.153	22405
841.29	22542
841.427	22626
841.564	22577
841.701	22535
841.838	22489
841.975	22390
842.112	22481
842.249	22470
842.385	22303
842.522	22653
842.659	22329
842.796	22306
842.933	22432
843.069	22188
843.206	22246
843.343	22299
843.479	22360
843.616	22344
843.752	22204
843.889	21979
844.025	22265
844.162	22093
844.298	22207
844.435	22040
844.571	22059
844.708	22086
844.844	22249
844.98	22158
845.117	22128
845.253	21949
845.389	21915
845.525	21979
845.661	21998
845.798	21865
845.934	21884
846.07	21857
846.206	21850
846.342	22002
846.478	21778
846.614	21545
846.75	21447
846.886	21504
847.022	21652
847.158	21595
847.294	21606
847.429	21591
847.565	21492
847.701	21850
847.837	21283
847.972	21298
848.108	21363
848.244	21306
848.379	21173
848.515	21135
848.65	21203
848.786	21233
848.921	21062
849.057	21412
849.192	21283
849.328	21207
849.463	21157
849.598	21081
849.734	20979
849.869	20998
850.004	20880
850.14	20876
850.275	20925
850.41	20804
850.545	20914
850.68	20963
850.815	20937
850.95	20982
851.085	21195
851.22	21009
851.355	20971
851.49	20941
851.625	20887
851.76	20845
851.895	20902
852.03	20781
852.165	20899
852.299	20826
852.434	21058
852.569	20998
852.703	20887
852.838	20994
852.973	21146
853.107	21043
853.242	20842
853.376	20781
853.511	20796
853.645	20758
853.78	20921
853.914	20826
854.048	20758
854.183	20781
854.317	20842
854.451	20975
854.585	20773
854.72	20765
854.854	20929
854.988	20720
855.122	20872
855.256	20670
855.39	20712
855.524	20765
855.658	20830
855.792	20743
855.926	20762
856.06	20746
856.194	20880
856.327	20724
856.461	20606
856.595	20788
856.729	20724
856.862	20800
856.996	20781
857.13	20815
857.263	20868
857.397	20819
857.53	20826
857.664	20838
857.797	20925
857.931	20914
858.064	20804
858.197	20807
858.331	20781
858.464	20667
858.597	20705
858.731	20887
858.864	20739
858.997	20712
859.13	20735
859.263	20659
859.396	20769
859.529	20796
859.662	20735
859.795	20678
859.928	20648
860.061	20960
860.194	21013
860.327	20853
860.46	20670
860.592	20811
860.725	20876
860.858	20864
860.99	20746
861.123	20667
861.256	20739
861.388	20750
861.521	21317
861.653	20526
861.786	20549
861.918	20629
862.05	20769
862.183	20670
862.315	20648
862.447	20743
862.58	20568
862.712	20499
862.844	20488
862.976	20541
863.108	20511
863.24	20921
863.372	20454
863.504	20590
863.636	20450
863.768	20507
863.9	20488
864.032	20336
864.164	20358
864.296	20415
864.428	20457
864.559	20476
864.691	20503
864.823	20400
864.954	20484
865.086	20374
865.217	20450
865.349	20324
865.48	20438
865.612	20347
865.743	20526
865.875	20423
866.006	20351
866.137	20377
866.269	20358
866.4	20267
866.531	20252
866.662	20339
866.793	20256
866.924	20332
867.055	20358
867.186	20320
867.317	20202
867.448	20237
867.579	20393
867.71	20256
867.841	20138
867.972	20362
868.103	20256
868.233	20221
868.364	20381
868.495	20351
868.625	20571
868.756	20571
868.886	20469
869.017	20545
869.147	20682
869.278	20769
869.408	20606
869.539	20640
869.669	20655
869.799	20598
869.929	20545
870.06	20659
870.19	20952
870.32	20845
870.45	20921
870.58	20861
870.71	20967
870.84	20952
870.97	20899
871.1	20914
871.23	21154
871.36	21142
871.489	21020
871.619	21138
871.749	21180
871.879	21207
872.008	21237
872.138	21203
872.267	21157
872.397	21009
872.526	21036
872.656	21081
872.785	21100
872.915	21184
873.044	21279
873.173	21165
873.303	21192
873.432	21222
873.561	21283
873.69	21310
873.819	21093
873.948	21272
874.077	21355
874.206	21188
874.335	21085
874.464	21230
874.593	21416
874.722	21416
874.851	21504
874.979	21401
875.108	21443
875.237	21477
875.365	21329
875.494	21412
875.623	21477
875.751	21447
875.88	21386
876.008	21568
876.136	21572
876.265	21770
876.393	21987
876.521	21854
876.65	21846
876.778	21759
876.906	21759
877.034	21755
877.162	21739
877.29	21728
877.418	21736
877.546	21831
877.674	21831
877.802	21736
877.93	21762
878.058	21724
878.185	21641
878.313	21694
878.441	21679
878.568	21515
878.696	21705
878.824	21713
878.951	21846
879.079	21842
879.206	22082
879.333	21941
879.461	21770
879.588	21835
879.715	21949
879.842	22059
879.97	21884
880.097	21595
880.224	21564
880.351	21629
880.478	21705
880.605	21519
880.732	21583
880.859	21751
880.986	21587
881.112	21526
881.239	21431
881.366	21439
881.493	21306
881.619	21165
881.746	21173
881.872	21275
881.999	21291
882.125	21100
882.252	21241
882.378	21119
882.505	21233
882.631	20967
882.757	20857
882.883	21005
883.01	20861
883.136	20849
883.262	20678
883.388	20689
883.514	20857
883.64	20849
883.766	20746
883.892	20670
884.018	20613
884.143	20754
884.269	20963
884.395	20598
884.52	20450
884.646	20575
884.772	20484
884.897	20446
885.023	20514
885.148	20579
885.274	20503
885.399	20621
885.524	20587
885.65	20514
885.775	20419
885.9	20499
886.025	20693
886.15	20575
886.275	20587
886.4	20377
886.525	20461
886.65	20450
886.775	20336
886.9	20602
887.025	20644
887.149	20499
887.274	20142
887.399	20301
887.523	20309
887.648	20218
887.773	20320
887.897	20488
888.021	20362
888.146	20336
888.27	20431
888.395	20370
888.519	20351
888.643	20396
888.767	20366
888.891	20252
889.015	20176
889.139	20096
889.263	20084
889.387	20122
889.511	20362
889.635	20210
889.759	20054
889.883	20054
890.006	20119
890.13	20153
890.254	19989
890.377	20050
890.501	19830
890.624	19871
890.748	19997
890.871	19620
890.995	19677
891.118	19590
891.241	19750
891.364	19597
891.488	19871
891.611	19552
891.734	19700
891.857	19719
891.98	19582
892.103	19723
892.226	19712
892.349	19647
892.471	19350
892.594	19559
892.717	19693
892.839	19571
892.962	19639
893.085	19635
893.207	19540
893.33	19502
893.452	19419
893.575	19567
893.697	19552
893.819	19788
893.941	19693
894.064	19742
894.186	19616
894.308	19476
894.43	19521
894.552	19643
894.674	19738
894.796	19556
894.918	19548
895.04	19540
895.161	19597
895.283	19609
895.405	19495
895.526	19510
895.648	19708
895.769	19681
895.891	19666
896.012	19696
896.134	19639
896.255	19662
896.376	19620
896.498	19559
896.619	19597
896.74	19677
896.861	19559
896.982	19989
897.103	20145
897.224	19868
897.345	19845
897.466	19814
897.587	19833
897.708	19902
897.828	19894
897.949	19788
898.07	19700
898.19	19814
898.311	19921
898.431	19826
898.552	19822
898.672	19898
898.792	19993
898.913	19826
899.033	19803
899.153	19700
899.273	19544
899.393	19605
899.513	19666
899.633	19719
899.753	19548
899.873	19586
899.993	19487
900.113	19411
900.232	19582
900.352	19457
900.472	19491
900.591	19411
900.711	19400
900.83	19369
900.95	19529
901.069	19499
901.189	19168
901.308	19000
901.427	19000
901.546	19080
901.665	19023
901.784	18966
901.904	18882
902.023	18875
902.141	18601
902.26	18551
902.379	18547
902.498	18479
902.617	18441
902.735	18635
902.854	18486
902.973	18433
903.091	18258
903.21	18148
903.328	18182
903.446	18064
903.565	17893
903.683	18038
903.801	17885
903.919	17973
904.038	17942
904.156	17691
904.274	17794
904.392	17642
904.51	17676
904.627	17771
904.745	17764
904.863	17824
904.981	17414
905.098	17474
905.216	17326
905.334	17505
905.451	17387
905.569	17356
905.686	17455
905.803	17436
905.921	17193
906.038	17280
906.155	17273
906.272	17143
906.389	17071
906.506	17060
906.623	17003
906.74	16820
906.857	16965
906.974	16835
907.091	16961
907.208	17102
907.324	17014
907.441	16862
907.557	16759
907.674	16683
907.79	16656
907.907	16702
908.023	16725
908.139	16550
908.256	16630
908.372	16554
908.488	16474
908.604	16500
908.72	16333
908.836	16375
908.952	16421
909.068	16417
909.184	16535
909.3	16462
909.415	16421
909.531	16394
909.647	16139
909.762	16105
909.878	16112
909.993	16204
910.108	16154
910.224	16101
910.339	16166
910.454	16044
910.57	15884
910.685	15949
910.8	16192
910.915	16074
911.03	15892
911.145	15682
911.259	15686
911.374	15728
911.489	15701
911.604	15603
911.718	15500
911.833	15629
911.947	15321
912.062	15291
912.176	15496
912.291	15545
912.405	15591
912.519	15675
912.633	15629
912.748	15500
912.862	15454
912.976	15359
913.09	15214
913.204	15287
913.318	15233
913.431	15359
913.545	15386
913.659	15302
913.772	15241
913.886	15157
914	15093
914.113	15131
914.226	15233
914.34	15157
914.453	14960
914.566	15123
914.68	14979
914.793	14891
914.906	14861
915.019	14678
915.132	14712
915.245	14697
915.358	14762
915.47	14785
915.583	14689
915.696	14754
915.809	14777
915.921	14815
916.034	14701
916.146	14705
916.259	14621
916.371	14667
916.483	14651
916.595	14526
916.708	14454
916.82	14575
916.932	14499
917.044	14476
917.156	14457
917.268	14286
917.38	14355
917.491	14431
917.603	14431
917.715	14499
917.826	14442
917.938	14301
918.049	14233
918.161	14324
918.272	14393
918.384	14571
918.495	14339
918.606	14161
918.717	14202
918.828	14180
918.939	14244
919.05	14103
919.161	14081
919.272	13947
919.383	14016
919.494	14225
919.604	14389
919.715	14183
919.826	13932
919.936	14126
920.047	14221
920.157	14119
920.267	14240
920.378	14202
920.488	14100
920.598	14240
920.708	14434
920.818	14233
920.928	14221
921.038	14362
921.148	14408
921.258	14073
921.368	13925
921.477	13928
921.587	13837
921.697	13803
921.806	13894
921.916	13727
922.025	13537
922.134	13620
922.244	13510
922.353	13616
922.462	13396
922.571	13392
922.68	13232
922.789	13137
922.898	13114
923.007	13187
923.116	13217
923.224	13217
923.333	13061
923.442	12939
923.55	13000
923.659	13050
923.767	13050
923.876	12981
923.984	12981
924.092	12825
924.201	12996
924.309	12913
924.417	12913
924.525	12932
924.633	12882
924.741	13887
924.849	12684
924.956	12821
925.064	12658
925.172	12540
925.279	12521
925.387	12650
925.494	12673
925.602	12677
925.709	12639
925.816	12585
925.924	12551
926.031	12646
926.138	12578
926.245	12597
926.352	12395
926.459	12616
926.566	12722
926.673	12414
926.779	12327
926.886	12300
926.993	12182
927.099	12190
927.206	12133
927.312	12060
927.419	12304
927.525	12171
927.631	12144
927.737	12083
927.843	12030
927.95	11980
928.056	11973
928.162	12007
928.267	12095
928.373	12616
928.479	12049
928.585	11958
928.69	11935
928.796	12053
928.901	11901
929.007	11668
929.112	11958
929.218	11847
929.323	11798
929.428	11733
929.533	11961
929.638	11668
929.743	11718
929.848	11691
929.953	11630
930.058	11653
930.163	11505
930.267	11455
930.372	11535
930.477	11398
930.581	11680
930.685	11486
930.79	11356
930.894	11402
930.998	11337
931.103	11414
931.207	11185
931.311	11033
931.415	10923
931.519	10736
931.623	10714
