Data from test_V78500241_264.txt Node
Date: Fri Mar 25 15:43:37 CST 2022
User: usil
Spectrometer: V785-0024
Trigger mode: 0
Integration Time (sec): 4.000000E-1
Scans to average: 1
Nonlinearity correction enabled: false
Boxcar width: 0
Storing dark spectrum: false
XAxis mode: Wavelengths
Number of Pixels in Spectrum: 1024
>>>>>Begin Spectral Data<<<<<
801.071	29843
801.214	29649
801.356	29478
801.499	29398
801.641	29398
801.783	29512
801.926	29398
802.068	29375
802.211	29417
802.353	29181
802.496	29140
802.638	29060
802.78	29075
802.923	29029
803.065	28915
803.208	28904
803.35	29041
803.492	29098
803.635	29246
803.777	29170
803.919	29136
804.061	29577
804.204	29212
804.346	29124
804.488	28991
804.63	29109
804.773	29105
804.915	29162
805.057	29311
805.199	29193
805.341	29117
805.483	29383
805.626	29284
805.768	29280
805.91	29181
806.052	29341
806.194	29185
806.336	29630
806.478	29436
806.62	29265
806.762	29596
806.904	29573
807.046	29764
807.188	29676
807.33	29885
807.472	29817
807.614	29627
807.756	29554
807.898	29581
808.04	29410
808.182	29360
808.324	29562
808.465	29608
808.607	29630
808.749	29859
808.891	30133
809.033	30034
809.174	29855
809.316	29855
809.458	30045
809.6	29973
809.741	29969
809.883	30129
810.025	30243
810.166	30281
810.308	30121
810.45	30209
810.591	30136
810.733	29973
810.875	29790
811.016	29805
811.158	29851
811.299	29984
811.441	30022
811.582	30026
811.724	29813
811.865	29870
812.007	29840
812.148	29878
812.29	30003
812.431	30030
812.573	30277
812.714	30266
812.855	30353
812.997	30661
813.138	30608
813.279	30559
813.421	30448
813.562	30467
813.703	30049
813.845	30117
813.986	29942
814.127	29748
814.268	29573
814.41	29661
814.551	29516
814.692	29638
814.833	29539
814.974	29490
815.115	29585
815.256	29429
815.397	29364
815.539	29516
815.68	29288
815.821	29391
815.962	29452
816.103	29307
816.244	29197
816.385	29136
816.526	29075
816.666	28888
816.807	28744
816.948	28892
817.089	28904
817.23	28801
817.371	28820
817.512	28831
817.653	28782
817.793	28683
817.934	28767
818.075	28713
818.216	28911
818.356	28649
818.497	28641
818.638	28398
818.778	28375
818.919	28580
819.06	28424
819.2	28618
819.341	28668
819.481	28744
819.622	28946
819.762	28927
819.903	28797
820.043	28839
820.184	28866
820.324	28919
820.465	28801
820.605	28767
820.746	28946
820.886	28641
821.026	28733
821.167	28584
821.307	28816
821.447	28710
821.588	28569
821.728	28497
821.868	28363
822.008	28310
822.149	27956
822.289	28124
822.429	27766
822.569	27823
822.709	27918
822.849	27576
822.99	27633
823.13	27686
823.27	27504
823.41	27351
823.55	27287
823.69	27279
823.83	27496
823.97	27351
824.11	27233
824.25	27222
824.389	27119
824.529	27272
824.669	27165
824.809	27382
824.949	27123
825.089	27291
825.228	27176
825.368	27051
825.508	26918
825.648	27047
825.787	27089
825.927	27222
826.067	27017
826.206	27013
826.346	27043
826.485	27077
826.625	27135
826.765	27108
826.904	27188
827.044	26826
827.183	26777
827.323	26788
827.462	26773
827.601	26731
827.741	26670
827.88	26739
828.02	26682
828.159	26526
828.298	26708
828.437	26754
828.577	26769
828.716	26769
828.855	26682
828.994	26438
829.134	26488
829.273	26556
829.412	26507
829.551	26336
829.69	26336
829.829	26389
829.968	26514
830.107	26492
830.246	26461
830.385	26415
830.524	26153
830.663	26248
830.802	26122
830.941	25955
831.08	26024
831.219	26111
831.357	26100
831.496	26248
831.635	25875
831.774	25791
831.913	25951
832.051	25833
832.19	25525
832.329	25757
832.467	25616
832.606	25643
832.744	25605
832.883	25521
833.022	25552
833.16	25594
833.299	25693
833.437	25632
833.576	25712
833.714	25601
833.852	25712
833.991	25609
834.129	25704
834.267	25685
834.406	25689
834.544	25685
834.682	25506
834.821	25586
834.959	25776
835.097	25544
835.235	25761
835.373	25700
835.511	25571
835.65	25544
835.788	25476
835.926	25350
836.064	25259
836.202	25304
836.34	25483
836.478	25537
836.615	25388
836.753	25419
836.891	25590
837.029	25343
837.167	25365
837.305	25369
837.443	25339
837.58	25187
837.718	25327
837.856	25301
837.993	25346
838.131	25278
838.269	25171
838.406	25027
838.544	25183
838.681	24939
838.819	24802
838.956	24783
839.094	24627
839.231	24700
839.369	24787
839.506	24970
839.643	24913
839.781	24658
839.918	24692
840.055	24669
840.193	24521
840.33	24479
840.467	24669
840.604	24616
840.742	24840
840.879	24426
841.016	24483
841.153	24296
841.29	24642
841.427	24505
841.564	24536
841.701	24566
841.838	24483
841.975	24445
842.112	24604
842.249	24403
842.385	24292
842.522	24544
842.659	24338
842.796	24239
842.933	24346
843.069	24053
843.206	24144
843.343	24258
843.479	24220
843.616	24285
843.752	23980
843.889	23996
844.025	24174
844.162	24015
844.298	24057
844.435	23984
844.571	23920
844.708	24011
844.844	24098
844.98	24064
845.117	24136
845.253	23973
845.389	23783
845.525	23950
845.661	23726
845.798	23623
845.934	23817
846.07	23558
846.206	23687
846.342	23691
846.478	23672
846.614	23391
846.75	23387
846.886	23307
847.022	23490
847.158	23379
847.294	23452
847.429	23448
847.565	23311
847.701	23627
847.837	23136
847.972	23037
848.108	23246
848.244	23155
848.379	23048
848.515	23090
848.65	22839
848.786	22923
848.921	22953
849.057	23052
849.192	22934
849.328	23052
849.463	23003
849.598	22866
849.734	22843
849.869	22790
850.004	22683
850.14	22858
850.275	22767
850.41	22641
850.545	22538
850.68	22687
850.815	22622
850.95	22615
851.085	22885
851.22	22915
851.355	22740
851.49	22687
851.625	22653
851.76	22649
851.895	22603
852.03	22599
852.165	22755
852.299	22630
852.434	22706
852.569	22672
852.703	22622
852.838	22782
852.973	22809
853.107	22733
853.242	22565
853.376	22618
853.511	22371
853.645	22459
853.78	22653
853.914	22550
854.048	22371
854.183	22474
854.317	22470
854.451	22774
854.585	22504
854.72	22500
854.854	22527
854.988	22443
855.122	22470
855.256	22356
855.39	22512
855.524	22538
855.658	22447
855.792	22554
855.926	22462
856.06	22554
856.194	22641
856.327	22523
856.461	22371
856.595	22402
856.729	22459
856.862	22580
856.996	22535
857.13	22481
857.263	22584
857.397	22618
857.53	22421
857.664	22592
857.797	22538
857.931	22561
858.064	22390
858.197	22687
858.331	22424
858.464	22352
858.597	22413
858.731	22424
858.864	22322
858.997	22318
859.13	22462
859.263	22409
859.396	22538
859.529	22432
859.662	22459
859.795	22394
859.928	22462
860.061	22580
860.194	22611
860.327	22508
860.46	22451
860.592	22584
860.725	22725
860.858	22527
860.99	22421
861.123	22421
861.256	22405
861.388	22500
861.521	23170
861.653	22356
861.786	22234
861.918	22322
862.05	22504
862.183	22276
862.315	22519
862.447	22455
862.58	22382
862.712	22135
862.844	22158
862.976	22166
863.108	22177
863.24	22565
863.372	22074
863.504	22112
863.636	22147
863.768	22131
863.9	22082
864.032	21911
864.164	22150
864.296	22223
864.428	22162
864.559	22219
864.691	22238
864.823	22173
864.954	22074
865.086	22150
865.217	22006
865.349	22017
865.48	22078
865.612	22025
865.743	22059
865.875	22021
866.006	21915
866.137	22010
866.269	22036
866.4	22131
866.531	22067
866.662	21915
866.793	21934
866.924	21907
867.055	21926
867.186	21869
867.317	21953
867.448	21842
867.579	21922
867.71	21865
867.841	21774
867.972	21869
868.103	21884
868.233	21918
868.364	21930
868.495	21979
868.625	22120
868.756	22238
868.886	22093
869.017	22090
869.147	22059
869.278	22284
869.408	22215
869.539	22204
869.669	22192
869.799	22177
869.929	22363
870.06	22261
870.19	22329
870.32	22390
870.45	22455
870.58	22538
870.71	22675
870.84	22618
870.97	22462
871.1	22512
871.23	22702
871.36	22755
871.489	22523
871.619	22645
871.749	22710
871.879	22748
872.008	22881
872.138	22645
872.267	22828
872.397	22588
872.526	22519
872.656	22569
872.785	22455
872.915	22809
873.044	22805
873.173	22831
873.303	22774
873.432	22862
873.561	22828
873.69	22828
873.819	22786
873.948	22812
874.077	22664
874.206	22645
874.335	22683
874.464	22911
874.593	22930
874.722	23044
874.851	22904
874.979	22999
875.108	23132
875.237	23067
875.365	22896
875.494	22881
875.623	23025
875.751	22976
875.88	22987
876.008	23067
876.136	23170
876.265	23307
876.393	23398
876.521	23471
876.65	23436
876.778	23379
876.906	23398
877.034	23254
877.162	23345
877.29	23200
877.418	23284
877.546	23376
877.674	23284
877.802	23277
877.93	23337
878.058	23277
878.185	23315
878.313	23273
878.441	23235
878.568	23269
878.696	23269
878.824	23220
878.951	23353
879.079	23383
879.206	23463
879.333	23391
879.461	23341
879.588	23398
879.715	23573
879.842	23531
879.97	23364
880.097	23223
880.224	23155
880.351	23250
880.478	23109
880.605	23029
880.732	23109
880.859	23455
880.986	23178
881.112	23124
881.239	23079
881.366	22850
881.493	22786
881.619	22615
881.746	22839
881.872	22675
881.999	22637
882.125	22637
882.252	22679
882.378	22729
882.505	22889
882.631	22630
882.757	22519
882.883	22417
883.01	22459
883.136	22318
883.262	22249
883.388	22143
883.514	22398
883.64	22352
883.766	22280
883.892	22177
884.018	22207
884.143	22436
884.269	22436
884.395	22166
884.52	22078
884.646	21998
884.772	21934
884.897	22032
885.023	22036
885.148	22006
885.274	22158
885.399	22188
885.524	22082
885.65	22143
885.775	22017
885.9	21975
886.025	22006
886.15	22101
886.275	21964
886.4	21819
886.525	22040
886.65	21903
886.775	21964
886.9	22185
887.025	22287
887.149	21975
887.274	21899
887.399	21766
887.523	21648
887.648	21778
887.773	21682
887.897	21819
888.021	21911
888.146	21759
888.27	21770
888.395	21789
888.519	21770
888.643	21766
888.767	21778
888.891	21599
889.015	21561
889.139	21580
889.263	21485
889.387	21656
889.511	21618
889.635	21686
889.759	21469
889.883	21526
890.006	21603
890.13	21488
890.254	21454
890.377	21492
890.501	21245
890.624	21241
890.748	21370
890.871	21116
890.995	21203
891.118	20963
891.241	21142
891.364	21108
891.488	21043
891.611	21089
891.734	21157
891.857	21085
891.98	21154
892.103	21207
892.226	21096
892.349	21036
892.471	20899
892.594	21062
892.717	21009
892.839	21005
892.962	21024
893.085	21116
893.207	20887
893.33	20918
893.452	20853
893.575	20982
893.697	21017
893.819	21051
893.941	21150
894.064	21001
894.186	20883
894.308	20887
894.43	21150
894.552	21058
894.674	20979
894.796	20902
894.918	20872
895.04	20872
895.161	21070
895.283	21013
895.405	20883
895.526	20963
895.648	20792
895.769	20994
895.891	21017
896.012	20906
896.134	21157
896.255	21009
896.376	20975
896.498	21043
896.619	21161
896.74	20952
896.861	21070
896.982	21378
897.103	21412
897.224	21245
897.345	21173
897.466	21192
897.587	21176
897.708	21306
897.828	21237
897.949	21226
898.07	21096
898.19	21100
898.311	21226
898.431	21074
898.552	21203
898.672	21226
898.792	21195
898.913	21127
899.033	21119
899.153	20986
899.273	20769
899.393	20979
899.513	20960
899.633	20925
899.753	20899
899.873	20807
899.993	20925
900.113	20746
900.232	20834
900.352	20670
900.472	20670
900.591	20602
900.711	20568
900.83	20598
900.95	20746
901.069	20796
901.189	20549
901.308	20427
901.427	20210
901.546	20168
901.665	20286
901.784	20218
901.904	20001
902.023	19928
902.141	19845
902.26	19814
902.379	19727
902.498	19753
902.617	19594
902.735	19731
902.854	19537
902.973	19609
903.091	19285
903.21	19457
903.328	19346
903.446	19312
903.565	19217
903.683	19129
903.801	19023
903.919	19129
904.038	19084
904.156	18951
904.274	19012
904.392	18954
904.51	18935
904.627	18779
904.745	18939
904.863	18852
904.981	18585
905.098	18547
905.216	18589
905.334	18540
905.451	18620
905.569	18433
905.686	18585
905.803	18578
905.921	18342
906.038	18448
906.155	18407
906.272	18167
906.389	18315
906.506	18102
906.623	17980
906.74	18026
906.857	18038
906.974	17980
907.091	18114
907.208	18171
907.324	18144
907.441	18003
907.557	17840
907.674	17695
907.79	17680
907.907	17722
908.023	17775
908.139	17745
908.256	17684
908.372	17726
908.488	17623
908.604	17471
908.72	17512
908.836	17433
908.952	17501
909.068	17398
909.184	17661
909.3	17398
909.415	17551
909.531	17345
909.647	17140
909.762	17147
909.878	17102
909.993	17155
910.108	17189
910.224	17067
910.339	17151
910.454	17029
910.57	16896
910.685	16885
910.8	17121
910.915	17056
911.03	16862
911.145	16862
911.259	16679
911.374	16740
911.489	16538
911.604	16538
911.718	16523
911.833	16462
911.947	16428
912.062	16424
912.176	16447
912.291	16493
912.405	16371
912.519	16675
912.633	16653
912.748	16421
912.862	16394
912.976	16246
913.09	16044
913.204	16242
913.318	16238
913.431	16375
913.545	16314
913.659	16455
913.772	16287
913.886	16128
914	15991
914.113	16147
914.226	16112
914.34	16135
914.453	15922
914.566	16082
914.68	15991
914.793	15907
914.906	15686
915.019	15633
915.132	15625
915.245	15580
915.358	15663
915.47	15610
915.583	15477
915.696	15618
915.809	15778
915.921	15732
916.034	15690
916.146	15538
916.259	15564
916.371	15572
916.483	15629
916.595	15401
916.708	15382
916.82	15401
916.932	15363
917.044	15351
917.156	15408
917.268	15233
917.38	15287
917.491	15207
917.603	15260
917.715	15378
917.826	15401
917.938	15180
918.049	15108
918.161	15233
918.272	15363
918.384	15249
918.495	15188
918.606	15020
918.717	15001
918.828	14952
918.939	15013
919.05	14883
919.161	14994
919.272	14853
919.383	14834
919.494	14941
919.604	15085
919.715	14952
919.826	14876
919.936	14914
920.047	14925
920.157	14921
920.267	15131
920.378	14929
920.488	14937
920.598	15074
920.708	15306
920.818	15058
920.928	15028
921.038	15176
921.148	15058
921.258	14899
921.368	14807
921.477	14579
921.587	14590
921.697	14575
921.806	14693
921.916	14560
922.025	14267
922.134	14339
922.244	14233
922.353	14313
922.462	14134
922.571	14096
922.68	13849
922.789	13932
922.898	13982
923.007	13898
923.116	13921
923.224	13875
923.333	13849
923.442	13715
923.55	13811
923.659	13826
923.767	13761
923.876	13628
923.984	13887
924.092	13575
924.201	13636
924.309	13609
924.417	13613
924.525	13506
924.633	13487
924.741	14320
924.849	13411
924.956	13506
925.064	13289
925.172	13331
925.279	13331
925.387	13331
925.494	13320
925.602	13464
925.709	13377
925.816	13225
925.924	13232
926.031	13331
926.138	13187
926.245	13304
926.352	13065
926.459	13225
926.566	13304
926.673	13099
926.779	12989
926.886	12996
926.993	12916
927.099	12905
927.206	12852
927.312	12741
927.419	12882
927.525	12787
927.631	12848
927.737	12738
927.843	12684
927.95	12582
928.056	12563
928.162	12741
928.267	12779
928.373	13400
928.479	12840
928.585	12483
928.69	12551
928.796	12585
928.901	12494
929.007	12296
929.112	12551
929.218	12574
929.323	12426
929.428	12384
929.533	12532
929.638	12251
929.743	12395
929.848	12467
929.953	12300
930.058	12266
930.163	12072
930.267	12068
930.372	12270
930.477	12041
930.581	12277
930.685	12136
930.79	11931
930.894	11977
930.998	11866
931.103	12057
931.207	11771
931.311	11615
931.415	11497
931.519	11201
931.623	11326
