Data from test_V78500241_1846.txt Node
Date: Fri Mar 25 15:54:35 CST 2022
User: usil
Spectrometer: V785-0024
Trigger mode: 0
Integration Time (sec): 4.000000E-1
Scans to average: 1
Nonlinearity correction enabled: false
Boxcar width: 0
Storing dark spectrum: false
XAxis mode: Wavelengths
Number of Pixels in Spectrum: 1024
>>>>>Begin Spectral Data<<<<<
801.071	28329
801.214	28375
801.356	28280
801.499	28135
801.641	27949
801.783	28010
801.926	27956
802.068	27884
802.211	27766
802.353	27895
802.496	27694
802.638	27663
802.78	27713
802.923	27606
803.065	27530
803.208	27622
803.35	27671
803.492	27785
803.635	27800
803.777	27698
803.919	27831
804.061	28147
804.204	27941
804.346	27789
804.488	27770
804.63	27869
804.773	27968
804.915	27968
805.057	28021
805.199	27953
805.341	27956
805.483	28105
805.626	28021
805.768	27774
805.91	28029
806.052	28120
806.194	27953
806.336	28322
806.478	28078
806.62	28029
806.762	28284
806.904	28249
807.046	28672
807.188	28295
807.33	28413
807.472	28599
807.614	28535
807.756	28729
807.898	28329
808.04	28257
808.182	28211
808.324	28538
808.465	28421
808.607	28504
808.749	28809
808.891	28854
809.033	28869
809.174	28656
809.316	28782
809.458	28641
809.6	28675
809.741	28782
809.883	28824
810.025	28984
810.166	28850
810.308	29044
810.45	28957
810.591	28908
810.733	28831
810.875	28656
811.016	28611
811.158	28622
811.299	28824
811.441	28919
811.582	28828
811.724	28710
811.865	28767
812.007	28679
812.148	28691
812.29	28809
812.431	28828
812.573	29136
812.714	29292
812.855	29166
812.997	29284
813.138	29478
813.279	29383
813.421	29254
813.562	29220
813.703	29052
813.845	28946
813.986	28767
814.127	28493
814.268	28417
814.41	28390
814.551	28474
814.692	28656
814.833	28417
814.974	28333
815.115	28401
815.256	28310
815.397	28276
815.539	28299
815.68	28188
815.821	28284
815.962	28261
816.103	28253
816.244	28162
816.385	27991
816.526	27972
816.666	27804
816.807	27728
816.948	27762
817.089	27876
817.23	27694
817.371	27739
817.512	27808
817.653	27739
817.793	27561
817.934	27675
818.075	27682
818.216	27778
818.356	27869
818.497	27625
818.638	27416
818.778	27557
818.919	27481
819.06	27481
819.2	27515
819.341	27956
819.481	27591
819.622	27892
819.762	28109
819.903	27930
820.043	28013
820.184	27812
820.324	27831
820.465	28013
820.605	27812
820.746	27892
820.886	27652
821.026	27759
821.167	27797
821.307	27876
821.447	27671
821.588	27564
821.728	27477
821.868	27256
822.008	27180
822.149	27104
822.289	27119
822.429	26785
822.569	26956
822.709	26887
822.849	26807
822.99	26845
823.13	26663
823.27	26765
823.41	26412
823.55	26286
823.69	26514
823.83	26450
823.97	26552
824.11	26298
824.25	26305
824.389	26396
824.529	26526
824.669	26396
824.809	26419
824.949	26526
825.089	26560
825.228	26507
825.368	26218
825.508	26298
825.648	26263
825.787	26404
825.927	26332
826.067	26187
826.206	26172
826.346	26320
826.485	26221
826.625	26309
826.765	26313
826.904	26400
827.044	25890
827.183	26035
827.323	25925
827.462	25921
827.601	26001
827.741	25986
827.88	25963
828.02	25826
828.159	25959
828.298	25845
828.437	25936
828.577	25837
828.716	26103
828.855	25769
828.994	25731
829.134	25605
829.273	25750
829.412	25693
829.551	25655
829.69	25616
829.829	25700
829.968	25590
830.107	25723
830.246	25575
830.385	25529
830.524	25392
830.663	25483
830.802	25354
830.941	25316
831.08	25198
831.219	25274
831.357	25168
831.496	25343
831.635	25168
831.774	25148
831.913	25126
832.051	25061
832.19	25076
832.329	25129
832.467	24992
832.606	24924
832.744	24886
832.883	24837
833.022	24932
833.16	24958
833.299	25091
833.437	24913
833.576	24996
833.714	25129
833.852	24996
833.991	24989
834.129	24962
834.267	25133
834.406	25080
834.544	24920
834.682	24882
834.821	24886
834.959	25114
835.097	24871
835.235	25122
835.373	25031
835.511	25015
835.65	24787
835.788	24749
835.926	24810
836.064	24616
836.202	24711
836.34	24722
836.478	24916
836.615	24901
836.753	24833
836.891	24795
837.029	24863
837.167	24779
837.305	24665
837.443	24715
837.58	24665
837.718	24642
837.856	24654
837.993	24525
838.131	24612
838.269	24486
838.406	24555
838.544	24547
838.681	24224
838.819	24251
838.956	24159
839.094	24068
839.231	24159
839.369	24365
839.506	24456
839.643	24247
839.781	24034
839.918	24030
840.055	23999
840.193	24129
840.33	23950
840.467	24098
840.604	24087
840.742	24376
840.879	23855
841.016	23984
841.153	23912
841.29	24148
841.427	23893
841.564	23969
841.701	23961
841.838	23935
841.975	23980
842.112	23878
842.249	23901
842.385	23756
842.522	23923
842.659	23752
842.796	23786
842.933	23745
843.069	23771
843.206	23741
843.343	23813
843.479	23866
843.616	23729
843.752	23570
843.889	23573
844.025	23642
844.162	23471
844.298	23524
844.435	23478
844.571	23608
844.708	23573
844.844	23752
844.98	23817
845.117	23684
845.253	23516
845.389	23417
845.525	23448
845.661	23372
845.798	23223
845.934	23311
846.07	23299
846.206	23265
846.342	23341
846.478	23159
846.614	23025
846.75	22942
846.886	23044
847.022	23033
847.158	22930
847.294	22957
847.429	23014
847.565	22923
847.701	23227
847.837	22687
847.972	22622
848.108	22908
848.244	22713
848.379	22622
848.515	22660
848.65	22523
848.786	22710
848.921	22573
849.057	22660
849.192	22615
849.328	22584
849.463	22706
849.598	22550
849.734	22519
849.869	22341
850.004	22318
850.14	22344
850.275	22325
850.41	22226
850.545	22329
850.68	22375
850.815	22402
850.95	22268
851.085	22554
851.22	22440
851.355	22386
851.49	22322
851.625	22344
851.76	22356
851.895	22223
852.03	22314
852.165	22413
852.299	22322
852.434	22447
852.569	22462
852.703	22337
852.838	22379
852.973	22440
853.107	22493
853.242	22363
853.376	22063
853.511	22124
853.645	22116
853.78	22234
853.914	22284
854.048	22093
854.183	22173
854.317	22234
854.451	22341
854.585	22230
854.72	22040
854.854	22196
854.988	22112
855.122	22158
855.256	22124
855.39	22090
855.524	22280
855.658	22150
855.792	22230
855.926	22120
856.06	22139
856.194	22230
856.327	22048
856.461	22150
856.595	22150
856.729	22158
856.862	22234
856.996	22226
857.13	22306
857.263	22280
857.397	22238
857.53	22154
857.664	22010
857.797	22261
857.931	22371
858.064	22124
858.197	22188
858.331	22169
858.464	22074
858.597	22040
858.731	22169
858.864	22162
858.997	22207
859.13	22135
859.263	22188
859.396	22215
859.529	22116
859.662	22147
859.795	22139
859.928	22219
860.061	22272
860.194	22341
860.327	22097
860.46	22207
860.592	22272
860.725	22314
860.858	22226
860.99	22192
861.123	22078
861.256	22063
861.388	22207
861.521	22812
861.653	21934
861.786	21861
861.918	21998
862.05	22002
862.183	22082
862.315	22139
862.447	22090
862.58	22128
862.712	21899
862.844	21800
862.976	21926
863.108	22029
863.24	22219
863.372	21846
863.504	21911
863.636	21846
863.768	21911
863.9	21960
864.032	21793
864.164	21770
864.296	21865
864.428	22048
864.559	21876
864.691	22021
864.823	21778
864.954	21842
865.086	21861
865.217	21812
865.349	21667
865.48	21770
865.612	21755
865.743	21816
865.875	21720
866.006	21690
866.137	21808
866.269	21804
866.4	21705
866.531	21603
866.662	21633
866.793	21671
866.924	21698
867.055	21690
867.186	21720
867.317	21698
867.448	21652
867.579	21644
867.71	21698
867.841	21564
867.972	21690
868.103	21781
868.233	21625
868.364	21648
868.495	21861
868.625	21800
868.756	21918
868.886	21937
869.017	21953
869.147	21994
869.278	21926
869.408	22010
869.539	21903
869.669	22017
869.799	22055
869.929	22055
870.06	22074
870.19	22223
870.32	22196
870.45	22200
870.58	22314
870.71	22417
870.84	22459
870.97	22234
871.1	22360
871.23	22557
871.36	22569
871.489	22512
871.619	22459
871.749	22687
871.879	22679
872.008	22546
872.138	22588
872.267	22588
872.397	22516
872.526	22265
872.656	22386
872.785	22409
872.915	22432
873.044	22641
873.173	22637
873.303	22668
873.432	22557
873.561	22668
873.69	22500
873.819	22615
873.948	22466
874.077	22603
874.206	22459
874.335	22466
874.464	22664
874.593	22755
874.722	22733
874.851	22820
874.979	22748
875.108	22752
875.237	22812
875.365	22672
875.494	22694
875.623	22843
875.751	22755
875.88	22828
876.008	22915
876.136	22953
876.265	23143
876.393	23315
876.521	23284
876.65	23223
876.778	23102
876.906	23102
877.034	23079
877.162	23113
877.29	23079
877.418	23060
877.546	23018
877.674	23079
877.802	23060
877.93	23178
878.058	23086
878.185	23029
878.313	23117
878.441	23018
878.568	23037
878.696	23048
878.824	23204
878.951	23181
879.079	23246
879.206	23376
879.333	23311
879.461	23086
879.588	23250
879.715	23341
879.842	23368
879.97	23178
880.097	22927
880.224	22866
880.351	22972
880.478	22904
880.605	22809
880.732	22923
880.859	23170
880.986	23003
881.112	22957
881.239	22900
881.366	22611
881.493	22641
881.619	22573
881.746	22557
881.872	22588
881.999	22512
882.125	22459
882.252	22554
882.378	22504
882.505	22611
882.631	22348
882.757	22261
882.883	22261
883.01	22284
883.136	22093
883.262	22048
883.388	22086
883.514	22048
883.64	22177
883.766	22128
883.892	21888
884.018	21892
884.143	22010
884.269	22112
884.395	21888
884.52	21751
884.646	21781
884.772	21599
884.897	21644
885.023	21739
885.148	21888
885.274	21869
885.399	21903
885.524	21701
885.65	21953
885.775	21808
885.9	21800
886.025	21953
886.15	21854
886.275	21766
886.4	21663
886.525	21660
886.65	21679
886.775	21747
886.9	21861
887.025	22021
887.149	21713
887.274	21751
887.399	21755
887.523	21595
887.648	21595
887.773	21545
887.897	21576
888.021	21595
888.146	21564
888.27	21686
888.395	21637
888.519	21481
888.643	21595
888.767	21724
888.891	21420
889.015	21268
889.139	21374
889.263	21218
889.387	21504
889.511	21538
889.635	21595
889.759	21405
889.883	21306
890.006	21325
890.13	21291
890.254	21310
890.377	21264
890.501	21127
890.624	21207
890.748	21062
890.871	20990
890.995	20967
891.118	20861
891.241	20815
891.364	20933
891.488	21058
891.611	20811
891.734	20998
891.857	20979
891.98	20796
892.103	20883
892.226	20941
892.349	20701
892.471	20708
892.594	20823
892.717	20765
892.839	20819
892.962	20838
893.085	20857
893.207	20842
893.33	20708
893.452	20788
893.575	20872
893.697	20693
893.819	20910
893.941	20998
894.064	20963
894.186	20777
894.308	20754
894.43	20902
894.552	20845
894.674	20899
894.796	20670
894.918	20796
895.04	20773
895.161	20861
895.283	20800
895.405	20746
895.526	20811
895.648	20743
895.769	20880
895.891	20838
896.012	20876
896.134	21017
896.255	20845
896.376	20739
896.498	20705
896.619	20785
896.74	20777
896.861	20773
896.982	21100
897.103	21370
897.224	21036
897.345	21089
897.466	20929
897.587	21013
897.708	21195
897.828	21032
897.949	20960
898.07	20815
898.19	20906
898.311	21066
898.431	20823
898.552	20826
898.672	21116
898.792	21032
898.913	20918
899.033	20876
899.153	20788
899.273	20796
899.393	20765
899.513	20906
899.633	20697
899.753	20716
899.873	20743
899.993	20754
900.113	20648
900.232	20804
900.352	20621
900.472	20579
900.591	20434
900.711	20552
900.83	20469
900.95	20549
901.069	20507
901.189	20362
901.308	20145
901.427	20084
901.546	20027
901.665	20111
901.784	20161
901.904	19940
902.023	19875
902.141	19746
902.26	19601
902.379	19647
902.498	19597
902.617	19521
902.735	19635
902.854	19540
902.973	19445
903.091	19384
903.21	19343
903.328	19263
903.446	19057
903.565	19114
903.683	18970
903.801	18928
903.919	18966
904.038	18916
904.156	18738
904.274	18844
904.392	18810
904.51	18692
904.627	18821
904.745	18871
904.863	18776
904.981	18604
905.098	18369
905.216	18486
905.334	18540
905.451	18422
905.569	18441
905.686	18422
905.803	18448
905.921	18270
906.038	18369
906.155	18194
906.272	18178
906.389	18270
906.506	17950
906.623	17980
906.74	17992
906.857	17847
906.974	17889
907.091	18076
907.208	18182
907.324	17950
907.441	17897
907.557	17748
907.674	17779
907.79	17649
907.907	17589
908.023	17767
908.139	17710
908.256	17600
908.372	17623
908.488	17554
908.604	17471
908.72	17417
908.836	17551
908.952	17387
909.068	17421
909.184	17539
909.3	17501
909.415	17528
909.531	17406
909.647	17105
909.762	17189
909.878	17155
909.993	17166
910.108	17079
910.224	17105
910.339	17143
910.454	16957
910.57	16984
910.685	16858
910.8	17242
910.915	17090
911.03	16862
911.145	16797
911.259	16793
911.374	16733
911.489	16550
911.604	16641
911.718	16516
911.833	16577
911.947	16440
912.062	16356
912.176	16459
912.291	16394
912.405	16428
912.519	16615
912.633	16668
912.748	16478
912.862	16322
912.976	16306
913.09	16211
913.204	16253
913.318	16280
913.431	16386
913.545	16382
913.659	16371
913.772	16154
913.886	16181
914	16116
914.113	16124
914.226	16150
914.34	16135
914.453	15956
914.566	15987
914.68	16017
914.793	15979
914.906	15679
915.019	15606
915.132	15610
915.245	15629
915.358	15694
915.47	15694
915.583	15656
915.696	15739
915.809	15728
915.921	15724
916.034	15538
916.146	15538
916.259	15420
916.371	15698
916.483	15523
916.595	15431
916.708	15496
916.82	15519
916.932	15447
917.044	15405
917.156	15466
917.268	15336
917.38	15264
917.491	15203
917.603	15325
917.715	15313
917.826	15275
917.938	15245
918.049	15108
918.161	15310
918.272	15344
918.384	15355
918.495	15199
918.606	15119
918.717	15058
918.828	15070
918.939	15047
919.05	14941
919.161	14998
919.272	14826
919.383	14948
919.494	15211
919.604	15260
919.715	14975
919.826	14910
919.936	14906
920.047	15108
920.157	14960
920.267	15131
920.378	14994
920.488	14998
920.598	15104
920.708	15279
920.818	15100
920.928	15135
921.038	15264
921.148	15226
921.258	14941
921.368	14849
921.477	14724
921.587	14769
921.697	14670
921.806	14663
921.916	14670
922.025	14286
922.134	14347
922.244	14309
922.353	14389
922.462	14290
922.571	14210
922.68	13955
922.789	14046
922.898	14058
923.007	13925
923.116	13951
923.224	13936
923.333	13955
923.442	13727
923.55	13757
923.659	13776
923.767	13871
923.876	13864
923.984	13830
924.092	13681
924.201	13700
924.309	13750
924.417	13719
924.525	13734
924.633	13658
924.741	14408
924.849	13400
924.956	13609
925.064	13430
925.172	13346
925.279	13422
925.387	13358
925.494	13384
925.602	13563
925.709	13407
925.816	13358
925.924	13282
926.031	13453
926.138	13358
926.245	13354
926.352	13228
926.459	13396
926.566	13316
926.673	13236
926.779	13175
926.886	13069
926.993	12897
927.099	12878
927.206	12932
927.312	12821
927.419	12947
927.525	12920
927.631	12989
927.737	12806
927.843	12844
927.95	12639
928.056	12715
928.162	12764
928.267	12726
928.373	13362
928.479	12817
928.585	12623
928.69	12673
928.796	12783
928.901	12604
929.007	12525
929.112	12578
929.218	12517
929.323	12452
929.428	12399
929.533	12570
929.638	12376
929.743	12388
929.848	12422
929.953	12372
930.058	12323
930.163	12072
930.267	12273
930.372	12251
930.477	12011
930.581	12353
930.685	12182
930.79	12114
930.894	12068
930.998	11984
931.103	11996
931.207	11737
931.311	11699
931.415	11581
931.519	11425
931.623	11258
