Data from test_V78500241_2736.txt Node
Date: Fri Mar 25 16:00:45 CST 2022
User: usil
Spectrometer: V785-0024
Trigger mode: 0
Integration Time (sec): 4.000000E-1
Scans to average: 1
Nonlinearity correction enabled: false
Boxcar width: 0
Storing dark spectrum: false
XAxis mode: Wavelengths
Number of Pixels in Spectrum: 1024
>>>>>Begin Spectral Data<<<<<
801.071	28748
801.214	28733
801.356	28527
801.499	28432
801.641	28337
801.783	28447
801.926	28363
802.068	28207
802.211	28352
802.353	28105
802.496	28200
802.638	28128
802.78	28025
802.923	27895
803.065	27983
803.208	28070
803.35	28086
803.492	28185
803.635	28310
803.777	28169
803.919	28341
804.061	28656
804.204	28447
804.346	28276
804.488	28306
804.63	28120
804.773	28196
804.915	28287
805.057	28569
805.199	28261
805.341	28489
805.483	28379
805.626	28322
805.768	28401
805.91	28451
806.052	28424
806.194	28394
806.336	28580
806.478	28481
806.62	28466
806.762	28580
806.904	28660
807.046	28957
807.188	28957
807.33	28858
807.472	29132
807.614	28793
807.756	28854
807.898	28786
808.04	28577
808.182	28782
808.324	28725
808.465	28900
808.607	28987
808.749	29124
808.891	29265
809.033	29353
809.174	29181
809.316	29216
809.458	29200
809.6	29178
809.741	29151
809.883	29307
810.025	29391
810.166	29440
810.308	29440
810.45	29375
810.591	29364
810.733	29269
810.875	29242
811.016	29037
811.158	29025
811.299	29239
811.441	29318
811.582	29353
811.724	29379
811.865	29143
812.007	29326
812.148	29181
812.29	29189
812.431	29360
812.573	29535
812.714	29661
812.855	29676
812.997	29866
813.138	29904
813.279	29748
813.421	29775
813.562	29649
813.703	29539
813.845	29395
813.986	29315
814.127	29044
814.268	29033
814.41	29003
814.551	28843
814.692	28877
814.833	28930
814.974	28805
815.115	28885
815.256	28710
815.397	28717
815.539	28698
815.68	28687
815.821	28615
815.962	28740
816.103	28717
816.244	28675
816.385	28569
816.526	28561
816.666	28246
816.807	28196
816.948	28207
817.089	28322
817.23	28185
817.371	28059
817.512	28147
817.653	28128
817.793	28036
817.934	28188
818.075	28109
818.216	28242
818.356	28268
818.497	28036
818.638	28025
818.778	27918
818.919	28078
819.06	28029
819.2	28078
819.341	28059
819.481	28219
819.622	28310
819.762	28607
819.903	28462
820.043	28485
820.184	28325
820.324	28337
820.465	28352
820.605	28325
820.746	28196
820.886	28306
821.026	28401
821.167	28234
821.307	28318
821.447	28242
821.588	28139
821.728	28032
821.868	27812
822.008	27694
822.149	27743
822.289	27694
822.429	27454
822.569	27306
822.709	27378
822.849	27127
822.99	27325
823.13	27093
823.27	27256
823.41	27127
823.55	26887
823.69	26998
823.83	27017
823.97	26868
824.11	26861
824.25	26800
824.389	26948
824.529	26883
824.669	26804
824.809	27043
824.949	26960
825.089	26998
825.228	26895
825.368	26758
825.508	26807
825.648	26773
825.787	26678
825.927	26914
826.067	26659
826.206	26697
826.346	26743
826.485	26640
826.625	26708
826.765	26880
826.904	26842
827.044	26480
827.183	26541
827.323	26385
827.462	26511
827.601	26514
827.741	26499
827.88	26484
828.02	26233
828.159	26446
828.298	26408
828.437	26613
828.577	26469
828.716	26522
828.855	26282
828.994	26229
829.134	26229
829.273	26172
829.412	26020
829.551	26020
829.69	26122
829.829	26088
829.968	26005
830.107	26092
830.246	26168
830.385	26046
830.524	26058
830.663	25913
830.802	25906
830.941	25662
831.08	25696
831.219	25795
831.357	25784
831.496	25955
831.635	25704
831.774	25708
831.913	25655
832.051	25594
832.19	25590
832.329	25670
832.467	25479
832.606	25487
832.744	25419
832.883	25365
833.022	25479
833.16	25518
833.299	25422
833.437	25358
833.576	25582
833.714	25495
833.852	25556
833.991	25537
834.129	25502
834.267	25597
834.406	25369
834.544	25567
834.682	25457
834.821	25479
834.959	25620
835.097	25415
835.235	25533
835.373	25563
835.511	25510
835.65	25175
835.788	25247
835.926	25320
836.064	25168
836.202	25171
836.34	25293
836.478	25293
836.615	25213
836.753	25274
836.891	25278
837.029	25358
837.167	25156
837.305	25187
837.443	25110
837.58	25194
837.718	25080
837.856	25228
837.993	25057
838.131	25137
838.269	24905
838.406	24989
838.544	24943
838.681	24745
838.819	24791
838.956	24525
839.094	24604
839.231	24601
839.369	24711
839.506	24973
839.643	24886
839.781	24483
839.918	24578
840.055	24540
840.193	24479
840.33	24475
840.467	24528
840.604	24384
840.742	24757
840.879	24384
841.016	24445
841.153	24422
841.29	24597
841.427	24483
841.564	24479
841.701	24445
841.838	24395
841.975	24357
842.112	24410
842.249	24376
842.385	24239
842.522	24429
842.659	24300
842.796	24330
842.933	24182
843.069	24209
843.206	24201
843.343	24243
843.479	24350
843.616	24171
843.752	24159
843.889	24060
844.025	24159
844.162	24079
844.298	24159
844.435	23969
844.571	24015
844.708	23893
844.844	24174
844.98	24254
845.117	24022
845.253	23931
845.389	23897
845.525	23954
845.661	23927
845.798	23904
845.934	23707
846.07	23642
846.206	23695
846.342	24022
846.478	23680
846.614	23585
846.75	23520
846.886	23410
847.022	23547
847.158	23452
847.294	23547
847.429	23528
847.565	23433
847.701	23581
847.837	23242
847.972	23166
848.108	23162
848.244	23288
848.379	23208
848.515	23178
848.65	23075
848.786	23025
848.921	23109
849.057	23147
849.192	23162
849.328	23174
849.463	23098
849.598	22980
849.734	22965
849.869	23003
850.004	22774
850.14	22885
850.275	22835
850.41	22858
850.545	22782
850.68	22744
850.815	22797
850.95	22828
851.085	22949
851.22	22961
851.355	22828
851.49	22790
851.625	22896
851.76	22767
851.895	22733
852.03	22820
852.165	22767
852.299	22869
852.434	22896
852.569	22858
852.703	22774
852.838	22862
852.973	22839
853.107	22934
853.242	22892
853.376	22736
853.511	22470
853.645	22588
853.78	22702
853.914	22573
854.048	22626
854.183	22675
854.317	22706
854.451	22900
854.585	22710
854.72	22641
854.854	22641
854.988	22725
855.122	22592
855.256	22504
855.39	22626
855.524	22740
855.658	22694
855.792	22668
855.926	22831
856.06	22634
856.194	22637
856.327	22672
856.461	22459
856.595	22573
856.729	22561
856.862	22740
856.996	22790
857.13	22858
857.263	22710
857.397	22645
857.53	22683
857.664	22660
857.797	22645
857.931	22702
858.064	22736
858.197	22755
858.331	22527
858.464	22504
858.597	22729
858.731	22649
858.864	22615
858.997	22596
859.13	22637
859.263	22831
859.396	22672
859.529	22592
859.662	22615
859.795	22497
859.928	22656
860.061	22782
860.194	22949
860.327	22736
860.46	22630
860.592	22713
860.725	22733
860.858	22713
860.99	22717
861.123	22584
861.256	22500
861.388	22550
861.521	23311
861.653	22519
861.786	22382
861.918	22546
862.05	22489
862.183	22573
862.315	22573
862.447	22637
862.58	22626
862.712	22348
862.844	22333
862.976	22474
863.108	22447
863.24	22862
863.372	22215
863.504	22432
863.636	22238
863.768	22333
863.9	22318
864.032	22272
864.164	22352
864.296	22424
864.428	22341
864.559	22344
864.691	22500
864.823	22512
864.954	22295
865.086	22398
865.217	22280
865.349	22249
865.48	22268
865.612	22223
865.743	22272
865.875	22284
866.006	22238
866.137	22226
866.269	22166
866.4	22204
866.531	22188
866.662	22158
866.793	22204
866.924	22177
867.055	22143
867.186	22188
867.317	21983
867.448	22131
867.579	22097
867.71	22131
867.841	22139
867.972	22131
868.103	22192
868.233	22242
868.364	22150
868.495	22287
868.625	22337
868.756	22455
868.886	22246
869.017	22379
869.147	22508
869.278	22535
869.408	22592
869.539	22402
869.669	22508
869.799	22478
869.929	22489
870.06	22478
870.19	22706
870.32	22626
870.45	22653
870.58	22801
870.71	22824
870.84	22873
870.97	22702
871.1	22752
871.23	22976
871.36	23003
871.489	22915
871.619	22938
871.749	22999
871.879	23071
872.008	23128
872.138	22976
872.267	22908
872.397	22847
872.526	22774
872.656	22793
872.785	22839
872.915	22919
873.044	23090
873.173	23075
873.303	23056
873.432	23212
873.561	23079
873.69	23102
873.819	22934
873.948	23041
874.077	22980
874.206	22908
874.335	23003
874.464	22972
874.593	23273
874.722	23212
874.851	23242
874.979	23277
875.108	23239
875.237	23284
875.365	23136
875.494	23178
875.623	23242
875.751	23197
875.88	23159
876.008	23181
876.136	23512
876.265	23497
876.393	23748
876.521	23661
876.65	23764
876.778	23737
876.906	23585
877.034	23547
877.162	23520
877.29	23387
877.418	23562
877.546	23573
877.674	23539
877.802	23543
877.93	23634
878.058	23547
878.185	23592
878.313	23531
878.441	23417
878.568	23353
878.696	23467
878.824	23627
878.951	23764
879.079	23756
879.206	23897
879.333	23630
879.461	23566
879.588	23745
879.715	23767
879.842	23737
879.97	23649
880.097	23463
880.224	23318
880.351	23417
880.478	23440
880.605	23478
880.732	23406
880.859	23543
880.986	23482
881.112	23493
881.239	23303
881.366	23022
881.493	23033
881.619	22820
881.746	23060
881.872	22809
881.999	22812
882.125	22778
882.252	22999
882.378	22995
882.505	23086
882.631	22858
882.757	22599
882.883	22710
883.01	22554
883.136	22367
883.262	22508
883.388	22443
883.514	22630
883.64	22573
883.766	22596
883.892	22436
884.018	22394
884.143	22550
884.269	22561
884.395	22318
884.52	22295
884.646	22284
884.772	22249
884.897	22131
885.023	22276
885.148	22333
885.274	22386
885.399	22325
885.524	22295
885.65	22287
885.775	22257
885.9	22131
886.025	22356
886.15	22306
886.275	22067
886.4	22097
886.525	22143
886.65	22128
886.775	22101
886.9	22291
887.025	22394
887.149	22257
887.274	22093
887.399	22044
887.523	22048
887.648	21903
887.773	21926
887.897	22021
888.021	21998
888.146	21994
888.27	22101
888.395	22192
888.519	21876
888.643	21964
888.767	21937
888.891	21857
889.015	21808
889.139	21915
889.263	21785
889.387	21899
889.511	22086
889.635	21972
889.759	21926
889.883	21739
890.006	21835
890.13	21812
890.254	21701
890.377	21583
890.501	21629
890.624	21591
890.748	21416
890.871	21348
890.995	21233
891.118	21245
891.241	21237
891.364	21313
891.488	21603
891.611	21386
891.734	21428
891.857	21534
891.98	21355
892.103	21397
892.226	21336
892.349	21192
892.471	21051
892.594	21291
892.717	21306
892.839	21150
892.962	21298
893.085	21351
893.207	21245
893.33	21108
893.452	21249
893.575	21237
893.697	21218
893.819	21363
893.941	21447
894.064	21310
894.186	21279
894.308	21184
894.43	21325
894.552	21321
894.674	21291
894.796	21173
894.918	21085
895.04	21176
895.161	21344
895.283	21279
895.405	21184
895.526	21279
895.648	21275
895.769	21260
895.891	21173
896.012	21188
896.134	21203
896.255	21165
896.376	21169
896.498	21188
896.619	21150
896.74	21184
896.861	21241
896.982	21370
897.103	21641
897.224	21530
897.345	21439
897.466	21458
897.587	21279
897.708	21469
897.828	21420
897.949	21325
898.07	21211
898.19	21252
898.311	21500
898.431	21272
898.552	21424
898.672	21412
898.792	21488
898.913	21469
899.033	21310
899.153	21298
899.273	21093
899.393	21070
899.513	21108
899.633	21142
899.753	21161
899.873	21199
899.993	21138
900.113	21131
900.232	21119
900.352	21043
900.472	20902
900.591	20716
900.711	20944
900.83	20876
900.95	21039
901.069	21020
901.189	20777
901.308	20632
901.427	20404
901.546	20518
901.665	20602
901.784	20408
901.904	20339
902.023	20206
902.141	20058
902.26	19967
902.379	19989
902.498	20043
902.617	19837
902.735	19959
902.854	19826
902.973	19818
903.091	19674
903.21	19670
903.328	19597
903.446	19632
903.565	19499
903.683	19476
903.801	19263
903.919	19362
904.038	19327
904.156	19259
904.274	19308
904.392	19057
904.51	19053
904.627	19171
904.745	19091
904.863	19088
904.981	19034
905.098	18878
905.216	18825
905.334	18920
905.451	18859
905.569	18909
905.686	18863
905.803	18852
905.921	18661
906.038	18582
906.155	18623
906.272	18688
906.389	18414
906.506	18357
906.623	18311
906.74	18327
906.857	18338
906.974	18285
907.091	18376
907.208	18376
907.324	18464
907.441	18243
907.557	18136
907.674	18072
907.79	17988
907.907	18060
908.023	18114
908.139	18057
908.256	17950
908.372	18007
908.488	18015
908.604	17821
908.72	17805
908.836	17889
908.952	17718
909.068	17726
909.184	17920
909.3	17855
909.415	17866
909.531	17741
909.647	17509
909.762	17497
909.878	17452
909.993	17421
910.108	17421
910.224	17421
910.339	17406
910.454	17292
910.57	17216
910.685	17246
910.8	17444
910.915	17368
911.03	17265
911.145	17067
911.259	17094
911.374	17064
911.489	17067
911.604	16942
911.718	16854
911.833	16877
911.947	16752
912.062	16668
912.176	16824
912.291	16900
912.405	16866
912.519	16995
912.633	16961
912.748	16835
912.862	16755
912.976	16618
913.09	16519
913.204	16538
913.318	16554
913.431	16721
913.545	16763
913.659	16759
913.772	16504
913.886	16436
914	16466
914.113	16474
914.226	16542
914.34	16531
914.453	16238
914.566	16379
914.68	16337
914.793	16291
914.906	16048
915.019	16078
915.132	15949
915.245	16044
915.358	15926
915.47	15972
915.583	15903
915.696	15987
915.809	15979
915.921	16162
916.034	15907
916.146	15804
916.259	15865
916.371	15888
916.483	15907
916.595	15800
916.708	15842
916.82	15766
916.932	15819
917.044	15747
917.156	15656
917.268	15603
917.38	15652
917.491	15610
917.603	15439
917.715	15644
917.826	15751
917.938	15534
918.049	15439
918.161	15523
918.272	15644
918.384	15576
918.495	15523
918.606	15488
918.717	15211
918.828	15317
918.939	15359
919.05	15249
919.161	15313
919.272	15077
919.383	15150
919.494	15321
919.604	15500
919.715	15249
919.826	15131
919.936	15097
920.047	15348
920.157	15317
920.267	15488
920.378	15298
920.488	15184
920.598	15420
920.708	15519
920.818	15329
920.928	15454
921.038	15507
921.148	15412
921.258	15150
921.368	15119
921.477	15074
921.587	15062
921.697	14925
921.806	14971
921.916	14861
922.025	14590
922.134	14648
922.244	14613
922.353	14762
922.462	14473
922.571	14351
922.68	14381
922.789	14298
922.898	14271
923.007	14229
923.116	14229
923.224	14256
923.333	14202
923.442	14107
923.55	14046
923.659	14081
923.767	14168
923.876	14050
923.984	14100
924.092	13951
924.201	14062
924.309	14054
924.417	14012
924.525	13871
924.633	13974
924.741	14902
924.849	13746
924.956	13795
925.064	13731
925.172	13594
925.279	13597
925.387	13586
925.494	13647
925.602	13731
925.709	13746
925.816	13422
925.924	13529
926.031	13693
926.138	13616
926.245	13655
926.352	13548
926.459	13624
926.566	13734
926.673	13483
926.779	13282
926.886	13343
926.993	13266
927.099	13304
927.206	13160
927.312	13122
927.419	13183
927.525	13179
927.631	13236
927.737	13091
927.843	13031
927.95	12909
928.056	13076
928.162	12993
928.267	13141
928.373	13510
928.479	13023
928.585	12798
928.69	12905
928.796	13008
928.901	12852
929.007	12700
929.112	12844
929.218	12783
929.323	12722
929.428	12654
929.533	12833
929.638	12612
929.743	12635
929.848	12593
929.953	12665
930.058	12589
930.163	12388
930.267	12391
930.372	12410
930.477	12281
930.581	12506
930.685	12338
930.79	12228
930.894	12270
930.998	12194
931.103	12292
931.207	12049
931.311	11863
931.415	11882
931.519	11649
931.623	11589
