Data from test_V78500241_1149.txt Node
Date: Fri Mar 25 15:49:45 CST 2022
User: usil
Spectrometer: V785-0024
Trigger mode: 0
Integration Time (sec): 4.000000E-1
Scans to average: 1
Nonlinearity correction enabled: false
Boxcar width: 0
Storing dark spectrum: false
XAxis mode: Wavelengths
Number of Pixels in Spectrum: 1024
>>>>>Begin Spectral Data<<<<<
801.071	28740
801.214	28531
801.356	28329
801.499	28253
801.641	28124
801.783	28086
801.926	28257
802.068	28166
802.211	28116
802.353	27884
802.496	27854
802.638	27892
802.78	27827
802.923	27869
803.065	27755
803.208	27781
803.35	27907
803.492	27922
803.635	27907
803.777	27964
803.919	28181
804.061	28538
804.204	28147
804.346	27998
804.488	27945
804.63	28032
804.773	27918
804.915	28196
805.057	28162
805.199	28021
805.341	28078
805.483	28234
805.626	28139
805.768	28162
805.91	28215
806.052	28303
806.194	28162
806.336	28329
806.478	28306
806.62	28303
806.762	28375
806.904	28367
807.046	28767
807.188	28634
807.33	28713
807.472	28774
807.614	28607
807.756	28706
807.898	28691
808.04	28481
808.182	28538
808.324	28546
808.465	28550
808.607	28930
808.749	28850
808.891	29006
809.033	29083
809.174	29029
809.316	28816
809.458	28862
809.6	28957
809.741	29067
809.883	29048
810.025	29368
810.166	29223
810.308	29261
810.45	29166
810.591	29166
810.733	29010
810.875	28790
811.016	28778
811.158	28885
811.299	29075
811.441	29151
811.582	29212
811.724	29048
811.865	28930
812.007	28862
812.148	28923
812.29	29025
812.431	29090
812.573	29322
812.714	29315
812.855	29471
812.997	29516
813.138	29813
813.279	29627
813.421	29520
813.562	29600
813.703	29113
813.845	29204
813.986	28869
814.127	28755
814.268	28675
814.41	28626
814.551	28603
814.692	28668
814.833	28641
814.974	28725
815.115	28710
815.256	28538
815.397	28561
815.539	28538
815.68	28432
815.821	28432
815.962	28451
816.103	28531
816.244	28322
816.385	28291
816.526	28135
816.666	28120
816.807	27964
816.948	27975
817.089	27998
817.23	27949
817.371	27960
817.512	27865
817.653	27953
817.793	27884
817.934	27937
818.075	28158
818.216	28002
818.356	27888
818.497	27892
818.638	27595
818.778	27656
818.919	27705
819.06	27793
819.2	27831
819.341	27945
819.481	27930
819.622	28200
819.762	28409
819.903	28219
820.043	28226
820.184	28090
820.324	27987
820.465	28055
820.605	28116
820.746	28048
820.886	27937
821.026	28093
821.167	28169
821.307	28048
821.447	27968
821.588	27960
821.728	27869
821.868	27717
822.008	27553
822.149	27561
822.289	27523
822.429	27260
822.569	27150
822.709	27237
822.849	27051
822.99	26967
823.13	27036
823.27	26921
823.41	26663
823.55	26800
823.69	26781
823.83	26731
823.97	26750
824.11	26560
824.25	26522
824.389	26796
824.529	26697
824.669	26693
824.809	26735
824.949	26826
825.089	26739
825.228	26769
825.368	26514
825.508	26526
825.648	26587
825.787	26659
825.927	26594
826.067	26461
826.206	26583
826.346	26480
826.485	26537
826.625	26461
826.765	26682
826.904	26533
827.044	26366
827.183	26332
827.323	26107
827.462	26145
827.601	26237
827.741	26210
827.88	26225
828.02	26161
828.159	26206
828.298	26206
828.437	26320
828.577	26111
828.716	26358
828.855	26183
828.994	25894
829.134	25898
829.273	25963
829.412	25989
829.551	25780
829.69	25864
829.829	25875
829.968	26035
830.107	26024
830.246	26062
830.385	25875
830.524	25818
830.663	25727
830.802	25750
830.941	25537
831.08	25472
831.219	25620
831.357	25403
831.496	25658
831.635	25449
831.774	25438
831.913	25350
832.051	25400
832.19	25285
832.329	25331
832.467	25221
832.606	25179
832.744	25168
832.883	25171
833.022	25198
833.16	25213
833.299	25088
833.437	25217
833.576	25293
833.714	25316
833.852	25377
833.991	25289
834.129	25392
834.267	25396
834.406	25209
834.544	25232
834.682	25331
834.821	25236
834.959	25358
835.097	25274
835.235	25331
835.373	25168
835.511	25282
835.65	25099
835.788	25008
835.926	24856
836.064	24863
836.202	24992
836.34	25107
836.478	25103
836.615	25080
836.753	25057
836.891	25156
837.029	25190
837.167	24970
837.305	24856
837.443	24829
837.58	24954
837.718	24932
837.856	24913
837.993	24833
838.131	24962
838.269	24776
838.406	24806
838.544	24658
838.681	24509
838.819	24403
838.956	24418
839.094	24300
839.231	24353
839.369	24547
839.506	24692
839.643	24635
839.781	24384
839.918	24300
840.055	24330
840.193	24361
840.33	24270
840.467	24304
840.604	24350
840.742	24551
840.879	24083
841.016	24171
841.153	24209
841.29	24334
841.427	24247
841.564	24372
841.701	24330
841.838	24235
841.975	24155
842.112	24034
842.249	24117
842.385	23992
842.522	24220
842.659	24186
842.796	24087
842.933	24049
843.069	23980
843.206	23977
843.343	24026
843.479	24133
843.616	23977
843.752	23767
843.889	23866
844.025	23931
844.162	23859
844.298	23904
844.435	23752
844.571	23790
844.708	23874
844.844	24053
844.98	23923
845.117	23889
845.253	23745
845.389	23604
845.525	23805
845.661	23649
845.798	23486
845.934	23680
846.07	23524
846.206	23570
846.342	23562
846.478	23493
846.614	23254
846.75	23242
846.886	23208
847.022	23326
847.158	23277
847.294	23185
847.429	23292
847.565	23242
847.701	23528
847.837	23029
847.972	22919
848.108	23067
848.244	23079
848.379	22961
848.515	22873
848.65	22839
848.786	22862
848.921	22904
849.057	22858
849.192	22805
849.328	22930
849.463	22824
849.598	22911
849.734	22717
849.869	22713
850.004	22641
850.14	22599
850.275	22637
850.41	22447
850.545	22611
850.68	22535
850.815	22668
850.95	22641
851.085	22866
851.22	22729
851.355	22649
851.49	22466
851.625	22519
851.76	22615
851.895	22500
852.03	22577
852.165	22729
852.299	22618
852.434	22596
852.569	22656
852.703	22535
852.838	22634
852.973	22618
853.107	22763
853.242	22516
853.376	22580
853.511	22371
853.645	22405
853.78	22554
853.914	22421
854.048	22246
854.183	22466
854.317	22379
854.451	22584
854.585	22379
854.72	22344
854.854	22474
854.988	22371
855.122	22421
855.256	22356
855.39	22371
855.524	22466
855.658	22470
855.792	22470
855.926	22344
856.06	22519
856.194	22512
856.327	22348
856.461	22333
856.595	22246
856.729	22413
856.862	22504
856.996	22497
857.13	22447
857.263	22531
857.397	22512
857.53	22405
857.664	22436
857.797	22363
857.931	22557
858.064	22523
858.197	22470
858.331	22413
858.464	22363
858.597	22211
858.731	22310
858.864	22284
858.997	22356
859.13	22371
859.263	22333
859.396	22481
859.529	22348
859.662	22348
859.795	22390
859.928	22432
860.061	22535
860.194	22531
860.327	22428
860.46	22360
860.592	22599
860.725	22653
860.858	22417
860.99	22333
861.123	22329
861.256	22375
861.388	22329
861.521	23083
861.653	22223
861.786	22230
861.918	22284
862.05	22379
862.183	22276
862.315	22360
862.447	22394
862.58	22299
862.712	21991
862.844	22177
862.976	22249
863.108	22109
863.24	22694
863.372	22074
863.504	22082
863.636	22143
863.768	22040
863.9	22116
864.032	22070
864.164	22116
864.296	22257
864.428	22196
864.559	22097
864.691	22204
864.823	22173
864.954	22017
865.086	22082
865.217	22082
865.349	21956
865.48	22021
865.612	22029
865.743	22093
865.875	21994
866.006	21975
866.137	22040
866.269	22074
866.4	22006
866.531	21907
866.662	21983
866.793	21945
866.924	21937
867.055	21956
867.186	21941
867.317	21918
867.448	21994
867.579	21941
867.71	21934
867.841	21835
867.972	21960
868.103	21873
868.233	22006
868.364	21873
868.495	22032
868.625	22116
868.756	22348
868.886	22086
869.017	22158
869.147	22253
869.278	22261
869.408	22204
869.539	22181
869.669	22341
869.799	22166
869.929	22291
870.06	22287
870.19	22481
870.32	22428
870.45	22485
870.58	22508
870.71	22698
870.84	22782
870.97	22569
871.1	22565
871.23	22763
871.36	22767
871.489	22645
871.619	22748
871.749	22752
871.879	22858
872.008	22869
872.138	22656
872.267	22752
872.397	22634
872.526	22656
872.656	22592
872.785	22603
872.915	22717
873.044	22854
873.173	22793
873.303	22774
873.432	22801
873.561	23006
873.69	22771
873.819	22793
873.948	22892
874.077	22790
874.206	22729
874.335	22717
874.464	22946
874.593	22995
874.722	22980
874.851	23033
874.979	23018
875.108	23044
875.237	22987
875.365	22889
875.494	22923
875.623	23102
875.751	22984
875.88	23029
876.008	23227
876.136	23109
876.265	23387
876.393	23429
876.521	23429
876.65	23471
876.778	23372
876.906	23326
877.034	23402
877.162	23284
877.29	23299
877.418	23254
877.546	23307
877.674	23334
877.802	23280
877.93	23353
878.058	23330
878.185	23174
878.313	23288
878.441	23345
878.568	23128
878.696	23326
878.824	23239
878.951	23486
879.079	23425
879.206	23604
879.333	23497
879.461	23410
879.588	23417
879.715	23455
879.842	23592
879.97	23429
880.097	23147
880.224	23166
880.351	23075
880.478	23151
880.605	23121
880.732	23162
880.859	23330
880.986	23204
881.112	23105
881.239	22930
881.366	22919
881.493	22759
881.619	22683
881.746	22892
881.872	22683
881.999	22588
882.125	22618
882.252	22687
882.378	22656
882.505	22778
882.631	22447
882.757	22500
882.883	22466
883.01	22421
883.136	22386
883.262	22249
883.388	22226
883.514	22402
883.64	22337
883.766	22325
883.892	22070
884.018	22124
884.143	22398
884.269	22329
884.395	22013
884.52	21998
884.646	22082
884.772	22010
884.897	21987
885.023	22059
885.148	22177
885.274	22128
885.399	22166
885.524	22090
885.65	22044
885.775	22162
885.9	21998
886.025	22154
886.15	22116
886.275	21846
886.4	21895
886.525	21975
886.65	22051
886.775	21903
886.9	22143
887.025	22112
887.149	21934
887.274	21819
887.399	21808
887.523	21701
887.648	21667
887.773	21736
887.897	21903
888.021	21804
888.146	21660
888.27	21903
888.395	21797
888.519	21701
888.643	21827
888.767	21865
888.891	21629
889.015	21523
889.139	21618
889.263	21561
889.387	21622
889.511	21766
889.635	21652
889.759	21389
889.883	21553
890.006	21675
890.13	21694
890.254	21435
890.377	21329
890.501	21294
890.624	21317
890.748	21275
890.871	21161
890.995	21123
891.118	21036
891.241	21127
891.364	21013
891.488	21233
891.611	21093
891.734	21165
891.857	21138
891.98	21138
892.103	21100
892.226	21176
892.349	20982
892.471	20876
892.594	21157
892.717	21024
892.839	21055
892.962	21028
893.085	21135
893.207	20948
893.33	20906
893.452	20979
893.575	21039
893.697	20895
893.819	21154
893.941	21268
894.064	21062
894.186	20925
894.308	20933
894.43	21089
894.552	21100
894.674	21032
894.796	20880
894.918	20914
895.04	20902
895.161	21032
895.283	21055
895.405	20845
895.526	21066
895.648	20986
895.769	20925
895.891	21009
896.012	21131
896.134	20975
896.255	21020
896.376	21001
896.498	21036
896.619	21066
896.74	21043
896.861	21009
896.982	21302
897.103	21477
897.224	21245
897.345	21188
897.466	21074
897.587	21325
897.708	21317
897.828	21226
897.949	21180
898.07	20979
898.19	21043
898.311	21272
898.431	21062
898.552	21142
898.672	21359
898.792	21272
898.913	21150
899.033	21161
899.153	21013
899.273	21013
899.393	20849
899.513	20887
899.633	20921
899.753	20906
899.873	20952
899.993	20933
900.113	20883
900.232	20960
900.352	20735
900.472	20762
900.591	20625
900.711	20781
900.83	20636
900.95	20708
901.069	20777
901.189	20606
901.308	20267
901.427	20122
901.546	20370
901.665	20290
901.784	20221
901.904	20134
902.023	19970
902.141	19799
902.26	19734
902.379	19932
902.498	19803
902.617	19837
902.735	19833
902.854	19757
902.973	19719
903.091	19392
903.21	19506
903.328	19403
903.446	19225
903.565	19247
903.683	19221
903.801	19251
903.919	19133
904.038	19088
904.156	19084
904.274	19179
904.392	19000
904.51	18943
904.627	18993
904.745	18996
904.863	18993
904.981	18650
905.098	18684
905.216	18604
905.334	18692
905.451	18684
905.569	18612
905.686	18623
905.803	18646
905.921	18407
906.038	18544
906.155	18498
906.272	18258
906.389	18327
906.506	18190
906.623	18270
906.74	18167
906.857	18079
906.974	18060
907.091	18007
907.208	18232
907.324	18228
907.441	18053
907.557	17946
907.674	17939
907.79	17828
907.907	17885
908.023	17802
908.139	17893
908.256	17874
908.372	17771
908.488	17672
908.604	17646
908.72	17539
908.836	17615
908.952	17600
909.068	17710
909.184	17589
909.3	17646
909.415	17638
909.531	17497
909.647	17239
909.762	17414
909.878	17311
909.993	17360
910.108	17288
910.224	17254
910.339	17227
910.454	17151
910.57	17147
910.685	17079
910.8	17296
910.915	17250
911.03	17075
911.145	16923
911.259	16889
911.374	16809
911.489	16831
911.604	16828
911.718	16637
911.833	16694
911.947	16645
912.062	16538
912.176	16630
912.291	16599
912.405	16630
912.519	16801
912.633	16824
912.748	16740
912.862	16596
912.976	16447
913.09	16246
913.204	16447
913.318	16424
913.431	16550
913.545	16508
913.659	16519
913.772	16402
913.886	16238
914	16219
914.113	16356
914.226	16284
914.34	16371
914.453	16090
914.566	16219
914.68	16036
914.793	16025
914.906	15846
915.019	15869
915.132	15797
915.245	15816
915.358	15812
915.47	15835
915.583	15770
915.696	15819
915.809	15964
915.921	15918
916.034	15747
916.146	15618
916.259	15633
916.371	15762
916.483	15694
916.595	15587
916.708	15614
916.82	15633
916.932	15591
917.044	15610
917.156	15530
917.268	15469
917.38	15504
917.491	15351
917.603	15351
917.715	15428
917.826	15443
917.938	15310
918.049	15272
918.161	15348
918.272	15542
918.384	15367
918.495	15344
918.606	15180
918.717	15131
918.828	15195
918.939	15211
919.05	15093
919.161	15138
919.272	14986
919.383	15070
919.494	15150
919.604	15393
919.715	15222
919.826	15089
919.936	15093
920.047	15237
920.157	15062
920.267	15287
920.378	15097
920.488	14960
920.598	15268
920.708	15344
920.818	15252
920.928	15302
921.038	15424
921.148	15313
921.258	15081
921.368	15005
921.477	14857
921.587	14826
921.697	14686
921.806	14819
921.916	14655
922.025	14537
922.134	14473
922.244	14377
922.353	14545
922.462	14332
922.571	14256
922.68	14183
922.789	14092
922.898	14103
923.007	14103
923.116	14084
923.224	14077
923.333	14126
923.442	13909
923.55	13982
923.659	13963
923.767	13944
923.876	13830
923.984	13906
924.092	13734
924.201	13864
924.309	13849
924.417	13841
924.525	13731
924.633	13784
924.741	14575
924.849	13620
924.956	13647
925.064	13552
925.172	13449
925.279	13430
925.387	13529
925.494	13483
925.602	13613
925.709	13483
925.816	13346
925.924	13346
926.031	13529
926.138	13411
926.245	13533
926.352	13339
926.459	13464
926.566	13537
926.673	13411
926.779	13285
926.886	13190
926.993	13084
927.099	13141
927.206	12985
927.312	12985
927.419	13088
927.525	13149
927.631	12962
927.737	12962
927.843	12897
927.95	12738
928.056	12753
928.162	12848
928.267	12897
928.373	13502
928.479	12932
928.585	12787
928.69	12817
928.796	12833
928.901	12669
929.007	12566
929.112	12715
929.218	12662
929.323	12506
929.428	12528
929.533	12700
929.638	12471
929.743	12532
929.848	12525
929.953	12502
930.058	12395
930.163	12228
930.267	12285
930.372	12467
930.477	12239
930.581	12471
930.685	12285
930.79	12098
930.894	12121
930.998	12136
931.103	12163
931.207	11912
931.311	11836
931.415	11714
931.519	11543
931.623	11516
