Data from test_V78500241_2051.txt Node
Date: Fri Mar 25 15:56:00 CST 2022
User: usil
Spectrometer: V785-0024
Trigger mode: 0
Integration Time (sec): 4.000000E-1
Scans to average: 1
Nonlinearity correction enabled: false
Boxcar width: 0
Storing dark spectrum: false
XAxis mode: Wavelengths
Number of Pixels in Spectrum: 1024
>>>>>Begin Spectral Data<<<<<
801.071	28976
801.214	28854
801.356	28733
801.499	28626
801.641	28744
801.783	28607
801.926	28691
802.068	28512
802.211	28512
802.353	28538
802.496	28246
802.638	28367
802.78	28341
802.923	28188
803.065	28242
803.208	28303
803.35	28329
803.492	28440
803.635	28580
803.777	28299
803.919	28428
804.061	28843
804.204	28649
804.346	28424
804.488	28516
804.63	28466
804.773	28508
804.915	28497
805.057	28683
805.199	28565
805.341	28706
805.483	28592
805.626	28634
805.768	28538
805.91	28729
806.052	28687
806.194	28641
806.336	28999
806.478	28733
806.62	28668
806.762	28786
806.904	28949
807.046	29273
807.188	29223
807.33	29124
807.472	29128
807.614	29029
807.756	29193
807.898	29128
808.04	29037
808.182	28972
808.324	29216
808.465	29094
808.607	29265
808.749	29345
808.891	29478
809.033	29547
809.174	29459
809.316	29356
809.458	29478
809.6	29387
809.741	29410
809.883	29463
810.025	29687
810.166	29737
810.308	29680
810.45	29756
810.591	29729
810.733	29383
810.875	29349
811.016	29246
811.158	29318
811.299	29463
811.441	29623
811.582	29581
811.724	29455
811.865	29372
812.007	29322
812.148	29330
812.29	29547
812.431	29665
812.573	29646
812.714	29961
812.855	29969
812.997	29996
813.138	30102
813.279	30163
813.421	30072
813.562	29897
813.703	29714
813.845	29687
813.986	29539
814.127	29311
814.268	29155
814.41	29170
814.551	29193
814.692	29094
814.833	29048
814.974	28984
815.115	29181
815.256	29003
815.397	28980
815.539	28987
815.68	28908
815.821	28968
815.962	29025
816.103	28976
816.244	28858
816.385	28831
816.526	28847
816.666	28637
816.807	28451
816.948	28531
817.089	28550
817.23	28550
817.371	28390
817.512	28466
817.653	28432
817.793	28470
817.934	28580
818.075	28550
818.216	28470
818.356	28352
818.497	28287
818.638	28173
818.778	28234
818.919	28128
819.06	28287
819.2	28325
819.341	28466
819.481	28390
819.622	28664
819.762	28774
819.903	28694
820.043	28691
820.184	28607
820.324	28577
820.465	28721
820.605	28596
820.746	28592
820.886	28375
821.026	28702
821.167	28428
821.307	28622
821.447	28485
821.588	28428
821.728	28249
821.868	28055
822.008	27934
822.149	28036
822.289	27972
822.429	27618
822.569	27728
822.709	27736
822.849	27492
822.99	27507
823.13	27458
823.27	27435
823.41	27321
823.55	27127
823.69	27306
823.83	27184
823.97	27207
824.11	27146
824.25	27013
824.389	27074
824.529	27207
824.669	27169
824.809	27058
824.949	27123
825.089	27249
825.228	27192
825.368	26902
825.508	26971
825.648	27074
825.787	27043
825.927	27116
826.067	27005
826.206	26876
826.346	27165
826.485	27173
826.625	27024
826.765	27020
826.904	27096
827.044	26693
827.183	26804
827.323	26606
827.462	26864
827.601	26682
827.741	26629
827.88	26830
828.02	26560
828.159	26644
828.298	26716
828.437	26819
828.577	26625
828.716	26800
828.855	26594
828.994	26358
829.134	26404
829.273	26480
829.412	26362
829.551	26343
829.69	26362
829.829	26556
829.968	26545
830.107	26343
830.246	26396
830.385	26305
830.524	26317
830.663	26180
830.802	26191
830.941	26062
831.08	26027
831.219	26122
831.357	26168
831.496	26233
831.635	25928
831.774	26027
831.913	25864
832.051	25700
832.19	25803
832.329	25753
832.467	25677
832.606	25681
832.744	25693
832.883	25655
833.022	25643
833.16	25769
833.299	25681
833.437	25708
833.576	25750
833.714	25772
833.852	25727
833.991	25906
834.129	25719
834.267	25932
834.406	25765
834.544	25818
834.682	25689
834.821	25765
834.959	25944
835.097	25822
835.235	25601
835.373	25738
835.511	25772
835.65	25571
835.788	25639
835.926	25502
836.064	25518
836.202	25472
836.34	25616
836.478	25628
836.615	25521
836.753	25544
836.891	25647
837.029	25571
837.167	25464
837.305	25441
837.443	25544
837.58	25259
837.718	25529
837.856	25540
837.993	25343
838.131	25533
838.269	25168
838.406	25213
838.544	25240
838.681	25141
838.819	25099
838.956	24863
839.094	24768
839.231	24829
839.369	24996
839.506	25206
839.643	24996
839.781	24844
839.918	24878
840.055	24878
840.193	24875
840.33	24783
840.467	24760
840.604	24856
840.742	24981
840.879	24570
841.016	24593
841.153	24665
841.29	24821
841.427	24597
841.564	24757
841.701	24798
841.838	24665
841.975	24570
842.112	24692
842.249	24597
842.385	24395
842.522	24726
842.659	24578
842.796	24429
842.933	24639
843.069	24467
843.206	24437
843.343	24570
843.479	24532
843.616	24505
843.752	24174
843.889	24201
844.025	24437
844.162	24270
844.298	24357
844.435	24243
844.571	24289
844.708	24311
844.844	24426
844.98	24441
845.117	24403
845.253	24174
845.389	24117
845.525	24174
845.661	24205
845.798	23992
845.934	24159
846.07	24022
846.206	24049
846.342	24060
846.478	23923
846.614	23912
846.75	23478
846.886	23760
847.022	23767
847.158	23840
847.294	23592
847.429	23623
847.565	23600
847.701	23996
847.837	23512
847.972	23459
848.108	23471
848.244	23535
848.379	23360
848.515	23326
848.65	23277
848.786	23395
848.921	23299
849.057	23474
849.192	23395
849.328	23391
849.463	23326
849.598	23303
849.734	23143
849.869	23159
850.004	23178
850.14	23124
850.275	23010
850.41	23090
850.545	23010
850.68	23003
850.815	23235
850.95	22987
851.085	23239
851.22	23193
851.355	23170
851.49	23102
851.625	23029
851.76	23109
851.895	23025
852.03	22980
852.165	23090
852.299	22953
852.434	23136
852.569	23113
852.703	23151
852.838	23143
852.973	23181
853.107	23162
853.242	23018
853.376	22839
853.511	22729
853.645	22847
853.78	22881
853.914	22824
854.048	22824
854.183	22858
854.317	22919
854.451	23094
854.585	22911
854.72	22949
854.854	22961
854.988	22892
855.122	22900
855.256	22702
855.39	22938
855.524	22991
855.658	22790
855.792	23010
855.926	22987
856.06	22911
856.194	22976
856.327	22828
856.461	22850
856.595	22843
856.729	22786
856.862	22984
856.996	22873
857.13	22915
857.263	23086
857.397	23025
857.53	22930
857.664	22881
857.797	22835
857.931	22957
858.064	22987
858.197	22999
858.331	22713
858.464	22877
858.597	22725
858.731	22771
858.864	22809
858.997	22850
859.13	22889
859.263	22904
859.396	22892
859.529	22831
859.662	22881
859.795	22892
859.928	22854
860.061	23128
860.194	23029
860.327	22923
860.46	22896
860.592	22965
860.725	23090
860.858	22999
860.99	22961
861.123	22771
861.256	22752
861.388	22911
861.521	23585
861.653	22706
861.786	22664
861.918	22717
862.05	22763
862.183	22782
862.315	22748
862.447	22987
862.58	22809
862.712	22729
862.844	22561
862.976	22748
863.108	22561
863.24	23098
863.372	22512
863.504	22538
863.636	22675
863.768	22702
863.9	22664
864.032	22478
864.164	22455
864.296	22611
864.428	22691
864.559	22550
864.691	22702
864.823	22573
864.954	22668
865.086	22569
865.217	22599
865.349	22443
865.48	22432
865.612	22489
865.743	22694
865.875	22493
866.006	22390
866.137	22443
866.269	22504
866.4	22527
866.531	22402
866.662	22390
866.793	22436
866.924	22329
867.055	22565
867.186	22337
867.317	22455
867.448	22333
867.579	22306
867.71	22249
867.841	22276
867.972	22363
868.103	22322
868.233	22459
868.364	22466
868.495	22352
868.625	22542
868.756	22702
868.886	22516
869.017	22588
869.147	22622
869.278	22847
869.408	22687
869.539	22702
869.669	22752
869.799	22729
869.929	22797
870.06	22733
870.19	22961
870.32	22786
870.45	22930
870.58	22934
870.71	23132
870.84	23109
870.97	23083
871.1	23033
871.23	23189
871.36	23242
871.489	23075
871.619	23231
871.749	23143
871.879	23299
872.008	23307
872.138	23136
872.267	23143
872.397	23189
872.526	23083
872.656	23109
872.785	22987
872.915	23265
873.044	23185
873.173	23227
873.303	23292
873.432	23235
873.561	23315
873.69	23318
873.819	23220
873.948	23292
874.077	23455
874.206	23231
874.335	23227
874.464	23269
874.593	23436
874.722	23448
874.851	23570
874.979	23528
875.108	23429
875.237	23364
875.365	23299
875.494	23448
875.623	23596
875.751	23334
875.88	23398
876.008	23589
876.136	23672
876.265	23802
876.393	23984
876.521	23927
876.65	23809
876.778	23828
876.906	23851
877.034	23672
877.162	23863
877.29	23737
877.418	23786
877.546	23809
877.674	23714
877.802	23745
877.93	23805
878.058	23767
878.185	23642
878.313	23581
878.441	23756
878.568	23589
878.696	23653
878.824	23897
878.951	23870
879.079	23961
879.206	24201
879.333	23931
879.461	23885
879.588	23916
879.715	23942
879.842	23878
879.97	23870
880.097	23600
880.224	23600
880.351	23665
880.478	23501
880.605	23608
880.732	23528
880.859	23745
880.986	23646
881.112	23611
881.239	23448
881.366	23402
881.493	23258
881.619	23292
881.746	23170
881.872	23140
881.999	23189
882.125	23052
882.252	23303
882.378	23140
882.505	23204
882.631	22854
882.757	22782
882.883	22881
883.01	22839
883.136	22744
883.262	22599
883.388	22763
883.514	22771
883.64	22930
883.766	22862
883.892	22641
884.018	22687
884.143	22710
884.269	22752
884.395	22470
884.52	22436
884.646	22489
884.772	22447
884.897	22379
885.023	22565
885.148	22474
885.274	22725
885.399	22546
885.524	22386
885.65	22451
885.775	22367
885.9	22402
886.025	22542
886.15	22417
886.275	22432
886.4	22352
886.525	22519
886.65	22333
886.775	22398
886.9	22599
887.025	22577
887.149	22500
887.274	22215
887.399	22295
887.523	22128
887.648	22135
887.773	22226
887.897	22265
888.021	22291
888.146	22211
888.27	22226
888.395	22341
888.519	22226
888.643	22150
888.767	22318
888.891	22090
889.015	21949
889.139	22013
889.263	22086
889.387	22074
889.511	22268
889.635	22204
889.759	21975
889.883	21816
890.006	21968
890.13	22116
890.254	21892
890.377	21945
890.501	21766
890.624	21736
890.748	21884
890.871	21599
890.995	21500
891.118	21580
891.241	21473
891.364	21610
891.488	21747
891.611	21496
891.734	21507
891.857	21481
891.98	21511
892.103	21682
892.226	21469
892.349	21466
892.471	21287
892.594	21534
892.717	21389
892.839	21382
892.962	21386
893.085	21454
893.207	21367
893.33	21226
893.452	21313
893.575	21454
893.697	21367
893.819	21500
893.941	21591
894.064	21557
894.186	21393
894.308	21241
894.43	21469
894.552	21599
894.674	21443
894.796	21374
894.918	21367
895.04	21313
895.161	21473
895.283	21393
895.405	21416
895.526	21458
895.648	21389
895.769	21625
895.891	21428
896.012	21428
896.134	21408
896.255	21485
896.376	21329
896.498	21420
896.619	21416
896.74	21439
896.861	21389
896.982	21652
897.103	21831
897.224	21606
897.345	21622
897.466	21431
897.587	21568
897.708	21652
897.828	21576
897.949	21477
898.07	21397
898.19	21416
898.311	21603
898.431	21580
898.552	21526
898.672	21583
898.792	21736
898.913	21561
899.033	21405
899.153	21359
899.273	21195
899.393	21359
899.513	21260
899.633	21363
899.753	21389
899.873	21218
899.993	21313
900.113	21294
900.232	21359
900.352	21268
900.472	21112
900.591	21036
900.711	21173
900.83	20982
900.95	21226
901.069	21127
901.189	20944
901.308	20705
901.427	20583
901.546	20625
901.665	20606
901.784	20644
901.904	20560
902.023	20461
902.141	20252
902.26	20103
902.379	20199
902.498	20058
902.617	20107
902.735	20130
902.854	20046
902.973	20008
903.091	19841
903.21	19803
903.328	19830
903.446	19693
903.565	19685
903.683	19632
903.801	19483
903.919	19624
904.038	19556
904.156	19381
904.274	19411
904.392	19422
904.51	19358
904.627	19320
904.745	19381
904.863	19350
904.981	19225
905.098	19038
905.216	18943
905.334	19034
905.451	19019
905.569	19004
905.686	19050
905.803	19061
905.921	18787
906.038	18894
906.155	18783
906.272	18768
906.389	18711
906.506	18559
906.623	18623
906.74	18585
906.857	18376
906.974	18490
907.091	18547
907.208	18578
907.324	18532
907.441	18547
907.557	18270
907.674	18228
907.79	18197
907.907	18247
908.023	18292
908.139	18148
908.256	18224
908.372	18114
908.488	18098
908.604	17920
908.72	17912
908.836	18007
908.952	18015
909.068	17935
909.184	18091
909.3	17988
909.415	17984
909.531	17935
909.647	17604
909.762	17627
909.878	17577
909.993	17630
910.108	17623
910.224	17551
910.339	17589
910.454	17554
910.57	17478
910.685	17376
910.8	17562
910.915	17642
911.03	17429
911.145	17231
911.259	17162
911.374	17269
911.489	17086
911.604	17113
911.718	16930
911.833	16980
911.947	16961
912.062	16839
912.176	17037
912.291	17033
912.405	16991
912.519	17185
912.633	17124
912.748	16927
912.862	16869
912.976	16854
913.09	16683
913.204	16687
913.318	16790
913.431	16824
913.545	16847
913.659	16752
913.772	16725
913.886	16508
914	16558
914.113	16649
914.226	16603
914.34	16573
914.453	16428
914.566	16637
914.68	16466
914.793	16466
914.906	16166
915.019	16147
915.132	16010
915.245	16158
915.358	16169
915.47	16173
915.583	16013
915.696	16116
915.809	16238
915.921	16226
916.034	16055
916.146	16010
916.259	16010
916.371	16067
916.483	16105
916.595	15968
916.708	15838
916.82	15915
916.932	15949
917.044	15846
917.156	15846
917.268	15739
917.38	15739
917.491	15713
917.603	15732
917.715	15724
917.826	15793
917.938	15603
918.049	15564
918.161	15652
918.272	15793
918.384	15770
918.495	15686
918.606	15488
918.717	15363
918.828	15523
918.939	15504
919.05	15405
919.161	15526
919.272	15245
919.383	15344
919.494	15530
919.604	15633
919.715	15408
919.826	15401
919.936	15382
920.047	15515
920.157	15435
920.267	15667
920.378	15382
920.488	15397
920.598	15564
920.708	15663
920.818	15507
920.928	15428
921.038	15679
921.148	15595
921.258	15401
921.368	15268
921.477	15123
921.587	15138
921.697	15028
921.806	15230
921.916	14975
922.025	14861
922.134	14834
922.244	14743
922.353	14842
922.462	14640
922.571	14613
922.68	14469
922.789	14301
922.898	14374
923.007	14271
923.116	14370
923.224	14332
923.333	14336
923.442	14229
923.55	14145
923.659	14263
923.767	14244
923.876	14191
923.984	14282
924.092	14134
924.201	14191
924.309	14157
924.417	14111
924.525	13978
924.633	14081
924.741	14899
924.849	13879
924.956	13875
925.064	13871
925.172	13727
925.279	13719
925.387	13742
925.494	13753
925.602	13864
925.709	13841
925.816	13734
925.924	13731
926.031	13799
926.138	13753
926.245	13772
926.352	13533
926.459	13689
926.566	13731
926.673	13677
926.779	13563
926.886	13476
926.993	13358
927.099	13304
927.206	13285
927.312	13244
927.419	13282
927.525	13289
927.631	13293
927.737	13228
927.843	13149
927.95	12935
928.056	13152
928.162	13137
928.267	13023
928.373	13765
928.479	13217
928.585	12882
928.69	12996
928.796	13057
928.901	13012
929.007	12791
929.112	12905
929.218	12916
929.323	12856
929.428	12856
929.533	12966
929.638	12726
929.743	12760
929.848	12719
929.953	12665
930.058	12612
930.163	12544
930.267	12479
930.372	12532
930.477	12380
930.581	12601
930.685	12502
930.79	12357
930.894	12426
930.998	12262
931.103	12475
931.207	12072
931.311	12049
931.415	11901
931.519	11790
931.623	11665
