Data from test_V78500241_892.txt Node
Date: Fri Mar 25 15:47:58 CST 2022
User: usil
Spectrometer: V785-0024
Trigger mode: 0
Integration Time (sec): 4.000000E-1
Scans to average: 1
Nonlinearity correction enabled: false
Boxcar width: 0
Storing dark spectrum: false
XAxis mode: Wavelengths
Number of Pixels in Spectrum: 1024
>>>>>Begin Spectral Data<<<<<
801.071	28436
801.214	28272
801.356	28017
801.499	27987
801.641	27892
801.783	27941
801.926	28002
802.068	27998
802.211	27945
802.353	27907
802.496	27694
802.638	27641
802.78	27557
802.923	27435
803.065	27538
803.208	27595
803.35	27610
803.492	27701
803.635	27778
803.777	27720
803.919	28006
804.061	28021
804.204	27914
804.346	27694
804.488	27656
804.63	27835
804.773	27603
804.915	27823
805.057	27892
805.199	27759
805.341	27983
805.483	28040
805.626	27918
805.768	27850
805.91	28070
806.052	27979
806.194	27899
806.336	28143
806.478	28002
806.62	28013
806.762	28158
806.904	28238
807.046	28405
807.188	28542
807.33	28413
807.472	28371
807.614	28246
807.756	28478
807.898	28287
808.04	28280
808.182	28306
808.324	28310
808.465	28299
808.607	28390
808.749	28637
808.891	28717
809.033	28869
809.174	28812
809.316	28668
809.458	28626
809.6	28508
809.741	28847
809.883	28862
810.025	29014
810.166	28927
810.308	28923
810.45	28968
810.591	28809
810.733	28828
810.875	28626
811.016	28542
811.158	28561
811.299	28809
811.441	28866
811.582	28805
811.724	28683
811.865	28713
812.007	28622
812.148	28740
812.29	28710
812.431	28801
812.573	28900
812.714	29155
812.855	29113
812.997	29277
813.138	29315
813.279	29410
813.421	29292
813.562	29208
813.703	29022
813.845	28968
813.986	28736
814.127	28421
814.268	28417
814.41	28615
814.551	28291
814.692	28508
814.833	28268
814.974	28303
815.115	28409
815.256	28337
815.397	28101
815.539	28276
815.68	28204
815.821	28048
815.962	28226
816.103	28169
816.244	28101
816.385	27888
816.526	28006
816.666	27785
816.807	27656
816.948	27850
817.089	27888
817.23	27732
817.371	27701
817.512	27549
817.653	27660
817.793	27720
817.934	27675
818.075	27781
818.216	27793
818.356	27557
818.497	27644
818.638	27439
818.778	27492
818.919	27466
819.06	27545
819.2	27504
819.341	27698
819.481	27873
819.622	27816
819.762	28036
819.903	27983
820.043	27968
820.184	27831
820.324	27827
820.465	27895
820.605	27808
820.746	27728
820.886	27557
821.026	27861
821.167	27895
821.307	27876
821.447	27679
821.588	27641
821.728	27515
821.868	27386
822.008	27135
822.149	27180
822.289	27127
822.429	26948
822.569	26849
822.709	26807
822.849	26705
822.99	26845
823.13	26750
823.27	26579
823.41	26484
823.55	26461
823.69	26495
823.83	26568
823.97	26507
824.11	26381
824.25	26400
824.389	26267
824.529	26503
824.669	26396
824.809	26492
824.949	26385
825.089	26465
825.228	26511
825.368	26225
825.508	26244
825.648	26221
825.787	26275
825.927	26339
826.067	26157
826.206	26298
826.346	26324
826.485	26313
826.625	26263
826.765	26419
826.904	26305
827.044	26084
827.183	26107
827.323	25936
827.462	25997
827.601	25955
827.741	25826
827.88	26088
828.02	25822
828.159	25909
828.298	26027
828.437	25959
828.577	25864
828.716	25974
828.855	25947
828.994	25670
829.134	25750
829.273	25685
829.412	25639
829.551	25708
829.69	25719
829.829	25628
829.968	25856
830.107	25651
830.246	25814
830.385	25651
830.524	25521
830.663	25415
830.802	25419
830.941	25236
831.08	25278
831.219	25225
831.357	25373
831.496	25472
831.635	25285
831.774	25145
831.913	25187
832.051	25095
832.19	25072
832.329	25103
832.467	24954
832.606	24920
832.744	24810
832.883	24913
833.022	24954
833.16	24943
833.299	24897
833.437	24958
833.576	25088
833.714	25027
833.852	25118
833.991	25084
834.129	25076
834.267	25126
834.406	25053
834.544	25160
834.682	24973
834.821	25065
834.959	25129
835.097	24958
835.235	25042
835.373	24897
835.511	24992
835.65	24821
835.788	24928
835.926	24814
836.064	24563
836.202	24715
836.34	24730
836.478	24897
836.615	24700
836.753	24730
836.891	24844
837.029	24897
837.167	24859
837.305	24700
837.443	24665
837.58	24650
837.718	24829
837.856	24692
837.993	24601
838.131	24635
838.269	24502
838.406	24570
838.544	24570
838.681	24232
838.819	24194
838.956	24186
839.094	24121
839.231	24270
839.369	24369
839.506	24521
839.643	24410
839.781	24087
839.918	24045
840.055	24152
840.193	24121
840.33	23969
840.467	24030
840.604	24045
840.742	24281
840.879	23946
841.016	24022
841.153	23901
841.29	24015
841.427	23977
841.564	24038
841.701	24125
841.838	24068
841.975	23916
842.112	24003
842.249	23912
842.385	23813
842.522	24053
842.659	23836
842.796	23767
842.933	23783
843.069	23809
843.206	23824
843.343	23809
843.479	23729
843.616	23821
843.752	23547
843.889	23531
844.025	23649
844.162	23493
844.298	23566
844.435	23535
844.571	23505
844.708	23649
844.844	23726
844.98	23771
845.117	23722
845.253	23486
845.389	23402
845.525	23436
845.661	23395
845.798	23258
845.934	23235
846.07	23356
846.206	23212
846.342	23444
846.478	23235
846.614	23288
846.75	22957
846.886	23003
847.022	23041
847.158	23010
847.294	22968
847.429	23121
847.565	22961
847.701	23159
847.837	22736
847.972	22809
848.108	22873
848.244	22843
848.379	22778
848.515	22561
848.65	22664
848.786	22615
848.921	22664
849.057	22721
849.192	22512
849.328	22618
849.463	22611
849.598	22596
849.734	22630
849.869	22443
850.004	22299
850.14	22470
850.275	22382
850.41	22284
850.545	22466
850.68	22333
850.815	22462
850.95	22291
851.085	22538
851.22	22474
851.355	22356
851.49	22265
851.625	22325
851.76	22265
851.895	22303
852.03	22268
852.165	22344
852.299	22363
852.434	22424
852.569	22367
852.703	22398
852.838	22508
852.973	22485
853.107	22466
853.242	22481
853.376	22158
853.511	22105
853.645	22253
853.78	22432
853.914	22204
854.048	22166
854.183	22112
854.317	22181
854.451	22341
854.585	22310
854.72	22200
854.854	22223
854.988	22048
855.122	22177
855.256	22032
855.39	22143
855.524	22291
855.658	22135
855.792	22230
855.926	22200
856.06	22234
856.194	22272
856.327	22059
856.461	22105
856.595	22067
856.729	22074
856.862	22314
856.996	22238
857.13	22230
857.263	22257
857.397	22337
857.53	22265
857.664	22154
857.797	22196
857.931	22360
858.064	22128
858.197	22268
858.331	22188
858.464	22128
858.597	22093
858.731	22211
858.864	22109
858.997	22177
859.13	22166
859.263	22196
859.396	22204
859.529	22093
859.662	22105
859.795	22112
859.928	22139
860.061	22322
860.194	22234
860.327	22166
860.46	22219
860.592	22325
860.725	22268
860.858	22204
860.99	22147
861.123	22116
861.256	22181
861.388	22154
861.521	22691
861.653	22143
861.786	22021
861.918	22067
862.05	21975
862.183	22093
862.315	22223
862.447	22173
862.58	22109
862.712	21964
862.844	21751
862.976	21838
863.108	21854
863.24	22360
863.372	21968
863.504	21846
863.636	21838
863.768	21907
863.9	21759
864.032	21682
864.164	21770
864.296	21899
864.428	21979
864.559	21892
864.691	21953
864.823	21937
864.954	21857
865.086	21778
865.217	21842
865.349	21667
865.48	21778
865.612	21759
865.743	21915
865.875	21724
866.006	21713
866.137	21846
866.269	21819
866.4	21759
866.531	21671
866.662	21652
866.793	21759
866.924	21641
867.055	21751
867.186	21793
867.317	21587
867.448	21698
867.579	21667
867.71	21553
867.841	21679
867.972	21663
868.103	21679
868.233	21648
868.364	21614
868.495	21823
868.625	21941
868.756	22067
868.886	21968
869.017	21983
869.147	22051
869.278	22105
869.408	21930
869.539	21778
869.669	22204
869.799	21983
869.929	22086
870.06	21960
870.19	22341
870.32	22219
870.45	22257
870.58	22314
870.71	22443
870.84	22436
870.97	22379
871.1	22356
871.23	22531
871.36	22580
871.489	22333
871.619	22531
871.749	22573
871.879	22641
872.008	22618
872.138	22500
872.267	22561
872.397	22455
872.526	22356
872.656	22432
872.785	22363
872.915	22462
873.044	22596
873.173	22588
873.303	22588
873.432	22565
873.561	22752
873.69	22417
873.819	22516
873.948	22618
874.077	22535
874.206	22554
874.335	22596
874.464	22637
874.593	22835
874.722	22721
874.851	22755
874.979	22805
875.108	22866
875.237	22683
875.365	22615
875.494	22721
875.623	22881
875.751	22645
875.88	22850
876.008	22915
876.136	22991
876.265	23079
876.393	23117
876.521	23117
876.65	23223
876.778	23132
876.906	23086
877.034	23044
877.162	23200
877.29	23052
877.418	23151
877.546	23102
877.674	23170
877.802	23124
877.93	23193
878.058	23052
878.185	22900
878.313	23079
878.441	22995
878.568	22824
878.696	22953
878.824	23159
878.951	23185
879.079	23311
879.206	23414
879.333	23284
879.461	23086
879.588	23311
879.715	23231
879.842	23326
879.97	23197
880.097	22847
880.224	22927
880.351	23006
880.478	22934
880.605	22831
880.732	22889
880.859	23025
880.986	23029
881.112	22889
881.239	22721
881.366	22569
881.493	22683
881.619	22577
881.746	22561
881.872	22421
881.999	22459
882.125	22447
882.252	22424
882.378	22527
882.505	22512
882.631	22344
882.757	22188
882.883	22223
883.01	22158
883.136	22173
883.262	22109
883.388	22139
883.514	22154
883.64	22173
883.766	22067
883.892	21907
884.018	21983
884.143	22101
884.269	22131
884.395	21880
884.52	21743
884.646	21728
884.772	21682
884.897	21709
885.023	21895
885.148	21808
885.274	21926
885.399	21895
885.524	21854
885.65	21861
885.775	21766
885.9	21728
886.025	21892
886.15	21854
886.275	21739
886.4	21637
886.525	21762
886.65	21739
886.775	21743
886.9	21903
887.025	22021
887.149	21682
887.274	21633
887.399	21557
887.523	21477
887.648	21523
887.773	21466
887.897	21751
888.021	21595
888.146	21492
888.27	21564
888.395	21572
888.519	21530
888.643	21606
888.767	21504
888.891	21431
889.015	21302
889.139	21386
889.263	21397
889.387	21348
889.511	21420
889.635	21504
889.759	21268
889.883	21298
890.006	21363
890.13	21405
890.254	21321
890.377	21268
890.501	21150
890.624	21230
890.748	21093
890.871	20887
890.995	20891
891.118	20921
891.241	20929
891.364	20941
891.488	20960
891.611	20864
891.734	20902
891.857	20998
891.98	20956
892.103	20933
892.226	20895
892.349	20727
892.471	20670
892.594	20906
892.717	20872
892.839	20834
892.962	20777
893.085	20902
893.207	20727
893.33	20648
893.452	20811
893.575	20834
893.697	20644
893.819	20883
893.941	20918
894.064	20861
894.186	20705
894.308	20682
894.43	20788
894.552	20941
894.674	20937
894.796	20727
894.918	20792
895.04	20785
895.161	20777
895.283	20883
895.405	20674
895.526	20609
895.648	20762
895.769	20750
895.891	20743
896.012	20849
896.134	20861
896.255	20773
896.376	20735
896.498	20769
896.619	20807
896.74	20731
896.861	20891
896.982	21135
897.103	21294
897.224	21104
897.345	21032
897.466	20891
897.587	20994
897.708	21024
897.828	21017
897.949	21032
898.07	20864
898.19	20967
898.311	21074
898.431	21024
898.552	21013
898.672	21165
898.792	21123
898.913	20910
899.033	20902
899.153	20845
899.273	20606
899.393	20823
899.513	20777
899.633	20758
899.753	20735
899.873	20617
899.993	20682
900.113	20731
900.232	20701
900.352	20731
900.472	20568
900.591	20476
900.711	20632
900.83	20431
900.95	20583
901.069	20522
901.189	20343
901.308	20180
901.427	20073
901.546	20130
901.665	20138
901.784	20164
901.904	19890
902.023	19894
902.141	19544
902.26	19582
902.379	19620
902.498	19495
902.617	19609
902.735	19639
902.854	19506
902.973	19472
903.091	19331
903.21	19289
903.328	19168
903.446	19114
903.565	19122
903.683	18985
903.801	18817
903.919	19080
904.038	18947
904.156	18810
904.274	18829
904.392	18738
904.51	18707
904.627	18776
904.745	18745
904.863	18829
904.981	18574
905.098	18506
905.216	18460
905.334	18479
905.451	18456
905.569	18517
905.686	18456
905.803	18342
905.921	18296
906.038	18410
906.155	18327
906.272	18216
906.389	18216
906.506	18091
906.623	18144
906.74	18053
906.857	17916
906.974	17973
907.091	18007
907.208	18079
907.324	18022
907.441	17988
907.557	17821
907.674	17707
907.79	17634
907.907	17672
908.023	17676
908.139	17729
908.256	17710
908.372	17630
908.488	17539
908.604	17421
908.72	17356
908.836	17452
908.952	17463
909.068	17436
909.184	17444
909.3	17425
909.415	17425
909.531	17383
909.647	17181
909.762	17064
909.878	17075
909.993	17124
910.108	17136
910.224	17105
910.339	17071
910.454	16900
910.57	16896
910.685	16904
910.8	17166
910.915	17045
911.03	16942
911.145	16812
911.259	16759
911.374	16694
911.489	16641
911.604	16538
911.718	16402
911.833	16455
911.947	16306
912.062	16310
912.176	16550
912.291	16428
912.405	16409
912.519	16622
912.633	16618
912.748	16428
912.862	16398
912.976	16200
913.09	16116
913.204	16303
913.318	16363
913.431	16348
913.545	16348
913.659	16337
913.772	16188
913.886	16090
914	16032
914.113	16120
914.226	16162
914.34	16067
914.453	15903
914.566	16017
914.68	15953
914.793	15850
914.906	15686
915.019	15660
915.132	15701
915.245	15713
915.358	15713
915.47	15743
915.583	15690
915.696	15675
915.809	15781
915.921	15793
916.034	15553
916.146	15458
916.259	15591
916.371	15743
916.483	15553
916.595	15435
916.708	15542
916.82	15526
916.932	15344
917.044	15393
917.156	15420
917.268	15256
917.38	15393
917.491	15268
917.603	15275
917.715	15386
917.826	15310
917.938	15245
918.049	15150
918.161	15161
918.272	15370
918.384	15351
918.495	15222
918.606	15017
918.717	14956
918.828	15081
918.939	15001
919.05	14975
919.161	15062
919.272	14826
919.383	14941
919.494	15123
919.604	15119
919.715	14979
919.826	14982
919.936	15013
920.047	15058
920.157	15131
920.267	15203
920.378	14956
920.488	14948
920.598	15055
920.708	15237
920.818	15138
920.928	15112
921.038	15230
921.148	15195
921.258	14918
921.368	14834
921.477	14720
921.587	14819
921.697	14564
921.806	14659
921.916	14594
922.025	14358
922.134	14286
922.244	14385
922.353	14381
922.462	14103
922.571	14142
922.68	14008
922.789	13951
922.898	13986
923.007	13925
923.116	14031
923.224	13986
923.333	14039
923.442	13761
923.55	13803
923.659	13860
923.767	13868
923.876	13715
923.984	13807
924.092	13643
924.201	13700
924.309	13750
924.417	13746
924.525	13609
924.633	13655
924.741	14564
924.849	13426
924.956	13613
925.064	13419
925.172	13247
925.279	13312
925.387	13403
925.494	13324
925.602	13468
925.709	13445
925.816	13266
925.924	13335
926.031	13396
926.138	13301
926.245	13324
926.352	13270
926.459	13320
926.566	13381
926.673	13251
926.779	13149
926.886	13141
926.993	12859
927.099	12916
927.206	12939
927.312	12859
927.419	12924
927.525	12973
927.631	12932
927.737	12757
927.843	12837
927.95	12719
928.056	12749
928.162	12757
928.267	12882
928.373	13327
928.479	12844
928.585	12604
928.69	12726
928.796	12760
928.901	12604
929.007	12426
929.112	12608
929.218	12521
929.323	12407
929.428	12414
929.533	12563
929.638	12391
929.743	12441
929.848	12391
929.953	12353
930.058	12327
930.163	12144
930.267	12197
930.372	12330
930.477	12045
930.581	12357
930.685	12235
930.79	11980
930.894	12003
930.998	12034
931.103	12110
931.207	11813
931.311	11710
931.415	11539
931.519	11433
931.623	11379
