Data from test_V78500241_1647.txt Node
Date: Fri Mar 25 15:53:12 CST 2022
User: usil
Spectrometer: V785-0024
Trigger mode: 0
Integration Time (sec): 4.000000E-1
Scans to average: 1
Nonlinearity correction enabled: false
Boxcar width: 0
Storing dark spectrum: false
XAxis mode: Wavelengths
Number of Pixels in Spectrum: 1024
>>>>>Begin Spectral Data<<<<<
801.071	27842
801.214	27876
801.356	27705
801.499	27420
801.641	27561
801.783	27416
801.926	27458
802.068	27477
802.211	27405
802.353	27310
802.496	27256
802.638	27135
802.78	27081
802.923	27150
803.065	27039
803.208	27036
803.35	27119
803.492	27283
803.635	27294
803.777	27131
803.919	27355
804.061	27610
804.204	27553
804.346	27325
804.488	27279
804.63	27367
804.773	27245
804.915	27378
805.057	27477
805.199	27340
805.341	27427
805.483	27526
805.626	27519
805.768	27405
805.91	27538
806.052	27576
806.194	27462
806.336	27698
806.478	27572
806.62	27572
806.762	27663
806.904	27660
807.046	28051
807.188	27914
807.33	27926
807.472	28029
807.614	27781
807.756	27876
807.898	27857
808.04	27774
808.182	27728
808.324	27747
808.465	27907
808.607	28093
808.749	28051
808.891	28257
809.033	28409
809.174	28158
809.316	28105
809.458	28173
809.6	28036
809.741	28234
809.883	28306
810.025	28325
810.166	28443
810.308	28417
810.45	28344
810.591	28306
810.733	28242
810.875	28097
811.016	28051
811.158	28078
811.299	28192
811.441	28291
811.582	28181
811.724	28090
811.865	28002
812.007	28048
812.148	28162
812.29	28280
812.431	28268
812.573	28500
812.714	28462
812.855	28744
812.997	28733
813.138	28763
813.279	28793
813.421	28717
813.562	28596
813.703	28554
813.845	28257
813.986	28063
814.127	27895
814.268	27831
814.41	27918
814.551	27667
814.692	27804
814.833	27816
814.974	27869
815.115	27778
815.256	27603
815.397	27671
815.539	27595
815.68	27564
815.821	27606
815.962	27622
816.103	27622
816.244	27511
816.385	27374
816.526	27374
816.666	27340
816.807	27024
816.948	27279
817.089	27112
817.23	27135
817.371	27093
817.512	27070
817.653	27051
817.793	27089
817.934	27081
818.075	27230
818.216	27195
818.356	26952
818.497	26937
818.638	26842
818.778	26853
818.919	26883
819.06	26918
819.2	27070
819.341	27074
819.481	27142
819.622	27116
819.762	27378
819.903	27370
820.043	27367
820.184	27233
820.324	27211
820.465	27298
820.605	27085
820.746	27123
820.886	27104
821.026	27313
821.167	27188
821.307	27264
821.447	27154
821.588	27077
821.728	26960
821.868	26727
822.008	26606
822.149	26503
822.289	26571
822.429	26320
822.569	26408
822.709	26221
822.849	26191
822.99	26077
823.13	25978
823.27	26035
823.41	25871
823.55	25913
823.69	25906
823.83	25925
823.97	25868
824.11	25704
824.25	25670
824.389	25780
824.529	25921
824.669	25772
824.809	25883
824.949	25864
825.089	25803
825.228	25833
825.368	25662
825.508	25635
825.648	25529
825.787	25521
825.927	25662
826.067	25666
826.206	25449
826.346	25510
826.485	25670
826.625	25677
826.765	25635
826.904	25681
827.044	25285
827.183	25266
827.323	25324
827.462	25377
827.601	25331
827.741	25331
827.88	25373
828.02	25103
828.159	25240
828.298	25441
828.437	25381
828.577	25190
828.716	25415
828.855	25187
828.994	24992
829.134	25034
829.273	25008
829.412	24958
829.551	24962
829.69	25027
829.829	24935
829.968	25095
830.107	24947
830.246	24909
830.385	24913
830.524	24806
830.663	24768
830.802	24692
830.941	24547
831.08	24532
831.219	24719
831.357	24673
831.496	24646
831.635	24589
831.774	24502
831.913	24323
832.051	24403
832.19	24429
832.329	24308
832.467	24239
832.606	24273
832.744	24190
832.883	24262
833.022	24296
833.16	24300
833.299	24391
833.437	24330
833.576	24365
833.714	24243
833.852	24369
833.991	24475
834.129	24441
834.267	24479
834.406	24460
834.544	24422
834.682	24224
834.821	24323
834.959	24399
835.097	24239
835.235	24323
835.373	24296
835.511	24251
835.65	24216
835.788	24251
835.926	24034
836.064	23980
836.202	23893
836.34	24140
836.478	24304
836.615	24197
836.753	24117
836.891	24155
837.029	24163
837.167	24258
837.305	24053
837.443	23999
837.58	23958
837.718	23874
837.856	23961
837.993	23923
838.131	23973
838.269	23988
838.406	23996
838.544	23642
838.681	23691
838.819	23524
838.956	23356
839.094	23531
839.231	23577
839.369	23695
839.506	23855
839.643	23707
839.781	23261
839.918	23391
840.055	23493
840.193	23406
840.33	23372
840.467	23421
840.604	23444
840.742	23661
840.879	23273
841.016	23200
841.153	23315
841.29	23455
841.427	23364
841.564	23387
841.701	23406
841.838	23341
841.975	23296
842.112	23318
842.249	23200
842.385	23121
842.522	23364
842.659	23151
842.796	23060
842.933	23265
843.069	23029
843.206	23094
843.343	23220
843.479	23086
843.616	23075
843.752	22889
843.889	22995
844.025	23006
844.162	22923
844.298	23071
844.435	22816
844.571	22824
844.708	23075
844.844	23025
844.98	23105
845.117	22976
845.253	22911
845.389	22752
845.525	22778
845.661	22694
845.798	22580
845.934	22725
846.07	22672
846.206	22702
846.342	22721
846.478	22725
846.614	22443
846.75	22223
846.886	22421
847.022	22481
847.158	22405
847.294	22428
847.429	22481
847.565	22371
847.701	22573
847.837	22002
847.972	22109
848.108	22272
848.244	22211
848.379	21987
848.515	21895
848.65	21903
848.786	21991
848.921	21743
849.057	22067
849.192	22063
849.328	21975
849.463	21949
849.598	21869
849.734	21918
849.869	21793
850.004	21789
850.14	21819
850.275	21709
850.41	21610
850.545	21709
850.68	21671
850.815	21907
850.95	21781
851.085	21838
851.22	21823
851.355	21781
851.49	21724
851.625	21720
851.76	21804
851.895	21679
852.03	21660
852.165	21869
852.299	21648
852.434	21785
852.569	21800
852.703	21755
852.838	21854
852.973	21804
853.107	21797
853.242	21599
853.376	21648
853.511	21439
853.645	21458
853.78	21656
853.914	21485
854.048	21439
854.183	21504
854.317	21675
854.451	21789
854.585	21542
854.72	21542
854.854	21564
854.988	21515
855.122	21511
855.256	21485
855.39	21538
855.524	21568
855.658	21568
855.792	21682
855.926	21629
856.06	21591
856.194	21519
856.327	21564
856.461	21431
856.595	21507
856.729	21591
856.862	21770
856.996	21530
857.13	21663
857.263	21466
857.397	21793
857.53	21542
857.664	21500
857.797	21618
857.931	21656
858.064	21580
858.197	21770
858.331	21515
858.464	21504
858.597	21313
858.731	21485
858.864	21500
858.997	21454
859.13	21519
859.263	21549
859.396	21713
859.529	21622
859.662	21526
859.795	21568
859.928	21599
860.061	21728
860.194	21724
860.327	21572
860.46	21603
860.592	21755
860.725	21701
860.858	21736
860.99	21652
861.123	21504
861.256	21466
861.388	21496
861.521	22150
861.653	21363
861.786	21397
861.918	21367
862.05	21420
862.183	21492
862.315	21564
862.447	21458
862.58	21367
862.712	21264
862.844	21252
862.976	21443
863.108	21298
863.24	21808
863.372	21214
863.504	21260
863.636	21252
863.768	21302
863.9	21298
864.032	21146
864.164	21230
864.296	21272
864.428	21370
864.559	21306
864.691	21443
864.823	21207
864.954	21275
865.086	21176
865.217	21214
865.349	21001
865.48	21173
865.612	21154
865.743	21317
865.875	21218
866.006	21005
866.137	21226
866.269	21161
866.4	21199
866.531	21135
866.662	21074
866.793	21093
866.924	21062
867.055	21047
867.186	21009
867.317	21100
867.448	21024
867.579	20914
867.71	21047
867.841	20944
867.972	20986
868.103	21062
868.233	21089
868.364	21135
868.495	21127
868.625	21325
868.756	21587
868.886	21317
869.017	21279
869.147	21397
869.278	21447
869.408	21382
869.539	21397
869.669	21443
869.799	21359
869.929	21481
870.06	21462
870.19	21667
870.32	21641
870.45	21595
870.58	21656
870.71	21789
870.84	21838
870.97	21759
871.1	21694
871.23	21884
871.36	21743
871.489	21789
871.619	21903
871.749	21991
871.879	21934
872.008	22078
872.138	21804
872.267	21888
872.397	21755
872.526	21770
872.656	21846
872.785	21766
872.915	22040
873.044	22002
873.173	22025
873.303	21979
873.432	21972
873.561	22044
873.69	21934
873.819	21888
873.948	21918
874.077	21895
874.206	21934
874.335	21808
874.464	22036
874.593	22257
874.722	22192
874.851	22276
874.979	22116
875.108	22177
875.237	22249
875.365	22135
875.494	22166
875.623	22196
875.751	22131
875.88	22128
876.008	22295
876.136	22303
876.265	22611
876.393	22630
876.521	22596
876.65	22577
876.778	22481
876.906	22557
877.034	22527
877.162	22409
877.29	22512
877.418	22618
877.546	22557
877.674	22538
877.802	22455
877.93	22561
878.058	22447
878.185	22360
878.313	22535
878.441	22554
878.568	22322
878.696	22428
878.824	22538
878.951	22546
879.079	22641
879.206	22805
879.333	22615
879.461	22611
879.588	22596
879.715	22725
879.842	22869
879.97	22470
880.097	22329
880.224	22173
880.351	22333
880.478	22363
880.605	22204
880.732	22329
880.859	22546
880.986	22352
881.112	22344
881.239	22295
881.366	22013
881.493	22032
881.619	21876
881.746	21915
881.872	21854
881.999	21846
882.125	21823
882.252	21934
882.378	21873
882.505	21907
882.631	21778
882.757	21701
882.883	21698
883.01	21652
883.136	21538
883.262	21481
883.388	21420
883.514	21511
883.64	21625
883.766	21633
883.892	21370
884.018	21450
884.143	21705
884.269	21576
884.395	21359
884.52	21245
884.646	21313
884.772	21226
884.897	21260
885.023	21214
885.148	21329
885.274	21405
885.399	21340
885.524	21310
885.65	21192
885.775	21287
885.9	21157
886.025	21283
886.15	21302
886.275	21237
886.4	21096
886.525	21154
886.65	21161
886.775	21142
886.9	21287
887.025	21447
887.149	21093
887.274	21036
887.399	21001
887.523	20944
887.648	21039
887.773	20902
887.897	21180
888.021	21020
888.146	20925
888.27	21039
888.395	21062
888.519	21032
888.643	21043
888.767	21070
888.891	20902
889.015	20800
889.139	20811
889.263	20925
889.387	20853
889.511	21055
889.635	20956
889.759	20815
889.883	20682
890.006	20800
890.13	20918
890.254	20796
890.377	20705
890.501	20606
890.624	20461
890.748	20602
890.871	20431
890.995	20347
891.118	20351
891.241	20419
891.364	20336
891.488	20415
891.611	20461
891.734	20324
891.857	20427
891.98	20336
892.103	20381
892.226	20336
892.349	20271
892.471	20073
892.594	20324
892.717	20377
892.839	20259
892.962	20343
893.085	20309
893.207	20267
893.33	20092
893.452	20225
893.575	20305
893.697	20187
893.819	20465
893.941	20514
894.064	20377
894.186	20183
894.308	20119
894.43	20317
894.552	20294
894.674	20214
894.796	20119
894.918	20233
895.04	20301
895.161	20351
895.283	20343
895.405	20195
895.526	20351
895.648	20229
895.769	20233
895.891	20278
896.012	20301
896.134	20362
896.255	20168
896.376	20172
896.498	20343
896.619	20332
896.74	20233
896.861	20374
896.982	20632
897.103	20674
897.224	20655
897.345	20518
897.466	20568
897.587	20438
897.708	20587
897.828	20446
897.949	20454
898.07	20267
898.19	20454
898.311	20541
898.431	20423
898.552	20552
898.672	20575
898.792	20530
898.913	20461
899.033	20355
899.153	20457
899.273	20240
899.393	20271
899.513	20294
899.633	20427
899.753	20244
899.873	20199
899.993	20290
900.113	20214
900.232	20138
900.352	20119
900.472	20149
900.591	20142
900.711	20122
900.83	20073
900.95	20195
901.069	20126
901.189	19860
901.308	19662
901.427	19571
901.546	19651
901.665	19628
901.784	19674
901.904	19548
902.023	19419
902.141	19247
902.26	19225
902.379	19141
902.498	19118
902.617	19091
902.735	19061
902.854	19076
902.973	19000
903.091	18878
903.21	18913
903.328	18856
903.446	18779
903.565	18585
903.683	18612
903.801	18464
903.919	18620
904.038	18498
904.156	18433
904.274	18483
904.392	18361
904.51	18338
904.627	18308
904.745	18376
904.863	18407
904.981	18277
905.098	18076
905.216	18011
905.334	18106
905.451	18079
905.569	18155
905.686	17908
905.803	18045
905.921	17802
906.038	17832
906.155	17832
906.272	17699
906.389	17851
906.506	17611
906.623	17596
906.74	17608
906.857	17532
906.974	17395
907.091	17718
907.208	17615
907.324	17684
907.441	17497
907.557	17318
907.674	17402
907.79	17265
907.907	17212
908.023	17353
908.139	17235
908.256	17197
908.372	17162
908.488	17200
908.604	17037
908.72	16976
908.836	17060
908.952	16965
909.068	17025
909.184	17155
909.3	17075
909.415	17033
909.531	16987
909.647	16793
909.762	16755
909.878	16683
909.993	16774
910.108	16767
910.224	16687
910.339	16687
910.454	16615
910.57	16592
910.685	16436
910.8	16725
910.915	16721
911.03	16603
911.145	16352
911.259	16295
911.374	16287
911.489	16215
911.604	16071
911.718	16097
911.833	16067
911.947	15930
912.062	15956
912.176	16017
912.291	16116
912.405	16044
912.519	16226
912.633	16238
912.748	16013
912.862	16086
912.976	15861
913.09	15785
913.204	15827
913.318	15816
913.431	15865
913.545	15953
913.659	15869
913.772	15770
913.886	15641
914	15717
914.113	15637
914.226	15873
914.34	15751
914.453	15584
914.566	15629
914.68	15606
914.793	15469
914.906	15355
915.019	15298
915.132	15230
915.245	15169
915.358	15241
915.47	15325
915.583	15306
915.696	15275
915.809	15329
915.921	15450
916.034	15222
916.146	15169
916.259	15093
916.371	15275
916.483	15165
916.595	15123
916.708	15032
916.82	15100
916.932	15024
917.044	15097
917.156	15123
917.268	14906
917.38	14990
917.491	14899
917.603	14830
917.715	14967
917.826	15001
917.938	14883
918.049	14857
918.161	14906
918.272	15043
918.384	14944
918.495	14792
918.606	14754
918.717	14590
918.828	14689
918.939	14724
919.05	14632
919.161	14682
919.272	14492
919.383	14533
919.494	14689
919.604	14887
919.715	14655
919.826	14518
919.936	14568
920.047	14674
920.157	14560
920.267	14834
920.378	14781
920.488	14636
920.598	14819
920.708	14811
920.818	14838
920.928	14746
921.038	14918
921.148	14902
921.258	14659
921.368	14549
921.477	14377
921.587	14343
921.697	14210
921.806	14377
921.916	14199
922.025	14031
922.134	13970
922.244	13974
922.353	14054
922.462	13940
922.571	13830
922.68	13689
922.789	13613
922.898	13696
923.007	13590
923.116	13769
923.224	13647
923.333	13639
923.442	13552
923.55	13502
923.659	13529
923.767	13624
923.876	13434
923.984	13499
924.092	13407
924.201	13514
924.309	13388
924.417	13362
924.525	13343
924.633	13304
924.741	14073
924.849	13179
924.956	13240
925.064	12958
925.172	13004
925.279	13107
925.387	13137
925.494	13103
925.602	13263
925.709	13118
925.816	12916
925.924	13088
926.031	13084
926.138	12939
926.245	13091
926.352	12970
926.459	12985
926.566	13118
926.673	12924
926.779	12791
926.886	12844
926.993	12719
927.099	12597
927.206	12623
927.312	12623
927.419	12684
927.525	12639
927.631	12696
927.737	12551
927.843	12513
927.95	12437
928.056	12475
928.162	12384
928.267	12407
928.373	13137
928.479	12604
928.585	12273
928.69	12399
928.796	12486
928.901	12342
929.007	12190
929.112	12357
929.218	12251
929.323	12254
929.428	12197
929.533	12330
929.638	12121
929.743	12114
929.848	12159
929.953	12155
930.058	12045
930.163	11885
930.267	11916
930.372	12041
930.477	11832
930.581	12091
930.685	11813
930.79	11790
930.894	11752
930.998	11741
931.103	11904
931.207	11448
931.311	11444
931.415	11292
931.519	11098
931.623	11056
