Data from test_V78500241_1539.txt Node
Date: Fri Mar 25 15:52:27 CST 2022
User: usil
Spectrometer: V785-0024
Trigger mode: 0
Integration Time (sec): 4.000000E-1
Scans to average: 1
Nonlinearity correction enabled: false
Boxcar width: 0
Storing dark spectrum: false
XAxis mode: Wavelengths
Number of Pixels in Spectrum: 1024
>>>>>Begin Spectral Data<<<<<
801.071	28219
801.214	28048
801.356	28078
801.499	27759
801.641	27808
801.783	27717
801.926	27774
802.068	27766
802.211	27732
802.353	27542
802.496	27447
802.638	27420
802.78	27427
802.923	27317
803.065	27211
803.208	27393
803.35	27416
803.492	27477
803.635	27603
803.777	27393
803.919	27534
804.061	28044
804.204	27739
804.346	27515
804.488	27477
804.63	27641
804.773	27511
804.915	27641
805.057	27892
805.199	27481
805.341	27774
805.483	27831
805.626	27743
805.768	27717
805.91	27736
806.052	27899
806.194	27736
806.336	27884
806.478	27823
806.62	27854
806.762	27975
806.904	28154
807.046	28348
807.188	28131
807.33	28295
807.472	28207
807.614	28207
807.756	28379
807.898	28128
808.04	27991
808.182	28082
808.324	28086
808.465	28131
808.607	28341
808.749	28371
808.891	28478
809.033	28615
809.174	28554
809.316	28405
809.458	28409
809.6	28280
809.741	28668
809.883	28660
810.025	28816
810.166	28831
810.308	28660
810.45	28664
810.591	28554
810.733	28481
810.875	28504
811.016	28295
811.158	28371
811.299	28637
811.441	28527
811.582	28573
811.724	28485
811.865	28523
812.007	28424
812.148	28424
812.29	28485
812.431	28607
812.573	28835
812.714	28930
812.855	29022
812.997	29094
813.138	29189
813.279	29056
813.421	29121
813.562	28797
813.703	28713
813.845	28641
813.986	28569
814.127	28223
814.268	28051
814.41	28131
814.551	28173
814.692	28188
814.833	28021
814.974	28207
815.115	28242
815.256	28105
815.397	28078
815.539	28131
815.68	28040
815.821	27816
815.962	27941
816.103	27937
816.244	27819
816.385	27717
816.526	27728
816.666	27606
816.807	27519
816.948	27507
817.089	27610
817.23	27500
817.371	27431
817.512	27439
817.653	27473
817.793	27462
817.934	27412
818.075	27477
818.216	27374
818.356	27382
818.497	27306
818.638	27058
818.778	27093
818.919	27165
819.06	27176
819.2	27294
819.341	27424
819.481	27321
819.622	27557
819.762	27724
819.903	27625
820.043	27667
820.184	27591
820.324	27538
820.465	27641
820.605	27568
820.746	27694
820.886	27519
821.026	27557
821.167	27641
821.307	27686
821.447	27469
821.588	27469
821.728	27226
821.868	27096
822.008	26975
822.149	26895
822.289	26895
822.429	26663
822.569	26552
822.709	26621
822.849	26450
822.99	26552
823.13	26351
823.27	26332
823.41	26214
823.55	26233
823.69	26180
823.83	26275
823.97	26240
824.11	25944
824.25	25940
824.389	26050
824.529	26142
824.669	26153
824.809	26233
824.949	26180
825.089	26103
825.228	26054
825.368	25951
825.508	26046
825.648	25993
825.787	26122
825.927	25932
826.067	26020
826.206	25925
826.346	26027
826.485	26016
826.625	25974
826.765	26142
826.904	26001
827.044	25833
827.183	25738
827.323	25655
827.462	25662
827.601	25795
827.741	25529
827.88	25677
828.02	25521
828.159	25518
828.298	25693
828.437	25807
828.577	25594
828.716	25795
828.855	25537
828.994	25335
829.134	25362
829.273	25499
829.412	25316
829.551	25396
829.69	25251
829.829	25445
829.968	25400
830.107	25540
830.246	25381
830.385	25274
830.524	25331
830.663	25240
830.802	25202
830.941	24928
831.08	24951
831.219	25076
831.357	25012
831.496	25240
831.635	24886
831.774	24947
831.913	24863
832.051	24661
832.19	24848
832.329	24722
832.467	24673
832.606	24585
832.744	24532
832.883	24635
833.022	24726
833.16	24722
833.299	24684
833.437	24760
833.576	24806
833.714	24726
833.852	24806
833.991	24738
834.129	24779
834.267	24753
834.406	24806
834.544	24764
834.682	24684
834.821	24703
834.959	24783
835.097	24585
835.235	24726
835.373	24681
835.511	24650
835.65	24665
835.788	24620
835.926	24380
836.064	24414
836.202	24559
836.34	24521
836.478	24597
836.615	24551
836.753	24532
836.891	24604
837.029	24460
837.167	24448
837.305	24376
837.443	24612
837.58	24372
837.718	24513
837.856	24270
837.993	24220
838.131	24410
838.269	24197
838.406	24239
838.544	24258
838.681	23973
838.819	23935
838.956	23923
839.094	23843
839.231	23863
839.369	24026
839.506	24163
839.643	24045
839.781	23840
839.918	23726
840.055	23916
840.193	23752
840.33	23855
840.467	23885
840.604	23783
840.742	24159
840.879	23562
841.016	23691
841.153	23581
841.29	23893
841.427	23760
841.564	23752
841.701	23653
841.838	23745
841.975	23615
842.112	23615
842.249	23535
842.385	23589
842.522	23642
842.659	23809
842.796	23516
842.933	23547
843.069	23539
843.206	23417
843.343	23611
843.479	23562
843.616	23497
843.752	23254
843.889	23299
844.025	23406
844.162	23231
844.298	23360
844.435	23334
844.571	23242
844.708	23299
844.844	23490
844.98	23414
845.117	23303
845.253	23296
845.389	23151
845.525	23231
845.661	23109
845.798	23010
845.934	23102
846.07	22915
846.206	22972
846.342	23105
846.478	23006
846.614	22763
846.75	22611
846.886	22675
847.022	22877
847.158	22759
847.294	22717
847.429	22725
847.565	22790
847.701	23014
847.837	22504
847.972	22512
848.108	22417
848.244	22531
848.379	22470
848.515	22352
848.65	22238
848.786	22360
848.921	22329
849.057	22390
849.192	22409
849.328	22265
849.463	22200
849.598	22291
849.734	22223
849.869	22109
850.004	22051
850.14	21983
850.275	22166
850.41	22032
850.545	21953
850.68	22105
850.815	22120
850.95	22070
851.085	22291
851.22	22276
851.355	22051
851.49	21918
851.625	22074
851.76	22120
851.895	22032
852.03	21987
852.165	21937
852.299	22101
852.434	22291
852.569	22204
852.703	22055
852.838	22051
852.973	22261
853.107	22181
853.242	22070
853.376	22067
853.511	21774
853.645	21922
853.78	22017
853.914	21956
854.048	21751
854.183	21911
854.317	21998
854.451	22078
854.585	21888
854.72	21945
854.854	21930
854.988	21884
855.122	22040
855.256	21698
855.39	21991
855.524	21953
855.658	21934
855.792	21918
855.926	21934
856.06	22044
856.194	22070
856.327	21907
856.461	21857
856.595	21865
856.729	21907
856.862	22036
856.996	22010
857.13	21915
857.263	21987
857.397	22040
857.53	21907
857.664	21949
857.797	21876
857.931	21998
858.064	21850
858.197	21983
858.331	21915
858.464	21842
858.597	21774
858.731	21964
858.864	21918
858.997	21880
859.13	21819
859.263	21979
859.396	22090
859.529	21892
859.662	21823
859.795	21941
859.928	21861
860.061	22029
860.194	22158
860.327	21991
860.46	21926
860.592	22002
860.725	22143
860.858	22131
860.99	22055
861.123	21823
861.256	21770
861.388	21953
861.521	22436
861.653	21778
861.786	21789
861.918	21739
862.05	21831
862.183	21759
862.315	21979
862.447	21903
862.58	21812
862.712	21751
862.844	21622
862.976	21759
863.108	21663
863.24	22162
863.372	21644
863.504	21660
863.636	21652
863.768	21816
863.9	21629
864.032	21591
864.164	21671
864.296	21713
864.428	21831
864.559	21580
864.691	21743
864.823	21713
864.954	21618
865.086	21660
865.217	21553
865.349	21568
865.48	21504
865.612	21469
865.743	21644
865.875	21549
866.006	21561
866.137	21515
866.269	21405
866.4	21572
866.531	21412
866.662	21393
866.793	21488
866.924	21370
867.055	21561
867.186	21572
867.317	21492
867.448	21329
867.579	21443
867.71	21275
867.841	21363
867.972	21412
868.103	21420
868.233	21386
868.364	21378
868.495	21572
868.625	21652
868.756	21926
868.886	21561
869.017	21793
869.147	21873
869.278	21701
869.408	21865
869.539	21793
869.669	21888
869.799	21884
869.929	21838
870.06	21857
870.19	22116
870.32	22055
870.45	22070
870.58	22067
870.71	22200
870.84	22371
870.97	22116
871.1	22044
871.23	22291
871.36	22314
871.489	22223
871.619	22310
871.749	22276
871.879	22367
872.008	22398
872.138	22440
872.267	22299
872.397	22147
872.526	22230
872.656	22093
872.785	22196
872.915	22386
873.044	22356
873.173	22303
873.303	22348
873.432	22428
873.561	22474
873.69	22337
873.819	22344
873.948	22405
874.077	22333
874.206	22356
874.335	22295
874.464	22462
874.593	22421
874.722	22577
874.851	22561
874.979	22679
875.108	22679
875.237	22493
875.365	22417
875.494	22470
875.623	22710
875.751	22561
875.88	22466
876.008	22809
876.136	22713
876.265	23006
876.393	23064
876.521	22965
876.65	23033
876.778	22923
876.906	22961
877.034	22835
877.162	22881
877.29	22790
877.418	22976
877.546	22892
877.674	23014
877.802	22854
877.93	22915
878.058	22877
878.185	22843
878.313	22885
878.441	22744
878.568	22668
878.696	22877
878.824	22889
878.951	23083
879.079	23010
879.206	23117
879.333	23056
879.461	22896
879.588	22953
879.715	22915
879.842	23132
879.97	22968
880.097	22778
880.224	22831
880.351	22691
880.478	22748
880.605	22771
880.732	22733
880.859	22938
880.986	22713
881.112	22759
881.239	22611
881.366	22417
881.493	22344
881.619	22310
881.746	22352
881.872	22242
881.999	22196
882.125	22276
882.252	22325
882.378	22109
882.505	22375
882.631	22101
882.757	22086
882.883	22067
883.01	21918
883.136	22013
883.262	21808
883.388	21812
883.514	21979
883.64	21968
883.766	21789
883.892	21724
884.018	21888
884.143	21899
884.269	22131
884.395	21759
884.52	21599
884.646	21724
884.772	21458
884.897	21389
885.023	21523
885.148	21766
885.274	21743
885.399	21732
885.524	21614
885.65	21599
885.775	21690
885.9	21576
886.025	21637
886.15	21781
886.275	21591
886.4	21561
886.525	21606
886.65	21523
886.775	21500
886.9	21629
887.025	21850
887.149	21682
887.274	21443
887.399	21359
887.523	21466
887.648	21420
887.773	21294
887.897	21466
888.021	21420
888.146	21294
888.27	21382
888.395	21496
888.519	21302
888.643	21443
888.767	21443
888.891	21245
889.015	21119
889.139	21302
889.263	21230
889.387	21237
889.511	21344
889.635	21230
889.759	21237
889.883	21138
890.006	21214
890.13	21363
890.254	21127
890.377	21195
890.501	21039
890.624	20887
890.748	20823
890.871	20834
890.995	20762
891.118	20602
891.241	20750
891.364	20701
891.488	20891
891.611	20754
891.734	20720
891.857	20674
891.98	20788
892.103	20697
892.226	20712
892.349	20663
892.471	20530
892.594	20625
892.717	20731
892.839	20648
892.962	20625
893.085	20659
893.207	20621
893.33	20446
893.452	20469
893.575	20697
893.697	20594
893.819	20781
893.941	20800
894.064	20697
894.186	20571
894.308	20545
894.43	20663
894.552	20773
894.674	20712
894.796	20537
894.918	20648
895.04	20571
895.161	20743
895.283	20640
895.405	20617
895.526	20663
895.648	20583
895.769	20609
895.891	20701
896.012	20727
896.134	20735
896.255	20571
896.376	20564
896.498	20564
896.619	20609
896.74	20651
896.861	20724
896.982	20971
897.103	21055
897.224	20811
897.345	20876
897.466	20807
897.587	20849
897.708	20986
897.828	20838
897.949	20743
898.07	20579
898.19	20781
898.311	20754
898.431	20853
898.552	20815
898.672	20986
898.792	20739
898.913	20796
899.033	20792
899.153	20606
899.273	20492
899.393	20533
899.513	20625
899.633	20621
899.753	20526
899.873	20438
899.993	20552
900.113	20469
900.232	20571
900.352	20492
900.472	20366
900.591	20358
900.711	20313
900.83	20362
900.95	20514
901.069	20389
901.189	20210
901.308	19970
901.427	19902
901.546	20031
901.665	20005
901.784	19986
901.904	19772
902.023	19693
902.141	19525
902.26	19365
902.379	19483
902.498	19362
902.617	19434
902.735	19464
902.854	19369
902.973	19266
903.091	19061
903.21	19019
903.328	19034
903.446	18981
903.565	18935
903.683	18798
903.801	18814
903.919	18772
904.038	18894
904.156	18654
904.274	18722
904.392	18642
904.51	18570
904.627	18585
904.745	18719
904.863	18745
904.981	18464
905.098	18327
905.216	18311
905.334	18292
905.451	18266
905.569	18247
905.686	18304
905.803	18350
905.921	18174
906.038	18155
906.155	18163
906.272	17950
906.389	17908
906.506	17920
906.623	17878
906.74	17996
906.857	17668
906.974	17726
907.091	17832
907.208	17992
907.324	17783
907.441	17752
907.557	17611
907.674	17573
907.79	17398
907.907	17486
908.023	17608
908.139	17528
908.256	17486
908.372	17497
908.488	17341
908.604	17318
908.72	17223
908.836	17261
908.952	17292
909.068	17315
909.184	17391
909.3	17185
909.415	17284
909.531	17277
909.647	17003
909.762	17029
909.878	16972
909.993	16976
910.108	16904
910.224	16942
910.339	16976
910.454	16816
910.57	16847
910.685	16763
910.8	16987
910.915	16885
911.03	16755
911.145	16580
911.259	16558
911.374	16481
911.489	16443
911.604	16405
911.718	16234
911.833	16329
911.947	16135
912.062	16162
912.176	16363
912.291	16424
912.405	16318
912.519	16413
912.633	16428
912.748	16219
912.862	16249
912.976	16150
913.09	15983
913.204	16116
913.318	16215
913.431	16154
913.545	16101
913.659	16234
913.772	16078
913.886	15998
914	15816
914.113	16067
914.226	16105
914.34	15945
914.453	15720
914.566	15979
914.68	15835
914.793	15808
914.906	15603
915.019	15496
915.132	15477
915.245	15507
915.358	15435
915.47	15526
915.583	15492
915.696	15488
915.809	15652
915.921	15629
916.034	15462
916.146	15431
916.259	15447
916.371	15378
916.483	15485
916.595	15397
916.708	15340
916.82	15294
916.932	15233
917.044	15298
917.156	15256
917.268	15237
917.38	15180
917.491	15142
917.603	15184
917.715	15135
917.826	15165
917.938	15047
918.049	15039
918.161	15036
918.272	15184
918.384	15138
918.495	15066
918.606	14982
918.717	14807
918.828	14925
918.939	14864
919.05	14849
919.161	14807
919.272	14678
919.383	14731
919.494	14883
919.604	15055
919.715	14815
919.826	14872
919.936	14914
920.047	14971
920.157	14819
920.267	15081
920.378	14891
920.488	14792
920.598	14994
920.708	15157
920.818	15108
920.928	14883
921.038	15062
921.148	15058
921.258	14910
921.368	14659
921.477	14602
921.587	14575
921.697	14537
921.806	14583
921.916	14484
922.025	14263
922.134	14248
922.244	14263
922.353	14294
922.462	14054
922.571	14046
922.68	13833
922.789	13837
922.898	13814
923.007	13856
923.116	13883
923.224	13776
923.333	13799
923.442	13731
923.55	13715
923.659	13674
923.767	13761
923.876	13658
923.984	13658
924.092	13658
924.201	13590
924.309	13556
924.417	13628
924.525	13506
924.633	13529
924.741	14423
924.849	13369
924.956	13388
925.064	13354
925.172	13228
925.279	13289
925.387	13213
925.494	13278
925.602	13312
925.709	13270
925.816	13164
925.924	13221
926.031	13297
926.138	13129
926.245	13244
926.352	13069
926.459	13206
926.566	13247
926.673	13034
926.779	13031
926.886	13015
926.993	12909
927.099	12837
927.206	12730
927.312	12829
927.419	12768
927.525	12814
927.631	12825
927.737	12726
927.843	12658
927.95	12623
928.056	12574
928.162	12620
928.267	12684
928.373	13316
928.479	12711
928.585	12464
928.69	12521
928.796	12684
928.901	12494
929.007	12426
929.112	12433
929.218	12418
929.323	12407
929.428	12251
929.533	12441
929.638	12254
929.743	12334
929.848	12304
929.953	12319
930.058	12243
930.163	12019
930.267	12121
930.372	12220
930.477	11999
930.581	12129
930.685	12106
930.79	11912
930.894	11946
930.998	11893
931.103	12041
931.207	11665
931.311	11600
931.415	11497
931.519	11318
931.623	11307
