Data from test_V78500241_1005.txt Node
Date: Fri Mar 25 15:48:45 CST 2022
User: usil
Spectrometer: V785-0024
Trigger mode: 0
Integration Time (sec): 4.000000E-1
Scans to average: 1
Nonlinearity correction enabled: false
Boxcar width: 0
Storing dark spectrum: false
XAxis mode: Wavelengths
Number of Pixels in Spectrum: 1024
>>>>>Begin Spectral Data<<<<<
801.071	28276
801.214	28242
801.356	28021
801.499	27861
801.641	27880
801.783	27892
801.926	27922
802.068	27656
802.211	27686
802.353	27728
802.496	27523
802.638	27481
802.78	27466
802.923	27454
803.065	27408
803.208	27416
803.35	27553
803.492	27705
803.635	27534
803.777	27614
803.919	27671
804.061	28021
804.204	27778
804.346	27614
804.488	27564
804.63	27671
804.773	27682
804.915	27652
805.057	27785
805.199	27724
805.341	27797
805.483	27679
805.626	27800
805.768	27572
805.91	27717
806.052	28021
806.194	27743
806.336	27884
806.478	27876
806.62	27850
806.762	27979
806.904	28070
807.046	28360
807.188	28474
807.33	28242
807.472	28352
807.614	28124
807.756	28147
807.898	28230
808.04	28162
808.182	28025
808.324	28196
808.465	28116
808.607	28421
808.749	28649
808.891	28550
809.033	28721
809.174	28508
809.316	28523
809.458	28344
809.6	28474
809.741	28672
809.883	28645
810.025	28812
810.166	28725
810.308	28919
810.45	28801
810.591	28733
810.733	28504
810.875	28478
811.016	28451
811.158	28379
811.299	28618
811.441	28801
811.582	28793
811.724	28516
811.865	28519
812.007	28493
812.148	28634
812.29	28611
812.431	28603
812.573	28839
812.714	29052
812.855	28999
812.997	29098
813.138	29315
813.279	29155
813.421	29113
813.562	29105
813.703	28888
813.845	28858
813.986	28516
814.127	28318
814.268	28215
814.41	28303
814.551	28120
814.692	28234
814.833	28322
814.974	28200
815.115	28238
815.256	28097
815.397	28078
815.539	28192
815.68	27964
815.821	27869
815.962	28025
816.103	28067
816.244	27911
816.385	27842
816.526	27827
816.666	27789
816.807	27705
816.948	27587
817.089	27618
817.23	27587
817.371	27618
817.512	27629
817.653	27519
817.793	27401
817.934	27477
818.075	27439
818.216	27587
818.356	27542
818.497	27389
818.638	27313
818.778	27199
818.919	27279
819.06	27313
819.2	27435
819.341	27511
819.481	27458
819.622	27671
819.762	27903
819.903	27861
820.043	27739
820.184	27701
820.324	27698
820.465	27675
820.605	27724
820.746	27557
820.886	27412
821.026	27694
821.167	27622
821.307	27660
821.447	27644
821.588	27435
821.728	27367
821.868	27195
822.008	27036
822.149	27127
822.289	27005
822.429	26815
822.569	26754
822.709	26682
822.849	26564
822.99	26587
823.13	26495
823.27	26526
823.41	26336
823.55	26294
823.69	26393
823.83	26351
823.97	26225
824.11	26187
824.25	26153
824.389	26062
824.529	26199
824.669	26153
824.809	26233
824.949	26286
825.089	26355
825.228	26062
825.368	26191
825.508	26134
825.648	26054
825.787	25997
825.927	26062
826.067	25928
826.206	25906
826.346	26084
826.485	26122
826.625	26092
826.765	26214
826.904	26012
827.044	25795
827.183	25826
827.323	25704
827.462	25765
827.601	25746
827.741	25750
827.88	25883
828.02	25578
828.159	25807
828.298	25875
828.437	25837
828.577	25715
828.716	25841
828.855	25734
828.994	25422
829.134	25590
829.273	25552
829.412	25339
829.551	25453
829.69	25472
829.829	25468
829.968	25563
830.107	25502
830.246	25472
830.385	25354
830.524	25232
830.663	25343
830.802	25183
830.941	25019
831.08	25069
831.219	25091
831.357	25236
831.496	25213
831.635	24996
831.774	24977
831.913	24935
832.051	24954
832.19	24897
832.329	24916
832.467	24837
832.606	24658
832.744	24776
832.883	24688
833.022	24852
833.16	24776
833.299	24715
833.437	24795
833.576	24939
833.714	24886
833.852	24871
833.991	24844
834.129	24890
834.267	24951
834.406	24798
834.544	24821
834.682	24783
834.821	24768
834.959	24977
835.097	24726
835.235	24760
835.373	24951
835.511	24711
835.65	24604
835.788	24688
835.926	24642
836.064	24452
836.202	24498
836.34	24623
836.478	24692
836.615	24688
836.753	24601
836.891	24688
837.029	24642
837.167	24574
837.305	24551
837.443	24513
837.58	24486
837.718	24544
837.856	24547
837.993	24350
838.131	24509
838.269	24319
838.406	24365
838.544	24342
838.681	24121
838.819	24053
838.956	23893
839.094	23775
839.231	23897
839.369	24083
839.506	24209
839.643	24213
839.781	24049
839.918	23828
840.055	23942
840.193	23805
840.33	23904
840.467	23847
840.604	23954
840.742	24045
840.879	23699
841.016	23748
841.153	23691
841.29	23927
841.427	23813
841.564	23779
841.701	23828
841.838	23859
841.975	23779
842.112	23691
842.249	23668
842.385	23585
842.522	23980
842.659	23516
842.796	23615
842.933	23649
843.069	23657
843.206	23463
843.343	23535
843.479	23482
843.616	23623
843.752	23387
843.889	23433
844.025	23539
844.162	23391
844.298	23497
844.435	23299
844.571	23265
844.708	23311
844.844	23493
844.98	23463
845.117	23379
845.253	23280
845.389	23193
845.525	23273
845.661	23132
845.798	23098
845.934	23037
846.07	23041
846.206	23159
846.342	23147
846.478	23033
846.614	22869
846.75	22729
846.886	22721
847.022	22881
847.158	22824
847.294	22812
847.429	22839
847.565	22835
847.701	23136
847.837	22577
847.972	22493
848.108	22569
848.244	22443
848.379	22500
848.515	22455
848.65	22459
848.786	22447
848.921	22451
849.057	22497
849.192	22550
849.328	22443
849.463	22424
849.598	22242
849.734	22299
849.869	22261
850.004	22173
850.14	22230
850.275	22162
850.41	22025
850.545	22025
850.68	22128
850.815	22177
850.95	22135
851.085	22306
851.22	22139
851.355	22207
851.49	22166
851.625	22112
851.76	22211
851.895	22090
852.03	22097
852.165	22147
852.299	22162
852.434	22150
852.569	22116
852.703	22109
852.838	22375
852.973	22200
853.107	22344
853.242	22139
853.376	21987
853.511	22017
853.645	22002
853.78	22070
853.914	22051
854.048	21945
854.183	21922
854.317	22013
854.451	22059
854.585	22048
854.72	22017
854.854	22158
854.988	21949
855.122	21998
855.256	21854
855.39	21949
855.524	21983
855.658	22036
855.792	21907
855.926	21987
856.06	22048
856.194	22010
856.327	21918
856.461	22013
856.595	21873
856.729	21873
856.862	22059
856.996	22010
857.13	22070
857.263	22147
857.397	22112
857.53	22059
857.664	22002
857.797	22124
857.931	22021
858.064	21854
858.197	22097
858.331	22021
858.464	21911
858.597	21869
858.731	21766
858.864	21911
858.997	21953
859.13	21888
859.263	22010
859.396	22006
859.529	21960
859.662	21911
859.795	21941
859.928	22025
860.061	22097
860.194	22150
860.327	22196
860.46	22013
860.592	21953
860.725	22268
860.858	22116
860.99	22029
861.123	21945
861.256	21892
861.388	21937
861.521	22755
861.653	21846
861.786	21732
861.918	21842
862.05	21869
862.183	21983
862.315	21907
862.447	22082
862.58	21930
862.712	21701
862.844	21728
862.976	21857
863.108	21800
863.24	22139
863.372	21675
863.504	21641
863.636	21572
863.768	21713
863.9	21728
864.032	21557
864.164	21781
864.296	21743
864.428	21816
864.559	21561
864.691	21667
864.823	21625
864.954	21762
865.086	21778
865.217	21572
865.349	21561
865.48	21473
865.612	21599
865.743	21743
865.875	21583
866.006	21599
866.137	21580
866.269	21557
866.4	21587
866.531	21485
866.662	21469
866.793	21652
866.924	21561
867.055	21519
867.186	21530
867.317	21523
867.448	21424
867.579	21564
867.71	21370
867.841	21416
867.972	21492
868.103	21618
868.233	21534
868.364	21492
868.495	21530
868.625	21698
868.756	21819
868.886	21724
869.017	21778
869.147	21968
869.278	21865
869.408	21808
869.539	21705
869.669	21835
869.799	21831
869.929	21873
870.06	21949
870.19	22036
870.32	22010
870.45	22093
870.58	22048
870.71	22196
870.84	22207
870.97	22185
871.1	22048
871.23	22348
871.36	22249
871.489	22276
871.619	22481
871.749	22344
871.879	22356
872.008	22432
872.138	22291
872.267	22367
872.397	22234
872.526	22105
872.656	22139
872.785	22101
872.915	22466
873.044	22440
873.173	22455
873.303	22337
873.432	22459
873.561	22523
873.69	22325
873.819	22261
873.948	22451
874.077	22409
874.206	22348
874.335	22322
874.464	22424
874.593	22634
874.722	22588
874.851	22664
874.979	22637
875.108	22641
875.237	22546
875.365	22497
875.494	22546
875.623	22691
875.751	22561
875.88	22634
876.008	22516
876.136	22668
876.265	22957
876.393	22953
876.521	22995
876.65	23067
876.778	22968
876.906	22904
877.034	22908
877.162	23025
877.29	22908
877.418	23014
877.546	22946
877.674	23029
877.802	22987
877.93	22702
878.058	22805
878.185	22942
878.313	22869
878.441	22919
878.568	22679
878.696	22858
878.824	23022
878.951	22965
879.079	23185
879.206	23212
879.333	23025
879.461	22923
879.588	23064
879.715	23052
879.842	23181
879.97	22930
880.097	22843
880.224	22713
880.351	22816
880.478	22752
880.605	22706
880.732	22771
880.859	22984
880.986	22778
881.112	22679
881.239	22569
881.366	22462
881.493	22531
881.619	22329
881.746	22421
881.872	22306
881.999	22310
882.125	22344
882.252	22215
882.378	22375
882.505	22451
882.631	22124
882.757	21953
882.883	22086
883.01	22025
883.136	21949
883.262	21861
883.388	21747
883.514	21873
883.64	22048
883.766	21937
883.892	21766
884.018	21854
884.143	22010
884.269	22006
884.395	21701
884.52	21660
884.646	21789
884.772	21542
884.897	21576
885.023	21553
885.148	21682
885.274	21736
885.399	21625
885.524	21663
885.65	21641
885.775	21568
885.9	21488
886.025	21747
886.15	21736
886.275	21606
886.4	21454
886.525	21595
886.65	21644
886.775	21648
886.9	21713
887.025	21709
887.149	21572
887.274	21519
887.399	21500
887.523	21454
887.648	21306
887.773	21355
887.897	21477
888.021	21435
888.146	21348
888.27	21348
888.395	21507
888.519	21416
888.643	21477
888.767	21416
888.891	21195
889.015	21245
889.139	21370
889.263	21199
889.387	21252
889.511	21287
889.635	21230
889.759	21165
889.883	21237
890.006	21199
890.13	21226
890.254	21062
890.377	21138
890.501	21070
890.624	20807
890.748	21005
890.871	20864
890.995	20773
891.118	20754
891.241	20765
891.364	20781
891.488	20864
891.611	20788
891.734	20811
891.857	20826
891.98	20712
892.103	20785
892.226	20762
892.349	20670
892.471	20537
892.594	20667
892.717	20617
892.839	20640
892.962	20705
893.085	20613
893.207	20609
893.33	20518
893.452	20568
893.575	20701
893.697	20648
893.819	20792
893.941	20777
894.064	20739
894.186	20522
894.308	20545
894.43	20739
894.552	20754
894.674	20682
894.796	20545
894.918	20640
895.04	20545
895.161	20632
895.283	20651
895.405	20579
895.526	20792
895.648	20556
895.769	20640
895.891	20667
896.012	20636
896.134	20629
896.255	20769
896.376	20583
896.498	20583
896.619	20644
896.74	20655
896.861	20598
896.982	20929
897.103	21028
897.224	20918
897.345	20872
897.466	20845
897.587	20853
897.708	21032
897.828	20743
897.949	20807
898.07	20754
898.19	20864
898.311	20834
898.431	20716
898.552	20708
898.672	20937
898.792	20902
898.913	20853
899.033	20727
899.153	20621
899.273	20663
899.393	20575
899.513	20476
899.633	20541
899.753	20556
899.873	20598
899.993	20590
900.113	20507
900.232	20575
900.352	20575
900.472	20423
900.591	20366
900.711	20442
900.83	20347
900.95	20393
901.069	20488
901.189	20271
901.308	19982
901.427	19909
901.546	19928
901.665	19944
901.784	19963
901.904	19693
902.023	19681
902.141	19483
902.26	19445
902.379	19601
902.498	19422
902.617	19441
902.735	19491
902.854	19407
902.973	19384
903.091	19168
903.21	19042
903.328	19190
903.446	19027
903.565	18848
903.683	18962
903.801	18787
903.919	18730
904.038	18795
904.156	18582
904.274	18726
904.392	18688
904.51	18734
904.627	18597
904.745	18707
904.863	18776
904.981	18475
905.098	18296
905.216	18338
905.334	18384
905.451	18270
905.569	18369
905.686	18277
905.803	18292
905.921	18133
906.038	18243
906.155	18159
906.272	18083
906.389	18022
906.506	17813
906.623	17828
906.74	17939
906.857	17771
906.974	17779
907.091	17946
907.208	17939
907.324	17904
907.441	17756
907.557	17657
907.674	17589
907.79	17558
907.907	17478
908.023	17642
908.139	17608
908.256	17524
908.372	17501
908.488	17341
908.604	17353
908.72	17242
908.836	17296
908.952	17265
909.068	17318
909.184	17425
909.3	17277
909.415	17410
909.531	17280
909.647	17075
909.762	16892
909.878	17045
909.993	16991
910.108	16938
910.224	16957
910.339	16869
910.454	16889
910.57	16831
910.685	16660
910.8	16991
910.915	16896
911.03	16786
911.145	16664
911.259	16596
911.374	16542
911.489	16527
911.604	16466
911.718	16268
911.833	16303
911.947	16303
912.062	16158
912.176	16310
912.291	16409
912.405	16417
912.519	16577
912.633	16580
912.748	16356
912.862	16226
912.976	16128
913.09	15998
913.204	16093
913.318	16067
913.431	16211
913.545	16162
913.659	16265
913.772	16097
913.886	15979
914	15873
914.113	15964
914.226	16010
914.34	15888
914.453	15793
914.566	15949
914.68	15880
914.793	15808
914.906	15538
915.019	15606
915.132	15439
915.245	15606
915.358	15564
915.47	15523
915.583	15603
915.696	15504
915.809	15694
915.921	15648
916.034	15450
916.146	15496
916.259	15291
916.371	15473
916.483	15431
916.595	15408
916.708	15355
916.82	15279
916.932	15332
917.044	15378
917.156	15214
917.268	15154
917.38	15203
917.491	15157
917.603	15230
917.715	15237
917.826	15226
917.938	15119
918.049	15001
918.161	15199
918.272	15184
918.384	15184
918.495	15093
918.606	14921
918.717	14849
918.828	14979
918.939	14861
919.05	14845
919.161	14864
919.272	14716
919.383	14788
919.494	14929
919.604	15081
919.715	14845
919.826	14777
919.936	14941
920.047	14887
920.157	14914
920.267	15089
920.378	14944
920.488	14777
920.598	15077
920.708	15119
920.818	15104
920.928	14944
921.038	15188
921.148	15112
921.258	14845
921.368	14708
921.477	14636
921.587	14571
921.697	14495
921.806	14560
921.916	14431
922.025	14286
922.134	14278
922.244	14214
922.353	14221
922.462	14084
922.571	14107
922.68	13871
922.789	13887
922.898	13871
923.007	13780
923.116	13921
923.224	13837
923.333	13849
923.442	13788
923.55	13696
923.659	13753
923.767	13719
923.876	13689
923.984	13757
924.092	13510
924.201	13601
924.309	13556
924.417	13605
924.525	13510
924.633	13499
924.741	14442
924.849	13289
924.956	13537
925.064	13331
925.172	13202
925.279	13282
925.387	13339
925.494	13270
925.602	13373
925.709	13369
925.816	13236
925.924	13228
926.031	13289
926.138	13206
926.245	13213
926.352	13057
926.459	13270
926.566	13160
926.673	13080
926.779	12981
926.886	13042
926.993	12920
927.099	12882
927.206	12856
927.312	12810
927.419	12852
927.525	12772
927.631	12913
927.737	12722
927.843	12669
927.95	12509
928.056	12677
928.162	12540
928.267	12745
928.373	13270
928.479	12707
928.585	12422
928.69	12589
928.796	12604
928.901	12525
929.007	12384
929.112	12441
929.218	12475
929.323	12323
929.428	12391
929.533	12467
929.638	12251
929.743	12372
929.848	12422
929.953	12327
930.058	12266
930.163	11996
930.267	12072
930.372	12213
930.477	12015
930.581	12243
930.685	12091
930.79	11855
930.894	11935
930.998	11916
931.103	11961
931.207	11642
931.311	11589
931.415	11452
931.519	11242
931.623	11356
