Data from test_V78500241_1589.txt Node
Date: Fri Mar 25 15:52:48 CST 2022
User: usil
Spectrometer: V785-0024
Trigger mode: 0
Integration Time (sec): 4.000000E-1
Scans to average: 1
Nonlinearity correction enabled: false
Boxcar width: 0
Storing dark spectrum: false
XAxis mode: Wavelengths
Number of Pixels in Spectrum: 1024
>>>>>Begin Spectral Data<<<<<
801.071	28230
801.214	28112
801.356	28002
801.499	27873
801.641	27793
801.783	27804
801.926	27907
802.068	27854
802.211	27743
802.353	27641
802.496	27477
802.638	27435
802.78	27420
802.923	27340
803.065	27401
803.208	27363
803.35	27367
803.492	27812
803.635	27747
803.777	27701
803.919	27553
804.061	28010
804.204	27732
804.346	27587
804.488	27701
804.63	27641
804.773	27599
804.915	27770
805.057	27880
805.199	27770
805.341	27804
805.483	27895
805.626	27892
805.768	27720
805.91	27846
806.052	27914
806.194	27800
806.336	27991
806.478	27823
806.62	27816
806.762	28013
806.904	28185
807.046	28386
807.188	28223
807.33	28249
807.472	28299
807.614	28234
807.756	28185
807.898	28051
808.04	27895
808.182	28090
808.324	28086
808.465	28204
808.607	28272
808.749	28424
808.891	28668
809.033	28687
809.174	28580
809.316	28554
809.458	28550
809.6	28489
809.741	28519
809.883	28538
810.025	28839
810.166	28767
810.308	28691
810.45	28763
810.591	28694
810.733	28683
810.875	28459
811.016	28322
811.158	28466
811.299	28675
811.441	28694
811.582	28557
811.724	28474
811.865	28459
812.007	28314
812.148	28413
812.29	28512
812.431	28687
812.573	28820
812.714	28949
812.855	28991
812.997	29151
813.138	29197
813.279	29231
813.421	28999
813.562	28809
813.703	28820
813.845	28740
813.986	28337
814.127	28253
814.268	28219
814.41	28234
814.551	28120
814.692	28287
814.833	28128
814.974	28044
815.115	28257
815.256	28101
815.397	27968
815.539	28002
815.68	28051
815.821	27804
815.962	28036
816.103	28101
816.244	27827
816.385	27747
816.526	27835
816.666	27564
816.807	27473
816.948	27606
817.089	27614
817.23	27641
817.371	27667
817.512	27542
817.653	27538
817.793	27367
817.934	27545
818.075	27515
818.216	27435
818.356	27458
818.497	27287
818.638	27230
818.778	27192
818.919	27157
819.06	27176
819.2	27431
819.341	27447
819.481	27450
819.622	27667
819.762	27846
819.903	27675
820.043	27641
820.184	27427
820.324	27591
820.465	27622
820.605	27751
820.746	27637
820.886	27485
821.026	27606
821.167	27538
821.307	27485
821.447	27519
821.588	27310
821.728	27351
821.868	27131
822.008	27081
822.149	27081
822.289	26899
822.429	26708
822.569	26571
822.709	26632
822.849	26374
822.99	26469
823.13	26385
823.27	26393
823.41	26366
823.55	26008
823.69	26442
823.83	26199
823.97	26271
824.11	26142
824.25	25978
824.389	26069
824.529	26145
824.669	26062
824.809	26206
824.949	26206
825.089	26164
825.228	26191
825.368	25986
825.508	25925
825.648	26012
825.787	25963
825.927	26081
826.067	26069
826.206	26073
826.346	26069
826.485	25986
826.625	25974
826.765	26081
826.904	25947
827.044	25864
827.183	25769
827.323	25647
827.462	25765
827.601	25647
827.741	25662
827.88	25746
828.02	25670
828.159	25662
828.298	25837
828.437	25696
828.577	25658
828.716	25693
828.855	25476
828.994	25362
829.134	25384
829.273	25441
829.412	25381
829.551	25255
829.69	25331
829.829	25331
829.968	25510
830.107	25506
830.246	25476
830.385	25434
830.524	25198
830.663	25168
830.802	25156
830.941	25031
831.08	24814
831.219	25103
831.357	25019
831.496	25240
831.635	25069
831.774	24871
831.913	24916
832.051	24738
832.19	24806
832.329	24696
832.467	24787
832.606	24700
832.744	24608
832.883	24635
833.022	24677
833.16	24726
833.299	24856
833.437	24730
833.576	24768
833.714	24783
833.852	24757
833.991	24837
834.129	24814
834.267	24738
834.406	24719
834.544	24802
834.682	24741
834.821	24730
834.959	24897
835.097	24684
835.235	24684
835.373	24669
835.511	24703
835.65	24570
835.788	24521
835.926	24445
836.064	24502
836.202	24391
836.34	24551
836.478	24536
836.615	24475
836.753	24513
836.891	24574
837.029	24616
837.167	24532
837.305	24384
837.443	24311
837.58	24346
837.718	24502
837.856	24544
837.993	24315
838.131	24311
838.269	24190
838.406	24334
838.544	24121
838.681	23996
838.819	23904
838.956	23832
839.094	23859
839.231	23817
839.369	23893
839.506	24152
839.643	24015
839.781	23764
839.918	23874
840.055	23980
840.193	23843
840.33	23809
840.467	23748
840.604	23851
840.742	23984
840.879	23714
841.016	23642
841.153	23741
841.29	23824
841.427	23756
841.564	23878
841.701	23672
841.838	23661
841.975	23543
842.112	23668
842.249	23627
842.385	23634
842.522	23813
842.659	23604
842.796	23512
842.933	23516
843.069	23539
843.206	23410
843.343	23577
843.479	23452
843.616	23414
843.752	23417
843.889	23258
844.025	23364
844.162	23334
844.298	23398
844.435	23303
844.571	23212
844.708	23368
844.844	23478
844.98	23406
845.117	23334
845.253	23162
845.389	23041
845.525	23178
845.661	23105
845.798	23025
845.934	23071
846.07	22976
846.206	23025
846.342	23056
846.478	22965
846.614	22733
846.75	22710
846.886	22607
847.022	22691
847.158	22904
847.294	22679
847.429	22892
847.565	22809
847.701	22995
847.837	22531
847.972	22519
848.108	22573
848.244	22546
848.379	22356
848.515	22352
848.65	22360
848.786	22405
848.921	22329
849.057	22428
849.192	22512
849.328	22413
849.463	22436
849.598	22257
849.734	22337
849.869	22249
850.004	22173
850.14	22124
850.275	22112
850.41	22051
850.545	22188
850.68	22124
850.815	22097
850.95	22112
851.085	22325
851.22	22158
851.355	22128
851.49	22097
851.625	21975
851.76	22055
851.895	22040
852.03	21991
852.165	22124
852.299	22162
852.434	22101
852.569	22150
852.703	22048
852.838	22154
852.973	22169
853.107	22196
853.242	22135
853.376	22070
853.511	21682
853.645	21850
853.78	22017
853.914	22021
854.048	21937
854.183	21998
854.317	21930
854.451	22025
854.585	21884
854.72	22002
854.854	21972
854.988	21895
855.122	21808
855.256	21705
855.39	21987
855.524	21945
855.658	21941
855.792	21899
855.926	21968
856.06	21941
856.194	21953
856.327	21869
856.461	21907
856.595	21762
856.729	21789
856.862	21972
856.996	21831
857.13	21869
857.263	22029
857.397	21998
857.53	21915
857.664	21880
857.797	22078
857.931	21930
858.064	22051
858.197	22021
858.331	21850
858.464	21781
858.597	21759
858.731	21972
858.864	21873
858.997	21618
859.13	21899
859.263	21888
859.396	22154
859.529	21861
859.662	21865
859.795	21922
859.928	21888
860.061	22017
860.194	22120
860.327	22013
860.46	22010
860.592	21983
860.725	22093
860.858	22124
860.99	21998
861.123	21869
861.256	21888
861.388	21869
861.521	22531
861.653	21819
861.786	21667
861.918	21785
862.05	21774
862.183	21842
862.315	21812
862.447	21884
862.58	21819
862.712	21686
862.844	21675
862.976	21557
863.108	21618
863.24	21994
863.372	21557
863.504	21671
863.636	21599
863.768	21713
863.9	21618
864.032	21580
864.164	21663
864.296	21580
864.428	21717
864.559	21682
864.691	21705
864.823	21603
864.954	21690
865.086	21587
865.217	21477
865.349	21382
865.48	21507
865.612	21663
865.743	21671
865.875	21629
866.006	21576
866.137	21412
866.269	21454
866.4	21549
866.531	21431
866.662	21473
866.793	21397
866.924	21412
867.055	21538
867.186	21382
867.317	21348
867.448	21408
867.579	21431
867.71	21393
867.841	21412
867.972	21439
868.103	21534
868.233	21374
868.364	21412
868.495	21652
868.625	21656
868.756	21816
868.886	21576
869.017	21679
869.147	21873
869.278	21724
869.408	21698
869.539	21606
869.669	21831
869.799	21587
869.929	21781
870.06	21781
870.19	22006
870.32	21915
870.45	22044
870.58	22112
870.71	22070
870.84	22048
870.97	22093
871.1	22078
871.23	22402
871.36	22226
871.489	22154
871.619	22200
871.749	22192
871.879	22280
872.008	22382
872.138	22352
872.267	22253
872.397	22238
872.526	22219
872.656	22090
872.785	22242
872.915	22303
873.044	22352
873.173	22188
873.303	22402
873.432	22356
873.561	22421
873.69	22276
873.819	22386
873.948	22405
874.077	22386
874.206	22337
874.335	22421
874.464	22344
874.593	22554
874.722	22459
874.851	22466
874.979	22405
875.108	22535
875.237	22440
875.365	22436
875.494	22493
875.623	22535
875.751	22478
875.88	22500
876.008	22599
876.136	22588
876.265	22965
876.393	23006
876.521	22885
876.65	23025
876.778	23014
876.906	22869
877.034	22835
877.162	22816
877.29	22774
877.418	22908
877.546	22873
877.674	22843
877.802	22759
877.93	22847
878.058	22828
878.185	22630
878.313	22786
878.441	22835
878.568	22679
878.696	22869
878.824	22854
878.951	22866
879.079	23060
879.206	23056
879.333	23075
879.461	22877
879.588	22889
879.715	23041
879.842	23132
879.97	22938
880.097	22634
880.224	22656
880.351	22710
880.478	22672
880.605	22596
880.732	22660
880.859	22889
880.986	22721
881.112	22683
881.239	22500
881.366	22432
881.493	22325
881.619	22242
881.746	22226
881.872	22242
881.999	22188
882.125	22211
882.252	22284
882.378	22242
882.505	22322
882.631	22112
882.757	22010
882.883	22124
883.01	21911
883.136	21975
883.262	21869
883.388	21781
883.514	21979
883.64	22048
883.766	21759
883.892	21652
884.018	21759
884.143	21903
884.269	21960
884.395	21762
884.52	21523
884.646	21599
884.772	21481
884.897	21416
885.023	21622
885.148	21671
885.274	21808
885.399	21717
885.524	21561
885.65	21583
885.775	21629
885.9	21526
886.025	21713
886.15	21747
886.275	21553
886.4	21515
886.525	21671
886.65	21462
886.775	21401
886.9	21515
887.025	21713
887.149	21599
887.274	21367
887.399	21355
887.523	21268
887.648	21237
887.773	21207
887.897	21466
888.021	21298
888.146	21245
888.27	21450
888.395	21397
888.519	21386
888.643	21218
888.767	21408
888.891	21123
889.015	21173
889.139	21112
889.263	21131
889.387	21116
889.511	21428
889.635	21146
889.759	21131
889.883	21043
890.006	21146
890.13	21222
890.254	21112
890.377	21077
890.501	20914
890.624	20998
890.748	20937
890.871	20754
890.995	20705
891.118	20667
891.241	20773
891.364	20716
891.488	20788
891.611	20655
891.734	20743
891.857	20625
891.98	20667
892.103	20697
892.226	20705
892.349	20648
892.471	20423
892.594	20663
892.717	20606
892.839	20613
892.962	20640
893.085	20682
893.207	20587
893.33	20526
893.452	20450
893.575	20727
893.697	20473
893.819	20716
893.941	20746
894.064	20712
894.186	20560
894.308	20545
894.43	20655
894.552	20670
894.674	20651
894.796	20568
894.918	20579
895.04	20594
895.161	20621
895.283	20598
895.405	20545
895.526	20507
895.648	20674
895.769	20495
895.891	20682
896.012	20583
896.134	20552
896.255	20549
896.376	20518
896.498	20674
896.619	20613
896.74	20545
896.861	20785
896.982	20845
897.103	21077
897.224	20872
897.345	20781
897.466	20731
897.587	20777
897.708	20963
897.828	20895
897.949	20830
898.07	20739
898.19	20720
898.311	20792
898.431	20701
898.552	20693
898.672	20868
898.792	20849
898.913	20914
899.033	20606
899.153	20568
899.273	20511
899.393	20400
899.513	20682
899.633	20537
899.753	20625
899.873	20507
899.993	20434
900.113	20492
900.232	20438
900.352	20454
900.472	20484
900.591	20225
900.711	20343
900.83	20358
900.95	20339
901.069	20438
901.189	20107
901.308	19909
901.427	19841
901.546	19917
901.665	19879
901.784	19932
901.904	19795
902.023	19662
902.141	19476
902.26	19480
902.379	19460
902.498	19415
902.617	19320
902.735	19438
902.854	19365
902.973	19263
903.091	19057
903.21	19080
903.328	19141
903.446	19046
903.565	18909
903.683	18897
903.801	18821
903.919	18867
904.038	18722
904.156	18593
904.274	18677
904.392	18544
904.51	18578
904.627	18589
904.745	18669
904.863	18559
904.981	18445
905.098	18190
905.216	18270
905.334	18391
905.451	18361
905.569	18224
905.686	18353
905.803	18251
905.921	18220
906.038	18228
906.155	17935
906.272	18030
906.389	18026
906.506	17760
906.623	17783
906.74	17764
906.857	17714
906.974	17676
907.091	17866
907.208	17958
907.324	17783
907.441	17745
907.557	17570
907.674	17471
907.79	17471
907.907	17566
908.023	17482
908.139	17482
908.256	17467
908.372	17372
908.488	17493
908.604	17261
908.72	17242
908.836	17288
908.952	17159
909.068	17235
909.184	17341
909.3	17307
909.415	17280
909.531	17273
909.647	16972
909.762	16995
909.878	16999
909.993	17079
910.108	16953
910.224	16946
910.339	16896
910.454	16873
910.57	16816
910.685	16694
910.8	16995
910.915	16873
911.03	16653
911.145	16717
911.259	16531
911.374	16596
911.489	16390
911.604	16459
911.718	16421
911.833	16310
911.947	16166
912.062	16204
912.176	16314
912.291	16211
912.405	16265
912.519	16440
912.633	16371
912.748	16310
912.862	16188
912.976	16139
913.09	16051
913.204	16006
913.318	16188
913.431	16215
913.545	16082
913.659	16215
913.772	16055
913.886	15880
914	15857
914.113	15945
914.226	16013
914.34	16002
914.453	15781
914.566	15972
914.68	15800
914.793	15759
914.906	15622
915.019	15580
915.132	15378
915.245	15488
915.358	15500
915.47	15481
915.583	15507
915.696	15584
915.809	15587
915.921	15591
916.034	15439
916.146	15405
916.259	15363
916.371	15382
916.483	15431
916.595	15252
916.708	15279
916.82	15260
916.932	15195
917.044	15332
917.156	15176
917.268	15058
917.38	15127
917.491	15039
917.603	15138
917.715	15230
917.826	15245
917.938	15024
918.049	14902
918.161	15070
918.272	15230
918.384	15184
918.495	14960
918.606	14910
918.717	14796
918.828	14910
918.939	14921
919.05	14880
919.161	14929
919.272	14731
919.383	14754
919.494	14990
919.604	15051
919.715	14834
919.826	14720
919.936	14800
920.047	14914
920.157	14998
920.267	15039
920.378	14880
920.488	14891
920.598	14902
920.708	15108
920.818	14948
920.928	14952
921.038	15119
921.148	15077
921.258	14796
921.368	14693
921.477	14648
921.587	14571
921.697	14370
921.806	14625
921.916	14511
922.025	14206
922.134	14210
922.244	14149
922.353	14164
922.462	14043
922.571	14073
922.68	13898
922.789	13940
922.898	13849
923.007	13841
923.116	13913
923.224	13811
923.333	13799
923.442	13715
923.55	13639
923.659	13651
923.767	13674
923.876	13636
923.984	13674
924.092	13506
924.201	13563
924.309	13563
924.417	13674
924.525	13403
924.633	13472
924.741	14396
924.849	13297
924.956	13464
925.064	13324
925.172	13343
925.279	13228
925.387	13228
925.494	13198
925.602	13384
925.709	13324
925.816	13141
925.924	13141
926.031	13285
926.138	13141
926.245	13209
926.352	13053
926.459	13179
926.566	13266
926.673	13145
926.779	12993
926.886	12977
926.993	12890
927.099	12776
927.206	12772
927.312	12722
927.419	12833
927.525	12859
927.631	12871
927.737	12585
927.843	12593
927.95	12525
928.056	12585
928.162	12665
928.267	12703
928.373	13274
928.479	12681
928.585	12376
928.69	12559
928.796	12589
928.901	12559
929.007	12426
929.112	12426
929.218	12403
929.323	12285
929.428	12262
929.533	12483
929.638	12262
929.743	12266
929.848	12452
929.953	12315
930.058	12129
930.163	12003
930.267	12011
930.372	12148
930.477	12038
930.581	12239
930.685	12053
930.79	11889
930.894	11901
930.998	11836
931.103	12034
931.207	11680
931.311	11596
931.415	11558
931.519	11246
931.623	11280
