Data from test_V78500241_647.txt Node
Date: Fri Mar 25 15:46:17 CST 2022
User: usil
Spectrometer: V785-0024
Trigger mode: 0
Integration Time (sec): 4.000000E-1
Scans to average: 1
Nonlinearity correction enabled: false
Boxcar width: 0
Storing dark spectrum: false
XAxis mode: Wavelengths
Number of Pixels in Spectrum: 1024
>>>>>Begin Spectral Data<<<<<
801.071	27633
801.214	27606
801.356	27329
801.499	27268
801.641	27112
801.783	27214
801.926	27245
802.068	27173
802.211	27081
802.353	27055
802.496	26899
802.638	26788
802.78	26921
802.923	26590
803.065	26640
803.208	26849
803.35	26819
803.492	26906
803.635	26891
803.777	26925
803.919	26929
804.061	27260
804.204	27108
804.346	27089
804.488	26918
804.63	27047
804.773	26826
804.915	26967
805.057	27081
805.199	27039
805.341	27089
805.483	27017
805.626	27085
805.768	26925
805.91	27104
806.052	27268
806.194	27066
806.336	27222
806.478	27062
806.62	27001
806.762	27203
806.904	27344
807.046	27705
807.188	27526
807.33	27466
807.472	27542
807.614	27412
807.756	27416
807.898	27511
808.04	27306
808.182	27268
808.324	27393
808.465	27458
808.607	27526
808.749	27846
808.891	27812
809.033	27835
809.174	27846
809.316	27804
809.458	27774
809.6	27743
809.741	27675
809.883	27979
810.025	27994
810.166	27964
810.308	28093
810.45	27934
810.591	28040
810.733	27679
810.875	27857
811.016	27580
811.158	27679
811.299	27846
811.441	27903
811.582	27869
811.724	27694
811.865	27713
812.007	27709
812.148	27679
812.29	27857
812.431	27964
812.573	28086
812.714	28238
812.855	28333
812.997	28363
813.138	28405
813.279	28280
813.421	28200
813.562	28181
813.703	28063
813.845	27762
813.986	27622
814.127	27534
814.268	27317
814.41	27416
814.551	27154
814.692	27557
814.833	27336
814.974	27424
815.115	27488
815.256	27275
815.397	27195
815.539	27188
815.68	27207
815.821	27184
815.962	27123
816.103	27154
816.244	26979
816.385	26994
816.526	27058
816.666	26910
816.807	26727
816.948	26648
817.089	26731
817.23	26765
817.371	26762
817.512	26545
817.653	26705
817.793	26659
817.934	26606
818.075	26659
818.216	26682
818.356	26609
818.497	26613
818.638	26381
818.778	26374
818.919	26568
819.06	26507
819.2	26568
819.341	26667
819.481	26689
819.622	26880
819.762	27096
819.903	26781
820.043	26834
820.184	26769
820.324	26674
820.465	26849
820.605	26800
820.746	26762
820.886	26686
821.026	26762
821.167	26792
821.307	26880
821.447	26678
821.588	26655
821.728	26575
821.868	26275
822.008	26157
822.149	26050
822.289	26161
822.429	25940
822.569	25902
822.709	25799
822.849	25559
822.99	25620
823.13	25776
823.27	25594
823.41	25495
823.55	25320
823.69	25422
823.83	25438
823.97	25320
824.11	25251
824.25	25304
824.389	25217
824.529	25251
824.669	25335
824.809	25289
824.949	25377
825.089	25396
825.228	25438
825.368	25289
825.508	25107
825.648	25156
825.787	25148
825.927	25232
826.067	25168
826.206	25137
826.346	25084
826.485	25179
826.625	25232
826.765	25168
826.904	25171
827.044	25042
827.183	24859
827.323	24760
827.462	24996
827.601	24935
827.741	24863
827.88	24954
828.02	24760
828.159	24856
828.298	24935
828.437	24981
828.577	24589
828.716	25061
828.855	24768
828.994	24456
829.134	24509
829.273	24635
829.412	24566
829.551	24460
829.69	24525
829.829	24502
829.968	24681
830.107	24665
830.246	24585
830.385	24456
830.524	24369
830.663	24384
830.802	24224
830.941	24079
831.08	24087
831.219	24319
831.357	24133
831.496	24467
831.635	24155
831.774	24072
831.913	23965
832.051	23874
832.19	24038
832.329	23866
832.467	23882
832.606	23843
832.744	23726
832.883	23817
833.022	23764
833.16	23870
833.299	23992
833.437	23859
833.576	23786
833.714	23969
833.852	23882
833.991	23969
834.129	24053
834.267	24026
834.406	23942
834.544	23950
834.682	23973
834.821	23916
834.959	24190
835.097	23737
835.235	23923
835.373	23908
835.511	23813
835.65	23695
835.788	23775
835.926	23596
836.064	23596
836.202	23570
836.34	23729
836.478	23836
836.615	23642
836.753	23832
836.891	23874
837.029	23760
837.167	23646
837.305	23592
837.443	23516
837.58	23600
837.718	23608
837.856	23531
837.993	23581
838.131	23539
838.269	23444
838.406	23539
838.544	23269
838.681	23223
838.819	23079
838.956	23083
839.094	22961
839.231	22965
839.369	23387
839.506	23379
839.643	23265
839.781	22919
839.918	22991
840.055	23094
840.193	23018
840.33	23014
840.467	22927
840.604	22957
840.742	23299
840.879	22839
841.016	22858
841.153	22889
841.29	22976
841.427	22877
841.564	22972
841.701	22927
841.838	22869
841.975	22968
842.112	22908
842.249	22786
842.385	22809
842.522	22938
842.659	22839
842.796	22649
842.933	22736
843.069	22763
843.206	22713
843.343	22774
843.479	22710
843.616	22721
843.752	22485
843.889	22512
844.025	22504
844.162	22519
844.298	22489
844.435	22405
844.571	22485
844.708	22478
844.844	22569
844.98	22634
845.117	22542
845.253	22478
845.389	22386
845.525	22314
845.661	22344
845.798	22158
845.934	22291
846.07	22032
846.206	22154
846.342	22310
846.478	22204
846.614	22070
846.75	21972
846.886	21850
847.022	21934
847.158	22010
847.294	22025
847.429	21915
847.565	21873
847.701	22207
847.837	21717
847.972	21625
848.108	21732
848.244	21720
848.379	21488
848.515	21576
848.65	21591
848.786	21466
848.921	21466
849.057	21667
849.192	21789
849.328	21682
849.463	21549
849.598	21481
849.734	21466
849.869	21477
850.004	21374
850.14	21222
850.275	21298
850.41	21180
850.545	21203
850.68	21412
850.815	21336
850.95	21260
851.085	21428
851.22	21477
851.355	21283
851.49	21241
851.625	21321
851.76	21260
851.895	21321
852.03	21161
852.165	21363
852.299	21363
852.434	21405
852.569	21272
852.703	21272
852.838	21359
852.973	21325
853.107	21306
853.242	21351
853.376	21135
853.511	21058
853.645	21150
853.78	21332
853.914	21096
854.048	21203
854.183	21173
854.317	21260
854.451	21249
854.585	21123
854.72	21077
854.854	21233
854.988	21089
855.122	21169
855.256	20971
855.39	21100
855.524	21268
855.658	21123
855.792	21108
855.926	21123
856.06	21203
856.194	21119
856.327	21058
856.461	21119
856.595	21093
856.729	21028
856.862	21199
856.996	21169
857.13	21199
857.263	21310
857.397	21222
857.53	21100
857.664	21313
857.797	21214
857.931	21203
858.064	21184
858.197	21146
858.331	21123
858.464	21055
858.597	21100
858.731	21230
858.864	21066
858.997	21157
859.13	21085
859.263	21135
859.396	21142
859.529	21039
859.662	21131
859.795	21192
859.928	21108
860.061	21165
860.194	21321
860.327	21058
860.46	21039
860.592	21188
860.725	21367
860.858	21268
860.99	21055
861.123	20956
861.256	21020
861.388	21104
861.521	21675
861.653	20990
861.786	20906
861.918	21020
862.05	21009
862.183	20982
862.315	21043
862.447	21112
862.58	21051
862.712	20815
862.844	20876
862.976	20815
863.108	20849
863.24	21214
863.372	20834
863.504	20906
863.636	20785
863.768	20941
863.9	20842
864.032	20678
864.164	20746
864.296	20819
864.428	20994
864.559	20941
864.691	20937
864.823	20876
864.954	20887
865.086	20758
865.217	20750
865.349	20708
865.48	20708
865.612	20720
865.743	20823
865.875	20644
866.006	20731
866.137	20769
866.269	20758
866.4	20754
866.531	20758
866.662	20617
866.793	20716
866.924	20773
867.055	20602
867.186	20788
867.317	20682
867.448	20415
867.579	20659
867.71	20609
867.841	20663
867.972	20754
868.103	20705
868.233	20754
868.364	20609
868.495	20693
868.625	20838
868.756	20960
868.886	20887
869.017	20952
869.147	20975
869.278	21051
869.408	20857
869.539	20990
869.669	20910
869.799	20914
869.929	21032
870.06	20933
870.19	21264
870.32	21264
870.45	21275
870.58	21195
870.71	21355
870.84	21435
870.97	21275
871.1	21245
871.23	21473
871.36	21473
871.489	21507
871.619	21450
871.749	21450
871.879	21667
872.008	21542
872.138	21511
872.267	21443
872.397	21412
872.526	21321
872.656	21298
872.785	21428
872.915	21454
873.044	21519
873.173	21564
873.303	21633
873.432	21488
873.561	21622
873.69	21618
873.819	21462
873.948	21591
874.077	21618
874.206	21519
874.335	21534
874.464	21720
874.593	21778
874.722	21679
874.851	21838
874.979	21743
875.108	21937
875.237	21675
875.365	21690
875.494	21732
875.623	21907
875.751	21686
875.88	21732
876.008	21926
876.136	21869
876.265	22185
876.393	22242
876.521	22139
876.65	22287
876.778	22181
876.906	22105
877.034	22086
877.162	22093
877.29	22135
877.418	22109
877.546	22291
877.674	22162
877.802	22143
877.93	22055
878.058	22048
878.185	21968
878.313	22090
878.441	22154
878.568	22029
878.696	22044
878.824	22109
878.951	22242
879.079	22352
879.206	22379
879.333	22303
879.461	22215
879.588	22287
879.715	22303
879.842	22390
879.97	22341
880.097	21865
880.224	21945
880.351	21895
880.478	21949
880.605	21911
880.732	21895
880.859	22204
880.986	21922
881.112	22032
881.239	21774
881.366	21633
881.493	21557
881.619	21644
881.746	21416
881.872	21610
881.999	21538
882.125	21447
882.252	21686
882.378	21450
882.505	21603
882.631	21447
882.757	21245
882.883	21260
883.01	21294
883.136	21070
883.262	21138
883.388	21116
883.514	21195
883.64	21329
883.766	21169
883.892	20956
884.018	20941
884.143	21203
884.269	21237
884.395	20960
884.52	20823
884.646	20861
884.772	20830
884.897	20887
885.023	20937
885.148	20845
885.274	21017
885.399	20864
885.524	20845
885.65	20754
885.775	20804
885.9	20804
886.025	20929
886.15	20906
886.275	20853
886.4	20674
886.525	20777
886.65	20842
886.775	20785
886.9	20864
887.025	20982
887.149	20667
887.274	20629
887.399	20716
887.523	20609
887.648	20545
887.773	20549
887.897	20674
888.021	20621
888.146	20678
888.27	20754
888.395	20678
888.519	20693
888.643	20670
888.767	20621
888.891	20473
889.015	20556
889.139	20564
889.263	20324
889.387	20556
889.511	20686
889.635	20511
889.759	20362
889.883	20476
890.006	20446
890.13	20495
890.254	20324
890.377	20412
890.501	20145
890.624	20157
890.748	20172
890.871	20126
890.995	19932
891.118	19993
891.241	20001
891.364	20027
891.488	20172
891.611	20039
891.734	20035
891.857	20092
891.98	20020
892.103	20054
892.226	19970
892.349	19913
892.471	19715
892.594	19970
892.717	19925
892.839	19917
892.962	19890
893.085	20008
893.207	19841
893.33	19940
893.452	19856
893.575	19970
893.697	19887
893.819	20065
893.941	20012
894.064	20115
894.186	19788
894.308	19791
894.43	19993
894.552	20027
894.674	19947
894.796	19928
894.918	19871
895.04	19871
895.161	20008
895.283	19932
895.405	19856
895.526	19807
895.648	19875
895.769	19887
895.891	19959
896.012	19947
896.134	20073
896.255	19917
896.376	19989
896.498	19967
896.619	19974
896.74	20016
896.861	20058
896.982	20294
897.103	20377
897.224	20278
897.345	20157
897.466	20111
897.587	20153
897.708	20263
897.828	20199
897.949	20016
898.07	20191
898.19	20096
898.311	20290
898.431	19967
898.552	20195
898.672	20157
898.792	20176
898.913	20142
899.033	20092
899.153	19940
899.273	19803
899.393	20001
899.513	19928
899.633	19906
899.753	19807
899.873	19795
899.993	19951
900.113	19833
900.232	19879
900.352	19757
900.472	19723
900.591	19643
900.711	19772
900.83	19643
900.95	19849
901.069	19746
901.189	19559
901.308	19354
901.427	19365
901.546	19362
901.665	19285
901.784	19293
901.904	19107
902.023	19137
902.141	18901
902.26	18814
902.379	18825
902.498	18734
902.617	18722
902.735	18795
902.854	18764
902.973	18521
903.091	18467
903.21	18361
903.328	18490
903.446	18266
903.565	18327
903.683	18270
903.801	18163
903.919	18224
904.038	18277
904.156	17977
904.274	18083
904.392	18022
904.51	17954
904.627	17958
904.745	18057
904.863	18041
904.981	17836
905.098	17619
905.216	17783
905.334	17767
905.451	17699
905.569	17619
905.686	17661
905.803	17642
905.921	17512
906.038	17562
906.155	17551
906.272	17372
906.389	17512
906.506	17288
906.623	17197
906.74	17261
906.857	17132
906.974	17117
907.091	17258
907.208	17292
907.324	17162
907.441	17064
907.557	17045
907.674	16896
907.79	16953
907.907	16938
908.023	17022
908.139	16961
908.256	16904
908.372	16885
908.488	16885
908.604	16664
908.72	16694
908.836	16820
908.952	16615
909.068	16611
909.184	16748
909.3	16607
909.415	16702
909.531	16721
909.647	16367
909.762	16386
909.878	16481
909.993	16375
910.108	16295
910.224	16356
910.339	16314
910.454	16280
910.57	16185
910.685	16116
910.8	16436
910.915	16322
911.03	16135
911.145	16013
911.259	16006
911.374	15964
911.489	15823
911.604	15876
911.718	15755
911.833	15755
911.947	15770
912.062	15595
912.176	15812
912.291	15698
912.405	15781
912.519	15975
912.633	15915
912.748	15804
912.862	15766
912.976	15572
913.09	15439
913.204	15428
913.318	15534
913.431	15717
913.545	15663
913.659	15637
913.772	15523
913.886	15386
914	15302
914.113	15447
914.226	15511
914.34	15264
914.453	15180
914.566	15405
914.68	15218
914.793	15203
914.906	15055
915.019	14967
915.132	14891
915.245	14876
915.358	15001
915.47	15001
915.583	14963
915.696	15020
915.809	15058
915.921	15097
916.034	14956
916.146	14876
916.259	14815
916.371	15005
916.483	14887
916.595	14796
916.708	14731
916.82	14849
916.932	14788
917.044	14735
917.156	14682
917.268	14625
917.38	14678
917.491	14644
917.603	14648
917.715	14697
917.826	14762
917.938	14488
918.049	14473
918.161	14648
918.272	14815
918.384	14594
918.495	14590
918.606	14488
918.717	14237
918.828	14366
918.939	14332
919.05	14286
919.161	14393
919.272	14096
919.383	14320
919.494	14469
919.604	14564
919.715	14351
919.826	14324
919.936	14252
920.047	14454
920.157	14317
920.267	14602
920.378	14427
920.488	14370
920.598	14579
920.708	14625
920.818	14514
920.928	14454
921.038	14693
921.148	14442
921.258	14347
921.368	14176
921.477	14168
921.587	14103
921.697	13970
921.806	14115
921.916	13864
922.025	13822
922.134	13719
922.244	13727
922.353	13822
922.462	13609
922.571	13559
922.68	13396
922.789	13369
922.898	13381
923.007	13251
923.116	13441
923.224	13301
923.333	13327
923.442	13301
923.55	13194
923.659	13137
923.767	13259
923.876	13152
923.984	13194
924.092	13133
924.201	13194
924.309	13160
924.417	13080
924.525	13069
924.633	13080
924.741	13795
924.849	12859
924.956	12989
925.064	12779
925.172	12802
925.279	12760
925.387	12791
925.494	12749
925.602	12901
925.709	12840
925.816	12684
925.924	12745
926.031	12871
926.138	12764
926.245	12722
926.352	12665
926.459	12825
926.566	12795
926.673	12715
926.779	12471
926.886	12597
926.993	12410
927.099	12399
927.206	12407
927.312	12346
927.419	12429
927.525	12342
927.631	12323
927.737	12220
927.843	12308
927.95	12140
928.056	12201
928.162	12171
928.267	12243
928.373	12859
928.479	12281
928.585	12110
928.69	12125
928.796	12098
928.901	12121
929.007	11912
929.112	12041
929.218	12034
929.323	11984
929.428	11859
929.533	12072
929.638	11870
929.743	11904
929.848	11961
929.953	11885
930.058	11840
930.163	11581
930.267	11642
930.372	11836
930.477	11566
930.581	11912
930.685	11684
930.79	11570
930.894	11543
930.998	11573
931.103	11570
931.207	11204
931.311	11235
931.415	11071
931.519	10923
931.623	10885
