Data from test_V78500241_3102.txt Node
Date: Fri Mar 25 16:03:17 CST 2022
User: usil
Spectrometer: V785-0024
Trigger mode: 0
Integration Time (sec): 4.000000E-1
Scans to average: 1
Nonlinearity correction enabled: false
Boxcar width: 0
Storing dark spectrum: false
XAxis mode: Wavelengths
Number of Pixels in Spectrum: 1024
>>>>>Begin Spectral Data<<<<<
801.071	28516
801.214	28462
801.356	28230
801.499	28154
801.641	27983
801.783	28105
801.926	28048
802.068	28059
802.211	27922
802.353	27895
802.496	27785
802.638	27774
802.78	27778
802.923	27728
803.065	27698
803.208	27595
803.35	27603
803.492	27922
803.635	27876
803.777	27842
803.919	28036
804.061	28386
804.204	27934
804.346	27785
804.488	27850
804.63	28036
804.773	28006
804.915	27892
805.057	28093
805.199	27903
805.341	28055
805.483	28173
805.626	28090
805.768	28025
805.91	28135
806.052	28242
806.194	28040
806.336	28284
806.478	28181
806.62	28131
806.762	28428
806.904	28516
807.046	28729
807.188	28588
807.33	28653
807.472	28683
807.614	28630
807.756	28512
807.898	28413
808.04	28394
808.182	28352
808.324	28428
808.465	28504
808.607	28557
808.749	28805
808.891	29006
809.033	28972
809.174	28835
809.316	28888
809.458	28801
809.6	28805
809.741	28858
809.883	28923
810.025	28991
810.166	28942
810.308	29181
810.45	28976
810.591	29010
810.733	28839
810.875	28713
811.016	28809
811.158	28675
811.299	28900
811.441	28980
811.582	28991
811.724	28702
811.865	28869
812.007	28862
812.148	28930
812.29	28934
812.431	28930
812.573	29170
812.714	29383
812.855	29337
812.997	29471
813.138	29600
813.279	29448
813.421	29372
813.562	29334
813.703	29200
813.845	29178
813.986	28774
814.127	28713
814.268	28489
814.41	28535
814.551	28531
814.692	28599
814.833	28546
814.974	28352
815.115	28489
815.256	28382
815.397	28451
815.539	28421
815.68	28341
815.821	28169
815.962	28318
816.103	28234
816.244	28280
816.385	28074
816.526	28048
816.666	27892
816.807	27804
816.948	27972
817.089	27934
817.23	27972
817.371	27755
817.512	27968
817.653	27812
817.793	27679
817.934	27934
818.075	27755
818.216	27876
818.356	27827
818.497	27686
818.638	27629
818.778	27545
818.919	27576
819.06	27755
819.2	27831
819.341	27892
819.481	27816
819.622	27953
819.762	28215
819.903	28105
820.043	28086
820.184	28032
820.324	27998
820.465	28032
820.605	28006
820.746	27861
820.886	27907
821.026	27865
821.167	27914
821.307	28044
821.447	27899
821.588	27850
821.728	27595
821.868	27633
822.008	27302
822.149	27340
822.289	27355
822.429	27127
822.569	26948
822.709	27036
822.849	26811
822.99	26864
823.13	26781
823.27	26727
823.41	26716
823.55	26511
823.69	26655
823.83	26785
823.97	26644
824.11	26438
824.25	26415
824.389	26514
824.529	26549
824.669	26393
824.809	26552
824.949	26651
825.089	26549
825.228	26564
825.368	26473
825.508	26298
825.648	26301
825.787	26351
825.927	26423
826.067	26248
826.206	26385
826.346	26374
826.485	26355
826.625	26412
826.765	26412
826.904	26446
827.044	26172
827.183	26119
827.323	25989
827.462	26142
827.601	26100
827.741	26031
827.88	25997
828.02	25856
828.159	26031
828.298	26039
828.437	26187
828.577	26001
828.716	26164
828.855	26069
828.994	25852
829.134	25811
829.273	25860
829.412	25742
829.551	25776
829.69	25685
829.829	25719
829.968	25677
830.107	25788
830.246	25746
830.385	25643
830.524	25613
830.663	25563
830.802	25457
830.941	25377
831.08	25384
831.219	25540
831.357	25411
831.496	25605
831.635	25350
831.774	25194
831.913	25236
832.051	25072
832.19	25255
832.329	25129
832.467	25015
832.606	24981
832.744	25099
832.883	25133
833.022	24958
833.16	25042
833.299	25148
833.437	25057
833.576	25160
833.714	25091
833.852	25232
833.991	25133
834.129	25244
834.267	25198
834.406	25202
834.544	25084
834.682	25072
834.821	25118
834.959	25061
835.097	25126
835.235	25145
835.373	25126
835.511	25160
835.65	25019
835.788	24913
835.926	24913
836.064	24795
836.202	24905
836.34	24901
836.478	25084
836.615	24852
836.753	24886
836.891	25069
837.029	24970
837.167	24837
837.305	24867
837.443	24810
837.58	24757
837.718	24875
837.856	24783
837.993	24722
838.131	24730
838.269	24661
838.406	24749
838.544	24661
838.681	24407
838.819	24384
838.956	24155
839.094	24346
839.231	24239
839.369	24369
839.506	24540
839.643	24509
839.781	24220
839.918	24300
840.055	24159
840.193	24216
840.33	24095
840.467	24087
840.604	24315
840.742	24456
840.879	24121
841.016	24003
841.153	24083
841.29	24186
841.427	23961
841.564	24197
841.701	24095
841.838	24098
841.975	24064
842.112	24041
842.249	23984
842.385	23946
842.522	24049
842.659	23996
842.796	23912
842.933	23969
843.069	23863
843.206	23771
843.343	24064
843.479	23901
843.616	23908
843.752	23668
843.889	23733
844.025	23832
844.162	23630
844.298	23741
844.435	23707
844.571	23649
844.708	23707
844.844	23809
844.98	23893
845.117	23634
845.253	23687
845.389	23665
845.525	23497
845.661	23615
845.798	23455
845.934	23391
846.07	23410
846.206	23429
846.342	23303
846.478	23315
846.614	23162
846.75	23041
846.886	23033
847.022	23227
847.158	23140
847.294	23200
847.429	23166
847.565	23064
847.701	23315
847.837	22835
847.972	22946
848.108	22976
848.244	22831
848.379	22649
848.515	22771
848.65	22668
848.786	22786
848.921	22809
849.057	22828
849.192	22713
849.328	22820
849.463	22725
849.598	22653
849.734	22668
849.869	22596
850.004	22577
850.14	22470
850.275	22531
850.41	22470
850.545	22421
850.68	22481
850.815	22462
850.95	22493
851.085	22713
851.22	22508
851.355	22459
851.49	22474
851.625	22535
851.76	22363
851.895	22428
852.03	22375
852.165	22459
852.299	22672
852.434	22565
852.569	22455
852.703	22356
852.838	22611
852.973	22535
853.107	22478
853.242	22466
853.376	22261
853.511	22204
853.645	22287
853.78	22356
853.914	22295
854.048	22329
854.183	22185
854.317	22299
854.451	22474
854.585	22421
854.72	22325
854.854	22557
854.988	22215
855.122	22325
855.256	22158
855.39	22272
855.524	22394
855.658	22379
855.792	22333
855.926	22234
856.06	22337
856.194	22371
856.327	22253
856.461	22276
856.595	22188
856.729	22295
856.862	22405
856.996	22257
857.13	22417
857.263	22379
857.397	22413
857.53	22268
857.664	22230
857.797	22341
857.931	22447
858.064	22333
858.197	22432
858.331	22348
858.464	22299
858.597	22143
858.731	22261
858.864	22188
858.997	22215
859.13	22162
859.263	22257
859.396	22344
859.529	22253
859.662	22238
859.795	22226
859.928	22322
860.061	22455
860.194	22519
860.327	22261
860.46	22333
860.592	22352
860.725	22550
860.858	22409
860.99	22303
861.123	22162
861.256	22360
861.388	22306
861.521	22987
861.653	22116
861.786	22116
861.918	22150
862.05	22287
862.183	22120
862.315	22268
862.447	22166
862.58	22211
862.712	21979
862.844	21991
862.976	22067
863.108	22101
863.24	22428
863.372	21972
863.504	22002
863.636	21937
863.768	22112
863.9	22105
864.032	21972
864.164	22044
864.296	22048
864.428	22139
864.559	22139
864.691	22059
864.823	21884
864.954	21892
865.086	21994
865.217	21945
865.349	21774
865.48	21869
865.612	21846
865.743	21979
865.875	21899
866.006	21949
866.137	21827
866.269	21838
866.4	21816
866.531	21945
866.662	21736
866.793	21869
866.924	21812
867.055	21930
867.186	21785
867.317	21789
867.448	21739
867.579	21793
867.71	21823
867.841	21785
867.972	21759
868.103	21663
868.233	21770
868.364	21873
868.495	21876
868.625	22097
868.756	22188
868.886	22044
869.017	22078
869.147	22162
869.278	22154
869.408	22082
869.539	22040
869.669	22207
869.799	21998
869.929	22226
870.06	22211
870.19	22421
870.32	22242
870.45	22405
870.58	22516
870.71	22485
870.84	22577
870.97	22603
871.1	22455
871.23	22752
871.36	22618
871.489	22516
871.619	22508
871.749	22641
871.879	22588
872.008	22736
872.138	22573
872.267	22630
872.397	22516
872.526	22519
872.656	22493
872.785	22462
872.915	22641
873.044	22721
873.173	22702
873.303	22733
873.432	22694
873.561	22733
873.69	22820
873.819	22729
873.948	22915
874.077	22744
874.206	22649
874.335	22599
874.464	22755
874.593	23037
874.722	22854
874.851	22831
874.979	22767
875.108	22866
875.237	22786
875.365	22839
875.494	22923
875.623	22877
875.751	22786
875.88	23056
876.008	23010
876.136	23121
876.265	23284
876.393	23395
876.521	23387
876.65	23398
876.778	23280
876.906	23208
877.034	23391
877.162	23242
877.29	23121
877.418	23299
877.546	23288
877.674	23121
877.802	23231
877.93	23227
878.058	23147
878.185	23189
878.313	23155
878.441	23261
878.568	23143
878.696	23200
878.824	23193
878.951	23208
879.079	23387
879.206	23535
879.333	23433
879.461	23235
879.588	23372
879.715	23433
879.842	23600
879.97	23398
880.097	23029
880.224	23143
880.351	23033
880.478	23113
880.605	23048
880.732	23018
880.859	23246
880.986	23067
881.112	23018
881.239	22828
881.366	22831
881.493	22763
881.619	22588
881.746	22706
881.872	22843
881.999	22626
882.125	22618
882.252	22694
882.378	22504
882.505	22694
882.631	22554
882.757	22371
882.883	22390
883.01	22337
883.136	22341
883.262	22162
883.388	22215
883.514	22337
883.64	22485
883.766	22265
883.892	22219
884.018	22299
884.143	22356
884.269	22360
884.395	22082
884.52	21934
884.646	22025
884.772	21918
884.897	21873
885.023	21964
885.148	21972
885.274	22017
885.399	22196
885.524	21964
885.65	21937
885.775	21953
885.9	21918
886.025	22154
886.15	21880
886.275	21892
886.4	21956
886.525	21915
886.65	21831
886.775	22013
886.9	22048
887.025	22166
887.149	21895
887.274	21785
887.399	21751
887.523	21637
887.648	21648
887.773	21641
887.897	21838
888.021	21793
888.146	21595
888.27	21762
888.395	21736
888.519	21743
888.643	21644
888.767	21831
888.891	21728
889.015	21576
889.139	21629
889.263	21466
889.387	21618
889.511	21797
889.635	21606
889.759	21549
889.883	21523
890.006	21504
890.13	21564
890.254	21412
890.377	21348
890.501	21313
890.624	21199
890.748	21283
890.871	21043
890.995	21039
891.118	21039
891.241	21142
891.364	21043
891.488	21192
891.611	21085
891.734	21047
891.857	21108
891.98	21096
892.103	21066
892.226	21024
892.349	20838
892.471	20952
892.594	21017
892.717	21055
892.839	20979
892.962	20891
893.085	21039
893.207	20868
893.33	20857
893.452	20868
893.575	21024
893.697	20941
893.819	21066
893.941	21119
894.064	21138
894.186	20819
894.308	20834
894.43	21005
894.552	21249
894.674	21024
894.796	20868
894.918	20906
895.04	20887
895.161	20944
895.283	20830
895.405	20918
895.526	20914
895.648	20880
895.769	20925
895.891	20967
896.012	21032
896.134	20952
896.255	20960
896.376	20887
896.498	20853
896.619	20982
896.74	20902
896.861	20941
896.982	21268
897.103	21367
897.224	21161
897.345	21142
897.466	21051
897.587	21062
897.708	21325
897.828	21150
897.949	21043
898.07	20990
898.19	21112
898.311	21249
898.431	21070
898.552	21089
898.672	21051
898.792	21138
898.913	21218
899.033	21062
899.153	20826
899.273	20716
899.393	20849
899.513	20941
899.633	20967
899.753	20849
899.873	20777
899.993	20762
900.113	20724
900.232	20826
900.352	20758
900.472	20731
900.591	20590
900.711	20800
900.83	20663
900.95	20800
901.069	20754
901.189	20552
901.308	20294
901.427	20221
901.546	20252
901.665	20252
901.784	20248
901.904	20069
902.023	20027
902.141	19791
902.26	19776
902.379	19822
902.498	19799
902.617	19685
902.735	19696
902.854	19723
902.973	19635
903.091	19487
903.21	19396
903.328	19304
903.446	19209
903.565	19194
903.683	19168
903.801	19126
903.919	19171
904.038	19137
904.156	18932
904.274	19023
904.392	18958
904.51	18962
904.627	18924
904.745	18890
904.863	19061
904.981	18707
905.098	18677
905.216	18665
905.334	18551
905.451	18650
905.569	18467
905.686	18623
905.803	18684
905.921	18350
906.038	18563
906.155	18471
906.272	18334
906.389	18251
906.506	18030
906.623	18083
906.74	18072
906.857	17980
906.974	18125
907.091	18178
907.208	18285
907.324	18174
907.441	18064
907.557	17927
907.674	17824
907.79	17878
907.907	17805
908.023	17923
908.139	17790
908.256	17824
908.372	17775
908.488	17741
908.604	17627
908.72	17535
908.836	17558
908.952	17520
909.068	17627
909.184	17608
909.3	17490
909.415	17756
909.531	17524
909.647	17250
909.762	17307
909.878	17223
909.993	17242
910.108	17109
910.224	17140
910.339	17227
910.454	17143
910.57	17143
910.685	16965
910.8	17269
910.915	17170
911.03	16995
911.145	16885
911.259	16812
911.374	16809
911.489	16759
911.604	16733
911.718	16519
911.833	16630
911.947	16459
912.062	16417
912.176	16649
912.291	16561
912.405	16558
912.519	16809
912.633	16694
912.748	16691
912.862	16440
912.976	16390
913.09	16272
913.204	16379
913.318	16447
913.431	16478
913.545	16455
913.659	16390
913.772	16375
913.886	16147
914	16211
914.113	16287
914.226	16299
914.34	16196
914.453	16116
914.566	16154
914.68	15972
914.793	15991
914.906	15911
915.019	15739
915.132	15724
915.245	15949
915.358	15759
915.47	15644
915.583	15709
915.696	15736
915.809	15983
915.921	15895
916.034	15679
916.146	15622
916.259	15637
916.371	15694
916.483	15675
916.595	15523
916.708	15568
916.82	15580
916.932	15549
917.044	15656
917.156	15481
917.268	15424
917.38	15393
917.491	15370
917.603	15370
917.715	15515
917.826	15485
917.938	15348
918.049	15199
918.161	15363
918.272	15473
918.384	15447
918.495	15325
918.606	15184
918.717	15097
918.828	15165
918.939	15154
919.05	15017
919.161	15138
919.272	14990
919.383	14960
919.494	15138
919.604	15405
919.715	15089
919.826	14975
919.936	15058
920.047	15226
920.157	15039
920.267	15302
920.378	15062
920.488	15127
920.598	15329
920.708	15359
920.818	15169
920.928	15249
921.038	15359
921.148	15389
921.258	15131
921.368	14876
921.477	14895
921.587	14811
921.697	14640
921.806	14804
921.916	14644
922.025	14461
922.134	14514
922.244	14438
922.353	14461
922.462	14237
922.571	14256
922.68	14111
922.789	14107
922.898	14161
923.007	14058
923.116	14172
923.224	14081
923.333	14039
923.442	13936
923.55	13906
923.659	13986
923.767	13887
923.876	13871
923.984	13913
924.092	13811
924.201	13811
924.309	13791
924.417	13765
924.525	13704
924.633	13780
924.741	14568
924.849	13537
924.956	13636
925.064	13537
925.172	13491
925.279	13514
925.387	13491
925.494	13476
925.602	13594
925.709	13457
925.816	13324
925.924	13388
926.031	13388
926.138	13377
926.245	13521
926.352	13335
926.459	13316
926.566	13487
926.673	13289
926.779	13156
926.886	13187
926.993	13065
927.099	13080
927.206	12954
927.312	12973
927.419	13133
927.525	12943
927.631	12989
927.737	12913
927.843	12848
927.95	12798
928.056	12772
928.162	12814
928.267	12878
928.373	13533
928.479	12863
928.585	12688
928.69	12821
928.796	12787
928.901	12707
929.007	12536
929.112	12620
929.218	12597
929.323	12608
929.428	12578
929.533	12665
929.638	12506
929.743	12563
929.848	12589
929.953	12460
930.058	12281
930.163	12224
930.267	12178
930.372	12357
930.477	12285
930.581	12441
930.685	12235
930.79	12136
930.894	12133
930.998	11996
931.103	12262
931.207	11870
931.311	11794
931.415	11745
931.519	11463
931.623	11459
