Data from test_V78500241_1172.txt Node
Date: Fri Mar 25 15:49:55 CST 2022
User: usil
Spectrometer: V785-0024
Trigger mode: 0
Integration Time (sec): 4.000000E-1
Scans to average: 1
Nonlinearity correction enabled: false
Boxcar width: 0
Storing dark spectrum: false
XAxis mode: Wavelengths
Number of Pixels in Spectrum: 1024
>>>>>Begin Spectral Data<<<<<
801.071	28382
801.214	28455
801.356	28177
801.499	27956
801.641	28093
801.783	27991
801.926	28002
802.068	27880
802.211	27835
802.353	27949
802.496	27637
802.638	27682
802.78	27568
802.923	27568
803.065	27408
803.208	27610
803.35	27564
803.492	27583
803.635	27762
803.777	27728
803.919	27892
804.061	28185
804.204	27926
804.346	27800
804.488	27720
804.63	27880
804.773	27778
804.915	27831
805.057	27857
805.199	27789
805.341	27994
805.483	28086
805.626	28006
805.768	27873
805.91	28082
806.052	27941
806.194	27930
806.336	28204
806.478	28128
806.62	28173
806.762	28200
806.904	28318
807.046	28626
807.188	28443
807.33	28413
807.472	28577
807.614	28489
807.756	28561
807.898	28344
808.04	28238
808.182	28272
808.324	28230
808.465	28508
808.607	28649
808.749	28793
808.891	28679
809.033	28908
809.174	28691
809.316	28596
809.458	28694
809.6	28634
809.741	28858
809.883	28869
810.025	28991
810.166	28900
810.308	29254
810.45	28942
810.591	28908
810.733	28774
810.875	28706
811.016	28786
811.158	28740
811.299	28847
811.441	28927
811.582	28949
811.724	28828
811.865	28584
812.007	28805
812.148	28736
812.29	28698
812.431	28812
812.573	29071
812.714	29151
812.855	29223
812.997	29288
813.138	29581
813.279	29467
813.421	29288
813.562	29254
813.703	29136
813.845	28839
813.986	28611
814.127	28561
814.268	28527
814.41	28641
814.551	28379
814.692	28489
814.833	28287
814.974	28356
815.115	28306
815.256	28417
815.397	28421
815.539	28379
815.68	28162
815.821	28234
815.962	28341
816.103	28162
816.244	28211
816.385	28055
816.526	27926
816.666	27846
816.807	27751
816.948	27819
817.089	27854
817.23	27785
817.371	27854
817.512	27797
817.653	27793
817.793	27603
817.934	27739
818.075	27743
818.216	27743
818.356	27720
818.497	27595
818.638	27488
818.778	27389
818.919	27561
819.06	27462
819.2	27603
819.341	27819
819.481	27656
819.622	27937
819.762	28200
819.903	28048
820.043	27899
820.184	27953
820.324	27869
820.465	27899
820.605	27869
820.746	27899
820.886	27690
821.026	27804
821.167	27873
821.307	28017
821.447	27781
821.588	27648
821.728	27633
821.868	27500
822.008	27291
822.149	27340
822.289	27154
822.429	26891
822.569	26994
822.709	26906
822.849	26720
822.99	26750
823.13	26701
823.27	26609
823.41	26560
823.55	26347
823.69	26720
823.83	26537
823.97	26450
824.11	26412
824.25	26400
824.389	26290
824.529	26537
824.669	26412
824.809	26602
824.949	26537
825.089	26427
825.228	26438
825.368	26187
825.508	26176
825.648	26415
825.787	26317
825.927	26157
826.067	26153
826.206	26077
826.346	26290
826.485	26218
826.625	26138
826.765	26374
826.904	26225
827.044	25997
827.183	26065
827.323	25982
827.462	26035
827.601	26027
827.741	25837
827.88	26103
828.02	25776
828.159	25951
828.298	25986
828.437	26043
828.577	25871
828.716	26062
828.855	25921
828.994	25655
829.134	25723
829.273	25704
829.412	25700
829.551	25529
829.69	25734
829.829	25776
829.968	25651
830.107	25723
830.246	25803
830.385	25658
830.524	25586
830.663	25460
830.802	25529
830.941	25285
831.08	25301
831.219	25381
831.357	25430
831.496	25506
831.635	25324
831.774	25141
831.913	25160
832.051	25015
832.19	25053
832.329	25031
832.467	25000
832.606	24951
832.744	24939
832.883	24867
833.022	24970
833.16	24878
833.299	25027
833.437	24962
833.576	25110
833.714	25023
833.852	25012
833.991	25000
834.129	25206
834.267	25160
834.406	24977
834.544	24973
834.682	25034
834.821	25038
834.959	25179
835.097	24924
835.235	25031
835.373	25046
835.511	24992
835.65	25012
835.788	24875
835.926	24764
836.064	24593
836.202	24642
836.34	25053
836.478	24886
836.615	24821
836.753	24844
836.891	24897
837.029	24939
837.167	24661
837.305	24741
837.443	24783
837.58	24741
837.718	24700
837.856	24623
837.993	24604
838.131	24593
838.269	24570
838.406	24490
838.544	24544
838.681	24304
838.819	24315
838.956	24091
839.094	24049
839.231	24129
839.369	24232
839.506	24551
839.643	24285
839.781	24182
839.918	24034
840.055	24213
840.193	24114
840.33	24091
840.467	24129
840.604	24083
840.742	24258
840.879	24007
841.016	24057
841.153	23882
841.29	24053
841.427	24095
841.564	24114
841.701	24034
841.838	23965
841.975	23870
842.112	23969
842.249	24007
842.385	23961
842.522	23969
842.659	23882
842.796	23843
842.933	23756
843.069	23882
843.206	23665
843.343	23729
843.479	23783
843.616	23726
843.752	23592
843.889	23562
844.025	23687
844.162	23524
844.298	23665
844.435	23524
844.571	23459
844.708	23707
844.844	23756
844.98	23608
845.117	23691
845.253	23672
845.389	23402
845.525	23570
845.661	23376
845.798	23421
845.934	23364
846.07	23318
846.206	23307
846.342	23379
846.478	23227
846.614	22999
846.75	22957
846.886	23033
847.022	23071
847.158	22999
847.294	23033
847.429	23056
847.565	22999
847.701	23292
847.837	22755
847.972	22679
848.108	22843
848.244	22847
848.379	22634
848.515	22645
848.65	22485
848.786	22694
848.921	22630
849.057	22725
849.192	22683
849.328	22584
849.463	22694
849.598	22489
849.734	22436
849.869	22421
850.004	22261
850.14	22360
850.275	22394
850.41	22306
850.545	22246
850.68	22390
850.815	22333
850.95	22306
851.085	22443
851.22	22394
851.355	22299
851.49	22329
851.625	22405
851.76	22352
851.895	22310
852.03	22242
852.165	22371
852.299	22322
852.434	22447
852.569	22409
852.703	22417
852.838	22363
852.973	22565
853.107	22523
853.242	22166
853.376	22265
853.511	22051
853.645	22139
853.78	22234
853.914	22131
854.048	22078
854.183	22158
854.317	22280
854.451	22440
854.585	22223
854.72	22265
854.854	22207
854.988	22147
855.122	22131
855.256	22082
855.39	22090
855.524	22318
855.658	22219
855.792	22230
855.926	22204
856.06	22150
856.194	22268
856.327	22169
856.461	22211
856.595	22025
856.729	22215
856.862	22207
856.996	22086
857.13	22303
857.263	22196
857.397	22234
857.53	22192
857.664	22226
857.797	22272
857.931	22268
858.064	22120
858.197	22238
858.331	22120
858.464	22166
858.597	22063
858.731	22181
858.864	22192
858.997	22139
859.13	22196
859.263	22261
859.396	22310
859.529	22158
859.662	22059
859.795	22257
859.928	22139
860.061	22265
860.194	22348
860.327	22154
860.46	22196
860.592	22367
860.725	22344
860.858	22238
860.99	22166
861.123	22105
861.256	22181
861.388	22158
861.521	22786
861.653	21979
861.786	22032
861.918	22063
862.05	22002
862.183	22051
862.315	22128
862.447	22238
862.58	22166
862.712	21812
862.844	21835
862.976	22078
863.108	22131
863.24	22386
863.372	21743
863.504	21884
863.636	21937
863.768	22036
863.9	21895
864.032	21819
864.164	21785
864.296	21968
864.428	21953
864.559	21880
864.691	21991
864.823	21918
864.954	21899
865.086	21808
865.217	21876
865.349	21698
865.48	21720
865.612	21793
865.743	21842
865.875	21747
866.006	21759
866.137	21785
866.269	21884
866.4	21743
866.531	21633
866.662	21618
866.793	21781
866.924	21823
867.055	21701
867.186	21720
867.317	21625
867.448	21515
867.579	21717
867.71	21504
867.841	21648
867.972	21629
868.103	21717
868.233	21698
868.364	21743
868.495	21698
868.625	21876
868.756	21926
868.886	21865
869.017	21945
869.147	21972
869.278	22086
869.408	21960
869.539	22063
869.669	22063
869.799	21903
869.929	21937
870.06	21956
870.19	22246
870.32	22219
870.45	22192
870.58	22242
870.71	22333
870.84	22428
870.97	22386
871.1	22276
871.23	22402
871.36	22497
871.489	22443
871.619	22424
871.749	22622
871.879	22531
872.008	22645
872.138	22470
872.267	22535
872.397	22261
872.526	22367
872.656	22322
872.785	22481
872.915	22493
873.044	22645
873.173	22535
873.303	22554
873.432	22535
873.561	22702
873.69	22584
873.819	22550
873.948	22519
874.077	22626
874.206	22618
874.335	22519
874.464	22641
874.593	22824
874.722	22698
874.851	22717
874.979	22687
875.108	22755
875.237	22793
875.365	22641
875.494	22755
875.623	22896
875.751	22752
875.88	22892
876.008	22968
876.136	22908
876.265	23178
876.393	23170
876.521	23296
876.65	23212
876.778	23220
876.906	23067
877.034	23079
877.162	23075
877.29	22965
877.418	23086
877.546	23189
877.674	23037
877.802	22961
877.93	23064
878.058	23109
878.185	23014
878.313	23060
878.441	23147
878.568	22968
878.696	23117
878.824	23117
878.951	23098
879.079	23265
879.206	23311
879.333	23235
879.461	23094
879.588	23277
879.715	23273
879.842	23364
879.97	23284
880.097	22995
880.224	22896
880.351	23056
880.478	22896
880.605	22934
880.732	22984
880.859	23162
880.986	23029
881.112	22812
881.239	22706
881.366	22702
881.493	22546
881.619	22409
881.746	22588
881.872	22542
881.999	22386
882.125	22382
882.252	22504
882.378	22379
882.505	22455
882.631	22379
882.757	22280
882.883	22086
883.01	22200
883.136	22234
883.262	22101
883.388	22010
883.514	22162
883.64	22143
883.766	22105
883.892	21949
884.018	21972
884.143	22048
884.269	22173
884.395	21804
884.52	21797
884.646	21800
884.772	21724
884.897	21797
885.023	21732
885.148	21831
885.274	21846
885.399	21915
885.524	21823
885.65	21690
885.775	21789
885.9	21797
886.025	21876
886.15	21937
886.275	21766
886.4	21724
886.525	21709
886.65	21698
886.775	21755
886.9	21812
887.025	22032
887.149	21762
887.274	21557
887.399	21599
887.523	21576
887.648	21549
887.773	21587
887.897	21690
888.021	21485
888.146	21549
888.27	21698
888.395	21637
888.519	21599
888.643	21591
888.767	21466
888.891	21504
889.015	21291
889.139	21443
889.263	21374
889.387	21511
889.511	21557
889.635	21435
889.759	21477
889.883	21252
890.006	21405
890.13	21443
890.254	21233
890.377	21291
890.501	21093
890.624	21013
890.748	21195
890.871	20971
890.995	20853
891.118	21013
891.241	20948
891.364	20933
891.488	20948
891.611	20872
891.734	20910
891.857	20967
891.98	20914
892.103	20998
892.226	20944
892.349	20830
892.471	20644
892.594	20838
892.717	20727
892.839	20670
892.962	20918
893.085	20883
893.207	20701
893.33	20678
893.452	20739
893.575	20906
893.697	20659
893.819	21013
893.941	20975
894.064	21047
894.186	20674
894.308	20807
894.43	20895
894.552	20815
894.674	20826
894.796	20674
894.918	20773
895.04	20636
895.161	20834
895.283	20807
895.405	20716
895.526	20686
895.648	20823
895.769	20872
895.891	20777
896.012	20849
896.134	20724
896.255	20762
896.376	20853
896.498	20800
896.619	20861
896.74	20781
896.861	20819
896.982	21180
897.103	21165
897.224	21096
897.345	21032
897.466	20883
897.587	20929
897.708	21165
897.828	21108
897.949	20967
898.07	20914
898.19	20952
898.311	20982
898.431	20979
898.552	21028
898.672	20998
898.792	21135
898.913	21100
899.033	20880
899.153	20906
899.273	20762
899.393	20708
899.513	20815
899.633	20746
899.753	20758
899.873	20625
899.993	20785
900.113	20689
900.232	20686
900.352	20625
900.472	20492
900.591	20442
900.711	20552
900.83	20461
900.95	20590
901.069	20590
901.189	20488
901.308	20142
901.427	20077
901.546	19951
901.665	20069
901.784	20031
901.904	19932
902.023	19826
902.141	19571
902.26	19533
902.379	19590
902.498	19525
902.617	19594
902.735	19639
902.854	19537
902.973	19472
903.091	19324
903.21	19190
903.328	19129
903.446	19137
903.565	19103
903.683	19061
903.801	18837
903.919	18947
904.038	18878
904.156	18844
904.274	18951
904.392	18658
904.51	18913
904.627	18749
904.745	18829
904.863	18920
904.981	18650
905.098	18353
905.216	18509
905.334	18445
905.451	18475
905.569	18502
905.686	18437
905.803	18391
905.921	18353
906.038	18369
906.155	18388
906.272	18216
906.389	18125
906.506	18015
906.623	18098
906.74	17950
906.857	17920
906.974	17946
907.091	18068
907.208	18167
907.324	17923
907.441	17870
907.557	17722
907.674	17684
907.79	17608
907.907	17703
908.023	17775
908.139	17748
908.256	17668
908.372	17619
908.488	17558
908.604	17532
908.72	17315
908.836	17345
908.952	17364
909.068	17471
909.184	17459
909.3	17429
909.415	17395
909.531	17474
909.647	17162
909.762	17147
909.878	17124
909.993	17124
910.108	17075
910.224	16946
910.339	17124
910.454	16980
910.57	16835
910.685	16824
910.8	17197
910.915	17025
911.03	17041
911.145	16694
911.259	16828
911.374	16717
911.489	16664
911.604	16558
911.718	16409
911.833	16402
911.947	16367
912.062	16215
912.176	16424
912.291	16447
912.405	16481
912.519	16653
912.633	16698
912.748	16417
912.862	16417
912.976	16287
913.09	16131
913.204	16291
913.318	16280
913.431	16390
913.545	16337
913.659	16325
913.772	16158
913.886	16071
914	16082
914.113	16074
914.226	16105
914.34	16071
914.453	15922
914.566	16086
914.68	15987
914.793	15827
914.906	15793
915.019	15603
915.132	15542
915.245	15648
915.358	15644
915.47	15637
915.583	15614
915.696	15637
915.809	15759
915.921	15705
916.034	15644
916.146	15545
916.259	15507
916.371	15755
916.483	15481
916.595	15397
916.708	15473
916.82	15389
916.932	15481
917.044	15408
917.156	15378
917.268	15256
917.38	15306
917.491	15245
917.603	15294
917.715	15310
917.826	15351
917.938	15252
918.049	15081
918.161	15195
918.272	15351
918.384	15359
918.495	15180
918.606	15104
918.717	14921
918.828	15013
918.939	15093
919.05	15013
919.161	14990
919.272	14834
919.383	14811
919.494	15013
919.604	15214
919.715	14982
919.826	14918
919.936	15005
920.047	15089
920.157	14971
920.267	15047
920.378	15051
920.488	14883
920.598	15142
920.708	15313
920.818	15123
920.928	15169
921.038	15317
921.148	15252
921.258	14925
921.368	14807
921.477	14769
921.587	14686
921.697	14598
921.806	14686
921.916	14526
922.025	14423
922.134	14343
922.244	14320
922.353	14492
922.462	14278
922.571	14126
922.68	13997
922.789	14001
922.898	13986
923.007	13944
923.116	13993
923.224	13967
923.333	13963
923.442	13791
923.55	13753
923.659	13849
923.767	13890
923.876	13727
923.984	13860
924.092	13761
924.201	13864
924.309	13750
924.417	13746
924.525	13647
924.633	13582
924.741	14377
924.849	13464
924.956	13502
925.064	13487
925.172	13335
925.279	13381
925.387	13350
925.494	13331
925.602	13476
925.709	13430
925.816	13213
925.924	13244
926.031	13358
926.138	13263
926.245	13365
926.352	13266
926.459	13331
926.566	13438
926.673	13175
926.779	13141
926.886	13088
926.993	13000
927.099	12882
927.206	12867
927.312	12909
927.419	12962
927.525	12958
927.631	12951
927.737	12958
927.843	12798
927.95	12604
928.056	12722
928.162	12696
928.267	12745
928.373	13419
928.479	12810
928.585	12498
928.69	12627
928.796	12700
928.901	12639
929.007	12464
929.112	12589
929.218	12604
929.323	12506
929.428	12426
929.533	12574
929.638	12338
929.743	12414
929.848	12414
929.953	12388
930.058	12254
930.163	12148
930.267	12098
930.372	12262
930.477	12125
930.581	12285
930.685	12133
930.79	12038
930.894	11988
930.998	11999
931.103	12121
931.207	11783
931.311	11684
931.415	11558
931.519	11372
931.623	11372
