Data from test_V78500241_1046.txt Node
Date: Fri Mar 25 15:49:02 CST 2022
User: usil
Spectrometer: V785-0024
Trigger mode: 0
Integration Time (sec): 4.000000E-1
Scans to average: 1
Nonlinearity correction enabled: false
Boxcar width: 0
Storing dark spectrum: false
XAxis mode: Wavelengths
Number of Pixels in Spectrum: 1024
>>>>>Begin Spectral Data<<<<<
801.071	28481
801.214	28318
801.356	28192
801.499	28029
801.641	27937
801.783	27770
801.926	27918
802.068	27854
802.211	27854
802.353	27720
802.496	27633
802.638	27622
802.78	27618
802.923	27454
803.065	27530
803.208	27496
803.35	27492
803.492	27644
803.635	27671
803.777	27580
803.919	27869
804.061	28074
804.204	27975
804.346	27804
804.488	27789
804.63	27663
804.773	27610
804.915	27838
805.057	27797
805.199	27743
805.341	27869
805.483	27953
805.626	27941
805.768	27819
805.91	27922
806.052	28055
806.194	27884
806.336	28063
806.478	28082
806.62	28116
806.762	28029
806.904	28196
807.046	28455
807.188	28371
807.33	28295
807.472	28538
807.614	28424
807.756	28185
807.898	28230
808.04	28257
808.182	28192
808.324	28352
808.465	28401
808.607	28417
808.749	28634
808.891	28713
809.033	28809
809.174	28584
809.316	28569
809.458	28691
809.6	28504
809.741	28828
809.883	28793
810.025	29037
810.166	28869
810.308	28953
810.45	28965
810.591	28824
810.733	28645
810.875	28649
811.016	28546
811.158	28599
811.299	28717
811.441	28850
811.582	28793
811.724	28611
811.865	28485
812.007	28687
812.148	28733
812.29	28679
812.431	28698
812.573	28930
812.714	29056
812.855	29216
812.997	29246
813.138	29417
813.279	29436
813.421	29220
813.562	29014
813.703	29079
813.845	28904
813.986	28618
814.127	28481
814.268	28333
814.41	28344
814.551	28474
814.692	28459
814.833	28284
814.974	28303
815.115	28284
815.256	28238
815.397	28287
815.539	28268
815.68	28150
815.821	28120
815.962	28177
816.103	28078
816.244	27956
816.385	27888
816.526	27945
816.666	27785
816.807	27587
816.948	27736
817.089	27789
817.23	27709
817.371	27682
817.512	27629
817.653	27766
817.793	27732
817.934	27637
818.075	27679
818.216	27736
818.356	27530
818.497	27458
818.638	27420
818.778	27321
818.919	27344
819.06	27580
819.2	27538
819.341	27705
819.481	27698
819.622	27713
819.762	27873
819.903	27762
820.043	27895
820.184	27610
820.324	27797
820.465	27846
820.605	27865
820.746	27827
820.886	27595
821.026	27785
821.167	27785
821.307	27819
821.447	27599
821.588	27644
821.728	27408
821.868	27420
822.008	27241
822.149	27195
822.289	27192
822.429	26792
822.569	26868
822.709	26731
822.849	26632
822.99	26804
823.13	26663
823.27	26682
823.41	26469
823.55	26355
823.69	26602
823.83	26473
823.97	26518
824.11	26237
824.25	26282
824.389	26358
824.529	26400
824.669	26313
824.809	26385
824.949	26427
825.089	26320
825.228	26377
825.368	26157
825.508	26084
825.648	26164
825.787	26180
825.927	26233
826.067	26191
826.206	26225
826.346	26263
826.485	26218
826.625	26149
826.765	26313
826.904	26126
827.044	25959
827.183	25970
827.323	25875
827.462	25986
827.601	25860
827.741	25959
827.88	25974
828.02	25830
828.159	25791
828.298	25940
828.437	25963
828.577	25685
828.716	25841
828.855	25879
828.994	25624
829.134	25559
829.273	25563
829.412	25567
829.551	25525
829.69	25567
829.829	25674
829.968	25609
830.107	25757
830.246	25533
830.385	25601
830.524	25411
830.663	25472
830.802	25407
830.941	25175
831.08	25099
831.219	25240
831.357	25202
831.496	25441
831.635	25369
831.774	25122
831.913	25107
832.051	24954
832.19	25133
832.329	25038
832.467	24867
832.606	24875
832.744	24878
832.883	24973
833.022	24882
833.16	24859
833.299	24928
833.437	24909
833.576	24897
833.714	24939
833.852	24966
833.991	24928
834.129	25019
834.267	25038
834.406	24966
834.544	24947
834.682	24837
834.821	24848
834.959	24875
835.097	24905
835.235	24977
835.373	25099
835.511	24859
835.65	24722
835.788	24821
835.926	24635
836.064	24540
836.202	24544
836.34	24837
836.478	24894
836.615	24722
836.753	24669
836.891	24768
837.029	24665
837.167	24597
837.305	24646
837.443	24646
837.58	24505
837.718	24669
837.856	24555
837.993	24536
838.131	24555
838.269	24437
838.406	24422
838.544	24407
838.681	24201
838.819	24205
838.956	24079
839.094	24072
839.231	24266
839.369	24125
839.506	24490
839.643	24296
839.781	24098
839.918	24026
840.055	24049
840.193	23996
840.33	23866
840.467	23961
840.604	24079
840.742	24380
840.879	23851
841.016	24007
841.153	23840
841.29	24129
841.427	24091
841.564	23927
841.701	23916
841.838	23999
841.975	23798
842.112	23912
842.249	23752
842.385	23710
842.522	23942
842.659	23931
842.796	23805
842.933	23783
843.069	23733
843.206	23657
843.343	23676
843.479	23718
843.616	23695
843.752	23467
843.889	23482
844.025	23627
844.162	23501
844.298	23798
844.435	23421
844.571	23436
844.708	23539
844.844	23661
844.98	23535
845.117	23619
845.253	23452
845.389	23459
845.525	23360
845.661	23356
845.798	23193
845.934	23326
846.07	23170
846.206	23239
846.342	23296
846.478	23121
846.614	22873
846.75	22854
846.886	22790
847.022	23003
847.158	22942
847.294	22892
847.429	22919
847.565	22904
847.701	22991
847.837	22736
847.972	22542
848.108	22664
848.244	22729
848.379	22630
848.515	22462
848.65	22519
848.786	22470
848.921	22561
849.057	22683
849.192	22668
849.328	22523
849.463	22493
849.598	22531
849.734	22398
849.869	22382
850.004	22295
850.14	22322
850.275	22276
850.41	22268
850.545	22200
850.68	22249
850.815	22303
850.95	22265
851.085	22436
851.22	22398
851.355	22322
851.49	22223
851.625	22344
851.76	22386
851.895	22101
852.03	22299
852.165	22291
852.299	22417
852.434	22341
852.569	22314
852.703	22257
852.838	22356
852.973	22443
853.107	22382
853.242	22386
853.376	22158
853.511	21998
853.645	21972
853.78	22344
853.914	22139
854.048	22112
854.183	22166
854.317	22169
854.451	22211
854.585	22105
854.72	22207
854.854	22093
854.988	22025
855.122	22147
855.256	21972
855.39	22196
855.524	22128
855.658	22078
855.792	22090
855.926	22196
856.06	22154
856.194	22109
856.327	22055
856.461	22040
856.595	22070
856.729	22109
856.862	22272
856.996	22139
857.13	22272
857.263	22154
857.397	22139
857.53	22143
857.664	22070
857.797	22177
857.931	22246
858.064	22078
858.197	22207
858.331	22093
858.464	22078
858.597	22017
858.731	22067
858.864	22177
858.997	21987
859.13	22059
859.263	22112
859.396	22200
859.529	22040
859.662	22128
859.795	21949
859.928	22272
860.061	22352
860.194	22333
860.327	22158
860.46	22147
860.592	22154
860.725	22196
860.858	22318
860.99	22154
861.123	21994
861.256	22150
861.388	22116
861.521	22835
861.653	22067
861.786	21968
861.918	21876
862.05	22059
862.183	21991
862.315	22025
862.447	22211
862.58	22002
862.712	21819
862.844	21850
862.976	21838
863.108	21903
863.24	22211
863.372	21766
863.504	21873
863.636	21747
863.768	21899
863.9	21812
864.032	21622
864.164	21698
864.296	21899
864.428	21953
864.559	21873
864.691	21873
864.823	21876
864.954	21671
865.086	21835
865.217	21762
865.349	21728
865.48	21736
865.612	21827
865.743	21785
865.875	21732
866.006	21606
866.137	21793
866.269	21663
866.4	21663
866.531	21720
866.662	21599
866.793	21580
866.924	21671
867.055	21686
867.186	21698
867.317	21595
867.448	21481
867.579	21641
867.71	21477
867.841	21633
867.972	21591
868.103	21641
868.233	21614
868.364	21622
868.495	21838
868.625	21751
868.756	21960
868.886	21854
869.017	21831
869.147	21907
869.278	21956
869.408	22032
869.539	21884
869.669	21987
869.799	21918
869.929	22059
870.06	22074
870.19	22185
870.32	22223
870.45	22306
870.58	22154
870.71	22447
870.84	22337
870.97	22333
871.1	22249
871.23	22504
871.36	22451
871.489	22379
871.619	22394
871.749	22424
871.879	22596
872.008	22561
872.138	22500
872.267	22424
872.397	22421
872.526	22337
872.656	22211
872.785	22253
872.915	22367
873.044	22630
873.173	22588
873.303	22584
873.432	22504
873.561	22573
873.69	22550
873.819	22523
873.948	22569
874.077	22584
874.206	22436
874.335	22470
874.464	22672
874.593	22755
874.722	22755
874.851	22797
874.979	22748
875.108	22782
875.237	22687
875.365	22527
875.494	22660
875.623	22786
875.751	22755
875.88	22698
876.008	22828
876.136	22869
876.265	23003
876.393	23227
876.521	23193
876.65	23132
876.778	23124
876.906	23090
877.034	23018
877.162	23056
877.29	23143
877.418	23083
877.546	23014
877.674	23064
877.802	22999
877.93	22987
878.058	22904
878.185	22999
878.313	22919
878.441	22946
878.568	22900
878.696	22976
878.824	23086
878.951	23010
879.079	23193
879.206	23349
879.333	23235
879.461	23155
879.588	23117
879.715	23246
879.842	23364
879.97	23189
880.097	22923
880.224	22866
880.351	22908
880.478	22778
880.605	22877
880.732	22843
880.859	23052
880.986	22790
881.112	22805
881.239	22717
881.366	22519
881.493	22535
881.619	22436
881.746	22516
881.872	22409
881.999	22405
882.125	22390
882.252	22405
882.378	22390
882.505	22550
882.631	22337
882.757	22112
882.883	22303
883.01	22166
883.136	22143
883.262	22010
883.388	22017
883.514	22002
883.64	22207
883.766	21953
883.892	21861
884.018	21842
884.143	22055
884.269	22131
884.395	21899
884.52	21728
884.646	21739
884.772	21739
884.897	21641
885.023	21827
885.148	21819
885.274	21937
885.399	21857
885.524	21770
885.65	21747
885.775	21751
885.9	21751
886.025	21903
886.15	21865
886.275	21766
886.4	21614
886.525	21713
886.65	21641
886.775	21663
886.9	21880
887.025	21911
887.149	21724
887.274	21660
887.399	21447
887.523	21583
887.648	21561
887.773	21507
887.897	21606
888.021	21542
888.146	21511
888.27	21641
888.395	21576
888.519	21679
888.643	21667
888.767	21587
888.891	21428
889.015	21249
889.139	21386
889.263	21184
889.387	21408
889.511	21511
889.635	21374
889.759	21184
889.883	21313
890.006	21355
890.13	21439
890.254	21146
890.377	21325
890.501	21039
890.624	20845
890.748	21032
890.871	20929
890.995	20800
891.118	20849
891.241	20872
891.364	20933
891.488	21043
891.611	20815
891.734	20895
891.857	20872
891.98	21005
892.103	20960
892.226	20811
892.349	20853
892.471	20746
892.594	20739
892.717	20785
892.839	20693
892.962	20762
893.085	20948
893.207	20785
893.33	20625
893.452	20579
893.575	20811
893.697	20796
893.819	20804
893.941	20971
894.064	20857
894.186	20746
894.308	20640
894.43	20735
894.552	20861
894.674	20853
894.796	20659
894.918	20632
895.04	20556
895.161	20765
895.283	20689
895.405	20659
895.526	20762
895.648	20765
895.769	20777
895.891	20777
896.012	20838
896.134	20876
896.255	20670
896.376	20587
896.498	20708
896.619	20724
896.74	20746
896.861	20758
896.982	21157
897.103	21230
897.224	20979
897.345	20918
897.466	20994
897.587	20975
897.708	21055
897.828	20883
897.949	20956
898.07	20792
898.19	20861
898.311	20971
898.431	21039
898.552	20963
898.672	20952
898.792	21043
898.913	20963
899.033	20838
899.153	20838
899.273	20602
899.393	20659
899.513	20864
899.633	20739
899.753	20670
899.873	20644
899.993	20804
900.113	20579
900.232	20632
900.352	20693
900.472	20533
900.591	20408
900.711	20480
900.83	20396
900.95	20507
901.069	20629
901.189	20381
901.308	20176
901.427	19963
901.546	19940
901.665	20081
901.784	20020
901.904	19921
902.023	19750
902.141	19582
902.26	19639
902.379	19776
902.498	19597
902.617	19559
902.735	19510
902.854	19563
902.973	19533
903.091	19301
903.21	19221
903.328	19168
903.446	18947
903.565	19031
903.683	19008
903.801	18882
903.919	19000
904.038	18924
904.156	18817
904.274	18787
904.392	18654
904.51	18757
904.627	18825
904.745	18787
904.863	18692
904.981	18589
905.098	18452
905.216	18582
905.334	18483
905.451	18388
905.569	18361
905.686	18422
905.803	18422
905.921	18201
906.038	18353
906.155	18258
906.272	18311
906.389	18030
906.506	18083
906.623	17961
906.74	17912
906.857	17878
906.974	17809
907.091	18041
907.208	18072
907.324	17904
907.441	17923
907.557	17634
907.674	17745
907.79	17608
907.907	17524
908.023	17756
908.139	17676
908.256	17680
908.372	17627
908.488	17509
908.604	17505
908.72	17299
908.836	17353
908.952	17368
909.068	17376
909.184	17474
909.3	17349
909.415	17353
909.531	17288
909.647	17189
909.762	17064
909.878	17105
909.993	17132
910.108	16991
910.224	17025
910.339	16980
910.454	16889
910.57	16991
910.685	16839
910.8	17067
910.915	16957
911.03	16915
911.145	16668
911.259	16615
911.374	16664
911.489	16565
911.604	16569
911.718	16417
911.833	16417
911.947	16382
912.062	16246
912.176	16390
912.291	16561
912.405	16379
912.519	16672
912.633	16637
912.748	16421
912.862	16424
912.976	16215
913.09	16131
913.204	16185
913.318	16169
913.431	16276
913.545	16382
913.659	16363
913.772	16200
913.886	16139
914	16017
914.113	16040
914.226	16196
914.34	15949
914.453	15831
914.566	16013
914.68	15960
914.793	15869
914.906	15713
915.019	15606
915.132	15500
915.245	15690
915.358	15622
915.47	15576
915.583	15584
915.696	15564
915.809	15641
915.921	15698
916.034	15625
916.146	15507
916.259	15485
916.371	15564
916.483	15568
916.595	15428
916.708	15393
916.82	15523
916.932	15439
917.044	15336
917.156	15344
917.268	15218
917.38	15363
917.491	15135
917.603	15317
917.715	15321
917.826	15321
917.938	15127
918.049	15104
918.161	15233
918.272	15268
918.384	15325
918.495	15024
918.606	14975
918.717	14948
918.828	15013
918.939	14967
919.05	14918
919.161	14948
919.272	14777
919.383	14864
919.494	15028
919.604	15214
919.715	14906
919.826	14899
919.936	14929
920.047	14998
920.157	15043
920.267	15127
920.378	14971
920.488	14914
920.598	15032
920.708	15207
920.818	15150
920.928	14921
921.038	15222
921.148	15154
921.258	14941
921.368	14754
921.477	14655
921.587	14663
921.697	14533
921.806	14667
921.916	14549
922.025	14393
922.134	14309
922.244	14248
922.353	14351
922.462	14210
922.571	14199
922.68	14016
922.789	13921
922.898	14031
923.007	13845
923.116	14035
923.224	14001
923.333	13909
923.442	13750
923.55	13765
923.659	13803
923.767	13852
923.876	13727
923.984	13772
924.092	13693
924.201	13731
924.309	13666
924.417	13674
924.525	13605
924.633	13567
924.741	14431
924.849	13419
924.956	13575
925.064	13350
925.172	13327
925.279	13362
925.387	13411
925.494	13350
925.602	13464
925.709	13396
925.816	13255
925.924	13183
926.031	13377
926.138	13339
926.245	13358
926.352	13171
926.459	13312
926.566	13274
926.673	13164
926.779	13099
926.886	13118
926.993	12821
927.099	12951
927.206	12894
927.312	12772
927.419	12909
927.525	12913
927.631	12897
927.737	12779
927.843	12673
927.95	12677
928.056	12684
928.162	12681
928.267	12757
928.373	13293
928.479	12745
928.585	12528
928.69	12608
928.796	12734
928.901	12559
929.007	12422
929.112	12536
929.218	12479
929.323	12509
929.428	12479
929.533	12566
929.638	12418
929.743	12391
929.848	12395
929.953	12399
930.058	12311
930.163	12041
930.267	12114
930.372	12254
930.477	12011
930.581	12247
930.685	12182
930.79	11992
930.894	12072
930.998	11931
931.103	12098
931.207	11741
931.311	11657
931.415	11490
931.519	11398
931.623	11406
