Data from test_V78500241_2259.txt Node
Date: Fri Mar 25 15:57:26 CST 2022
User: usil
Spectrometer: V785-0024
Trigger mode: 0
Integration Time (sec): 4.000000E-1
Scans to average: 1
Nonlinearity correction enabled: false
Boxcar width: 0
Storing dark spectrum: false
XAxis mode: Wavelengths
Number of Pixels in Spectrum: 1024
>>>>>Begin Spectral Data<<<<<
801.071	29170
801.214	29151
801.356	28767
801.499	28774
801.641	28721
801.783	28710
801.926	28786
802.068	28740
802.211	28664
802.353	28615
802.496	28325
802.638	28478
802.78	28367
802.923	28356
803.065	28291
803.208	28291
803.35	28322
803.492	28554
803.635	28656
803.777	28512
803.919	28793
804.061	28991
804.204	28592
804.346	28660
804.488	28653
804.63	28561
804.773	28675
804.915	28687
805.057	28774
805.199	28668
805.341	28847
805.483	28843
805.626	28797
805.768	28687
805.91	28885
806.052	28717
806.194	28675
806.336	28900
806.478	28752
806.62	28850
806.762	29006
806.904	29128
807.046	29311
807.188	29159
807.33	29212
807.472	29379
807.614	29235
807.756	29269
807.898	29216
808.04	29079
808.182	29052
808.324	29208
808.465	29197
808.607	29375
808.749	29448
808.891	29512
809.033	29718
809.174	29554
809.316	29490
809.458	29501
809.6	29512
809.741	29619
809.883	29707
810.025	29619
810.166	29748
810.308	29775
810.45	29866
810.591	29703
810.733	29562
810.875	29516
811.016	29501
811.158	29452
811.299	29566
811.441	29680
811.582	29707
811.724	29646
811.865	29509
812.007	29630
812.148	29520
812.29	29695
812.431	29707
812.573	30018
812.714	29984
812.855	30159
812.997	30235
813.138	30270
813.279	30311
813.421	30076
813.562	29984
813.703	29904
813.845	29722
813.986	29554
814.127	29349
814.268	29318
814.41	29364
814.551	29265
814.692	29490
814.833	29193
814.974	29391
815.115	29231
815.256	29121
815.397	29178
815.539	29090
815.68	29025
815.821	29075
815.962	29006
816.103	29105
816.244	28987
816.385	28862
816.526	28881
816.666	28653
816.807	28580
816.948	28580
817.089	28774
817.23	28679
817.371	28500
817.512	28694
817.653	28592
817.793	28504
817.934	28561
818.075	28744
818.216	28744
818.356	28565
818.497	28538
818.638	28367
818.778	28356
818.919	28417
819.06	28447
819.2	28436
819.341	28603
819.481	28550
819.622	28835
819.762	28980
819.903	28904
820.043	28869
820.184	28797
820.324	28710
820.465	28843
820.605	28698
820.746	28656
820.886	28672
821.026	28618
821.167	28694
821.307	28748
821.447	28683
821.588	28409
821.728	28371
821.868	28158
822.008	28105
822.149	28074
822.289	28105
822.429	27857
822.569	27804
822.709	27717
822.849	27583
822.99	27705
823.13	27625
823.27	27401
823.41	27382
823.55	27230
823.69	27435
823.83	27287
823.97	27302
824.11	27207
824.25	27275
824.389	27127
824.529	27439
824.669	27222
824.809	27507
824.949	27408
825.089	27340
825.228	27386
825.368	27157
825.508	27028
825.648	27036
825.787	27275
825.927	27157
826.067	27180
826.206	27055
826.346	27256
826.485	27081
826.625	27150
826.765	27245
826.904	27233
827.044	26986
827.183	26910
827.323	26910
827.462	26994
827.601	26883
827.741	26891
827.88	26940
828.02	26724
828.159	26925
828.298	26838
828.437	26811
828.577	26701
828.716	26990
828.855	26785
828.994	26507
829.134	26594
829.273	26461
829.412	26560
829.551	26362
829.69	26499
829.829	26609
829.968	26632
830.107	26701
830.246	26598
830.385	26480
830.524	26381
830.663	26317
830.802	26195
830.941	26195
831.08	26096
831.219	26271
831.357	26244
831.496	26252
831.635	26088
831.774	25993
831.913	25997
832.051	25868
832.19	25932
832.329	25982
832.467	25852
832.606	25868
832.744	25845
832.883	25708
833.022	25765
833.16	25814
833.299	25799
833.437	25833
833.576	25887
833.714	25940
833.852	25978
833.991	25887
834.129	25871
834.267	25959
834.406	25898
834.544	25997
834.682	25845
834.821	25814
834.959	25982
835.097	25685
835.235	25860
835.373	25894
835.511	25959
835.65	25704
835.788	25708
835.926	25613
836.064	25518
836.202	25628
836.34	25712
836.478	25883
836.615	25677
836.753	25696
836.891	25674
837.029	25750
837.167	25540
837.305	25609
837.443	25491
837.58	25518
837.718	25552
837.856	25552
837.993	25365
838.131	25464
838.269	25308
838.406	25468
838.544	25240
838.681	25107
838.819	25145
838.956	25046
839.094	24970
839.231	25206
839.369	25175
839.506	25278
839.643	25171
839.781	24928
839.918	24859
840.055	25023
840.193	24882
840.33	24863
840.467	24779
840.604	24943
840.742	25072
840.879	24779
841.016	24894
841.153	24779
841.29	24890
841.427	24859
841.564	24837
841.701	24875
841.838	24829
841.975	24722
842.112	24821
842.249	24719
842.385	24696
842.522	24753
842.659	24650
842.796	24612
842.933	24665
843.069	24639
843.206	24544
843.343	24593
843.479	24490
843.616	24525
843.752	24407
843.889	24422
844.025	24509
844.162	24311
844.298	24528
844.435	24460
844.571	24372
844.708	24426
844.844	24479
844.98	24471
845.117	24422
845.253	24357
845.389	24224
845.525	24273
845.661	24315
845.798	24144
845.934	24155
846.07	24186
846.206	24171
846.342	24399
846.478	24022
846.614	23805
846.75	23836
846.886	23828
847.022	23756
847.158	23847
847.294	23821
847.429	23748
847.565	23729
847.701	24015
847.837	23604
847.972	23467
848.108	23558
848.244	23592
848.379	23471
848.515	23387
848.65	23391
848.786	23376
848.921	23425
849.057	23531
849.192	23497
849.328	23364
849.463	23535
849.598	23364
849.734	23254
849.869	23261
850.004	23151
850.14	23212
850.275	23197
850.41	23003
850.545	23083
850.68	23189
850.815	23162
850.95	23258
851.085	23341
851.22	23311
851.355	23258
851.49	23124
851.625	23044
851.76	23151
851.895	23037
852.03	23102
852.165	23151
852.299	23143
852.434	23250
852.569	23151
852.703	23124
852.838	23261
852.973	23368
853.107	23280
853.242	23086
853.376	23124
853.511	22946
853.645	22987
853.78	23079
853.914	22972
854.048	22896
854.183	23060
854.317	23041
854.451	23235
854.585	22934
854.72	22965
854.854	23071
854.988	23003
855.122	23064
855.256	22908
855.39	22877
855.524	23121
855.658	23006
855.792	23014
855.926	23029
856.06	23029
856.194	23022
856.327	23067
856.461	22854
856.595	22831
856.729	22949
856.862	23075
856.996	23048
857.13	23052
857.263	23041
857.397	23086
857.53	22889
857.664	22927
857.797	23136
857.931	23102
858.064	23071
858.197	23071
858.331	22961
858.464	22885
858.597	22919
858.731	22984
858.864	22942
858.997	23052
859.13	23010
859.263	22972
859.396	23010
859.529	22999
859.662	22869
859.795	22866
859.928	22919
860.061	23159
860.194	23208
860.327	23094
860.46	23018
860.592	23189
860.725	23094
860.858	23227
860.99	23018
861.123	22923
861.256	22900
861.388	22946
861.521	23672
861.653	22900
861.786	22736
861.918	22763
862.05	22725
862.183	22942
862.315	22900
862.447	22976
862.58	22824
862.712	22733
862.844	22615
862.976	22729
863.108	22786
863.24	23212
863.372	22717
863.504	22573
863.636	22725
863.768	22694
863.9	22634
864.032	22691
864.164	22675
864.296	22687
864.428	22702
864.559	22706
864.691	22717
864.823	22702
864.954	22565
865.086	22596
865.217	22584
865.349	22504
865.48	22443
865.612	22557
865.743	22599
865.875	22580
866.006	22470
866.137	22489
866.269	22637
866.4	22500
866.531	22466
866.662	22459
866.793	22508
866.924	22455
867.055	22508
867.186	22489
867.317	22485
867.448	22379
867.579	22478
867.71	22382
867.841	22371
867.972	22565
868.103	22428
868.233	22447
868.364	22497
868.495	22599
868.625	22774
868.756	22896
868.886	22828
869.017	22675
869.147	22744
869.278	22858
869.408	22725
869.539	22793
869.669	22923
869.799	22725
869.929	22778
870.06	22797
870.19	22965
870.32	23113
870.45	23010
870.58	23185
870.71	23242
870.84	23254
870.97	23128
871.1	23094
871.23	23277
871.36	23341
871.489	23159
871.619	23288
871.749	23265
871.879	23239
872.008	23410
872.138	23258
872.267	23341
872.397	23174
872.526	23197
872.656	23140
872.785	23060
872.915	23528
873.044	23433
873.173	23322
873.303	23471
873.432	23330
873.561	23528
873.69	23280
873.819	23372
873.948	23360
874.077	23406
874.206	23315
874.335	23216
874.464	23482
874.593	23642
874.722	23509
874.851	23528
874.979	23539
875.108	23512
875.237	23589
875.365	23429
875.494	23505
875.623	23619
875.751	23573
875.88	23429
876.008	23493
876.136	23672
876.265	24030
876.393	24140
876.521	23946
876.65	23908
876.778	23935
876.906	23855
877.034	23779
877.162	23813
877.29	23832
877.418	23904
877.546	23836
877.674	23847
877.802	23817
877.93	23786
878.058	23882
878.185	23733
878.313	23824
878.441	23882
878.568	23703
878.696	23794
878.824	23813
878.951	23893
879.079	23954
879.206	24087
879.333	24125
879.461	23737
879.588	23996
879.715	24026
879.842	24174
879.97	23923
880.097	23866
880.224	23649
880.351	23760
880.478	23687
880.605	23604
880.732	23687
880.859	23805
880.986	23589
881.112	23619
881.239	23486
881.366	23254
881.493	23322
881.619	23376
881.746	23330
881.872	23140
881.999	23143
882.125	23109
882.252	23307
882.378	23105
882.505	23258
882.631	23162
882.757	22980
882.883	23025
883.01	22900
883.136	22885
883.262	22797
883.388	22717
883.514	23014
883.64	22896
883.766	22885
883.892	22656
884.018	22763
884.143	22896
884.269	22949
884.395	22603
884.52	22466
884.646	22557
884.772	22478
884.897	22466
885.023	22580
885.148	22577
885.274	22653
885.399	22656
885.524	22565
885.65	22356
885.775	22603
885.9	22535
886.025	22645
886.15	22580
886.275	22516
886.4	22497
886.525	22607
886.65	22459
886.775	22409
886.9	22626
887.025	22691
887.149	22527
887.274	22402
887.399	22253
887.523	22325
887.648	22306
887.773	22196
887.897	22440
888.021	22333
888.146	22299
888.27	22485
888.395	22337
888.519	22306
888.643	22314
888.767	22306
888.891	22154
889.015	22188
889.139	22074
889.263	21975
889.387	22246
889.511	22295
889.635	22211
889.759	22029
889.883	22048
890.006	22116
890.13	22093
890.254	21930
890.377	21892
890.501	21781
890.624	21800
890.748	21926
890.871	21656
890.995	21671
891.118	21515
891.241	21686
891.364	21545
891.488	21736
891.611	21656
891.734	21587
891.857	21713
891.98	21637
892.103	21587
892.226	21595
892.349	21610
892.471	21420
892.594	21504
892.717	21507
892.839	21534
892.962	21542
893.085	21576
893.207	21416
893.33	21393
893.452	21473
893.575	21519
893.697	21507
893.819	21614
893.941	21766
894.064	21713
894.186	21447
894.308	21450
894.43	21488
894.552	21622
894.674	21606
894.796	21355
894.918	21458
895.04	21386
895.161	21485
895.283	21568
895.405	21329
895.526	21549
895.648	21454
895.769	21466
895.891	21511
896.012	21606
896.134	21447
896.255	21500
896.376	21477
896.498	21408
896.619	21675
896.74	21477
896.861	21523
896.982	21778
897.103	21964
897.224	21774
897.345	21819
897.466	21648
897.587	21762
897.708	21861
897.828	21667
897.949	21667
898.07	21469
898.19	21618
898.311	21568
898.431	21583
898.552	21637
898.672	21698
898.792	21656
898.913	21694
899.033	21492
899.153	21504
899.273	21256
899.393	21393
899.513	21454
899.633	21291
899.753	21401
899.873	21279
899.993	21542
900.113	21325
900.232	21291
900.352	21298
900.472	21195
900.591	21272
900.711	21142
900.83	21058
900.95	21214
901.069	21359
901.189	21001
901.308	20891
901.427	20651
901.546	20663
901.665	20701
901.784	20838
901.904	20670
902.023	20412
902.141	20438
902.26	20248
902.379	20351
902.498	20149
902.617	20115
902.735	20168
902.854	20218
902.973	20039
903.091	19982
903.21	19883
903.328	19830
903.446	19731
903.565	19788
903.683	19746
903.801	19594
903.919	19571
904.038	19548
904.156	19388
904.274	19506
904.392	19384
904.51	19392
904.627	19320
904.745	19514
904.863	19468
904.981	19278
905.098	19122
905.216	19053
905.334	19069
905.451	19133
905.569	19110
905.686	19198
905.803	19061
905.921	18913
906.038	18913
906.155	18901
906.272	18802
906.389	18802
906.506	18536
906.623	18642
906.74	18589
906.857	18418
906.974	18490
907.091	18764
907.208	18661
907.324	18635
907.441	18498
907.557	18300
907.674	18372
907.79	18262
907.907	18262
908.023	18213
908.139	18338
908.256	18213
908.372	18171
908.488	18186
908.604	17988
908.72	18022
908.836	18034
908.952	18007
909.068	18041
909.184	18038
909.3	18041
909.415	18019
909.531	18087
909.647	17748
909.762	17653
909.878	17676
909.993	17695
910.108	17592
910.224	17596
910.339	17661
910.454	17471
910.57	17539
910.685	17448
910.8	17619
910.915	17653
911.03	17436
911.145	17387
911.259	17299
911.374	17284
911.489	17151
911.604	17124
911.718	16949
911.833	17006
911.947	16957
912.062	16930
912.176	17098
912.291	17079
912.405	17090
912.519	17197
912.633	17212
912.748	17147
912.862	17052
912.976	16809
913.09	16767
913.204	16771
913.318	16850
913.431	16885
913.545	16930
913.659	16938
913.772	16866
913.886	16721
914	16588
914.113	16656
914.226	16683
914.34	16683
914.453	16527
914.566	16664
914.68	16474
914.793	16462
914.906	16306
915.019	16188
915.132	16192
915.245	16188
915.358	16253
915.47	16109
915.583	16246
915.696	16147
915.809	16272
915.921	16314
916.034	16200
916.146	16040
916.259	16109
916.371	16139
916.483	16086
916.595	15930
916.708	16051
916.82	15960
916.932	15888
917.044	15983
917.156	15869
917.268	15892
917.38	15861
917.491	15759
917.603	15831
917.715	15911
917.826	15789
917.938	15789
918.049	15614
918.161	15705
918.272	15819
918.384	15884
918.495	15717
918.606	15545
918.717	15439
918.828	15595
918.939	15622
919.05	15386
919.161	15458
919.272	15374
919.383	15382
919.494	15481
919.604	15656
919.715	15496
919.826	15447
919.936	15412
920.047	15564
920.157	15515
920.267	15652
920.378	15485
920.488	15416
920.598	15698
920.708	15724
920.818	15538
920.928	15606
921.038	15854
921.148	15701
921.258	15458
921.368	15348
921.477	15222
921.587	15214
921.697	15055
921.806	15252
921.916	15017
922.025	14910
922.134	14754
922.244	14708
922.353	14891
922.462	14712
922.571	14663
922.68	14492
922.789	14377
922.898	14522
923.007	14374
923.116	14469
923.224	14476
923.333	14454
923.442	14305
923.55	14271
923.659	14278
923.767	14206
923.876	14286
923.984	14309
924.092	14168
924.201	14119
924.309	14199
924.417	14225
924.525	14065
924.633	14069
924.741	14815
924.849	13913
924.956	14020
925.064	13955
925.172	13860
925.279	13780
925.387	13830
925.494	13852
925.602	13871
925.709	13879
925.816	13780
925.924	13826
926.031	13746
926.138	13738
926.245	13826
926.352	13662
926.459	13734
926.566	13856
926.673	13655
926.779	13544
926.886	13548
926.993	13476
927.099	13350
927.206	13221
927.312	13232
927.419	13339
927.525	13324
927.631	13297
927.737	13301
927.843	13228
927.95	13004
928.056	13088
928.162	13213
928.267	13168
928.373	13677
928.479	13247
928.585	12989
928.69	13114
928.796	13152
928.901	12981
929.007	12897
929.112	13091
929.218	12886
929.323	12806
929.428	12875
929.533	12996
929.638	12753
929.743	12825
929.848	12886
929.953	12814
930.058	12726
930.163	12532
930.267	12483
930.372	12646
930.477	12467
930.581	12662
930.685	12597
930.79	12471
930.894	12372
930.998	12365
931.103	12498
931.207	12133
931.311	12034
931.415	11954
931.519	11832
931.623	11775
