Data from test_V78500241_3187.txt Node
Date: Fri Mar 25 16:03:52 CST 2022
User: usil
Spectrometer: V785-0024
Trigger mode: 0
Integration Time (sec): 4.000000E-1
Scans to average: 1
Nonlinearity correction enabled: false
Boxcar width: 0
Storing dark spectrum: false
XAxis mode: Wavelengths
Number of Pixels in Spectrum: 1024
>>>>>Begin Spectral Data<<<<<
801.071	28793
801.214	28660
801.356	28500
801.499	28584
801.641	28356
801.783	28204
801.926	28432
802.068	28341
802.211	28303
802.353	28238
802.496	28051
802.638	28010
802.78	27994
802.923	27884
803.065	28021
803.208	28093
803.35	28074
803.492	28093
803.635	28246
803.777	28093
803.919	28246
804.061	28622
804.204	28154
804.346	28120
804.488	28162
804.63	28116
804.773	28131
804.915	28246
805.057	28371
805.199	28318
805.341	28253
805.483	28424
805.626	28367
805.768	28303
805.91	28371
806.052	28462
806.194	28436
806.336	28630
806.478	28333
806.62	28386
806.762	28599
806.904	28687
807.046	28869
807.188	28790
807.33	28812
807.472	28873
807.614	28793
807.756	28828
807.898	28782
808.04	28713
808.182	28736
808.324	28668
808.465	28778
808.607	28968
808.749	29174
808.891	29136
809.033	29258
809.174	29090
809.316	29048
809.458	29109
809.6	29064
809.741	29227
809.883	29162
810.025	29288
810.166	29375
810.308	29360
810.45	29227
810.591	29254
810.733	29174
810.875	29113
811.016	28972
811.158	28934
811.299	29288
811.441	29303
811.582	29258
811.724	29189
811.865	29140
812.007	29178
812.148	29010
812.29	29170
812.431	29269
812.573	29315
812.714	29608
812.855	29661
812.997	29691
813.138	29973
813.279	29779
813.421	29687
813.562	29471
813.703	29448
813.845	29280
813.986	29010
814.127	28919
814.268	28828
814.41	28733
814.551	28774
814.692	28854
814.833	28759
814.974	28786
815.115	28805
815.256	28694
815.397	28763
815.539	28710
815.68	28675
815.821	28497
815.962	28691
816.103	28550
816.244	28500
816.385	28485
816.526	28329
816.666	28223
816.807	27998
816.948	28185
817.089	28268
817.23	28139
817.371	28204
817.512	28063
817.653	28120
817.793	28025
817.934	28070
818.075	28139
818.216	28192
818.356	28078
818.497	27979
818.638	27903
818.778	27850
818.919	27911
819.06	27945
819.2	28150
819.341	28128
819.481	28048
819.622	28386
819.762	28371
819.903	28436
820.043	28386
820.184	28333
820.324	28337
820.465	28329
820.605	28272
820.746	28162
820.886	28044
821.026	28040
821.167	28109
821.307	28287
821.447	28306
821.588	28116
821.728	27968
821.868	27861
822.008	27709
822.149	27599
822.289	27477
822.429	27374
822.569	27302
822.709	27351
822.849	27108
822.99	27192
823.13	27173
823.27	27108
823.41	27032
823.55	26746
823.69	26979
823.83	26975
823.97	26842
824.11	26861
824.25	26937
824.389	26902
824.529	26750
824.669	26838
824.809	26857
824.949	26902
825.089	26929
825.228	26830
825.368	26762
825.508	26697
825.648	26564
825.787	26697
825.927	26758
826.067	26724
826.206	26648
826.346	26640
826.485	26830
826.625	26678
826.765	26800
826.904	26655
827.044	26518
827.183	26651
827.323	26336
827.462	26507
827.601	26389
827.741	26412
827.88	26434
828.02	26336
828.159	26336
828.298	26514
828.437	26374
828.577	26374
828.716	26457
828.855	26362
828.994	26062
829.134	26027
829.273	26119
829.412	26111
829.551	25963
829.69	26111
829.829	26168
829.968	26172
830.107	26168
830.246	26054
830.385	26005
830.524	25966
830.663	25936
830.802	25708
830.941	25658
831.08	25693
831.219	25753
831.357	25765
831.496	25883
831.635	25662
831.774	25620
831.913	25563
832.051	25727
832.19	25445
832.329	25453
832.467	25320
832.606	25381
832.744	25308
832.883	25198
833.022	25392
833.16	25270
833.299	25430
833.437	25400
833.576	25491
833.714	25559
833.852	25559
833.991	25335
834.129	25597
834.267	25502
834.406	25381
834.544	25282
834.682	25396
834.821	25339
834.959	25635
835.097	25362
835.235	25381
835.373	25327
835.511	25453
835.65	25225
835.788	25369
835.926	24996
836.064	25061
836.202	25259
836.34	25198
836.478	25274
836.615	25251
836.753	25221
836.891	25293
837.029	25263
837.167	25137
837.305	25031
837.443	25152
837.58	25076
837.718	25057
837.856	25118
837.993	25057
838.131	25107
838.269	24890
838.406	24909
838.544	24882
838.681	24730
838.819	24730
838.956	24528
839.094	24456
839.231	24570
839.369	24646
839.506	24909
839.643	24779
839.781	24604
839.918	24525
840.055	24369
840.193	24585
840.33	24346
840.467	24505
840.604	24403
840.742	24620
840.879	24330
841.016	24505
841.153	24277
841.29	24547
841.427	24437
841.564	24460
841.701	24429
841.838	24456
841.975	24456
842.112	24418
842.249	24277
842.385	24205
842.522	24372
842.659	24174
842.796	24273
842.933	24178
843.069	24114
843.206	24030
843.343	24247
843.479	24258
843.616	24247
843.752	23988
843.889	24110
844.025	24117
844.162	24026
844.298	24140
844.435	24034
844.571	23878
844.708	24186
844.844	24205
844.98	24087
845.117	23988
845.253	23897
845.389	24079
845.525	23912
845.661	23920
845.798	23802
845.934	23752
846.07	23695
846.206	23855
846.342	23859
846.478	23760
846.614	23630
846.75	23379
846.886	23455
847.022	23543
847.158	23543
847.294	23436
847.429	23455
847.565	23467
847.701	23710
847.837	23136
847.972	23140
848.108	23239
848.244	23162
848.379	23117
848.515	22972
848.65	23060
848.786	22965
848.921	23079
849.057	23174
849.192	23239
849.328	22911
849.463	23052
849.598	23022
849.734	23064
849.869	22889
850.004	22839
850.14	22904
850.275	22839
850.41	22584
850.545	22687
850.68	22824
850.815	22854
850.95	22805
851.085	22999
851.22	22919
851.355	22961
851.49	22831
851.625	22710
851.76	22717
851.895	22759
852.03	22763
852.165	22744
852.299	22885
852.434	22961
852.569	22831
852.703	22812
852.838	22858
852.973	22915
853.107	22965
853.242	22752
853.376	22641
853.511	22436
853.645	22497
853.78	22778
853.914	22634
854.048	22596
854.183	22710
854.317	22687
854.451	22824
854.585	22615
854.72	22592
854.854	22584
854.988	22584
855.122	22592
855.256	22577
855.39	22611
855.524	22721
855.658	22835
855.792	22645
855.926	22637
856.06	22641
856.194	22694
856.327	22588
856.461	22542
856.595	22569
856.729	22603
856.862	22790
856.996	22607
857.13	22702
857.263	22759
857.397	22615
857.53	22630
857.664	22634
857.797	22706
857.931	22618
858.064	22683
858.197	22839
858.331	22664
858.464	22527
858.597	22489
858.731	22535
858.864	22649
858.997	22462
859.13	22615
859.263	22565
859.396	22668
859.529	22706
859.662	22542
859.795	22637
859.928	22588
860.061	22843
860.194	22843
860.327	22774
860.46	22668
860.592	22752
860.725	22786
860.858	22767
860.99	22523
861.123	22573
861.256	22531
861.388	22565
861.521	23486
861.653	22424
861.786	22440
861.918	22337
862.05	22474
862.183	22481
862.315	22656
862.447	22672
862.58	22531
862.712	22470
862.844	22375
862.976	22360
863.108	22348
863.24	22816
863.372	22276
863.504	22352
863.636	22337
863.768	22356
863.9	22417
864.032	22246
864.164	22291
864.296	22371
864.428	22386
864.559	22390
864.691	22428
864.823	22284
864.954	22363
865.086	22272
865.217	22226
865.349	22150
865.48	22185
865.612	22173
865.743	22447
865.875	22329
866.006	22234
866.137	22306
866.269	22093
866.4	22253
866.531	22150
866.662	22181
866.793	22086
866.924	22185
867.055	22185
867.186	22253
867.317	21956
867.448	22105
867.579	22185
867.71	22128
867.841	21964
867.972	22090
868.103	22051
868.233	22204
868.364	22120
868.495	22234
868.625	22276
868.756	22421
868.886	22280
869.017	22299
869.147	22516
869.278	22500
869.408	22447
869.539	22341
869.669	22394
869.799	22516
869.929	22542
870.06	22634
870.19	22622
870.32	22649
870.45	22733
870.58	22831
870.71	22881
870.84	22946
870.97	22691
871.1	22839
871.23	22968
871.36	22961
871.489	22847
871.619	22957
871.749	22885
871.879	23006
872.008	23083
872.138	22987
872.267	22961
872.397	22877
872.526	22774
872.656	22767
872.785	22649
872.915	22995
873.044	23060
873.173	22984
873.303	23006
873.432	23086
873.561	23052
873.69	23052
873.819	22919
873.948	23067
874.077	22934
874.206	22847
874.335	22949
874.464	23018
874.593	23204
874.722	23159
874.851	23204
874.979	23235
875.108	23406
875.237	23143
875.365	23014
875.494	23147
875.623	23246
875.751	23334
875.88	23151
876.008	23330
876.136	23455
876.265	23630
876.393	23752
876.521	23699
876.65	23634
876.778	23718
876.906	23417
877.034	23535
877.162	23520
877.29	23440
877.418	23684
877.546	23611
877.674	23528
877.802	23539
877.93	23474
878.058	23501
878.185	23402
878.313	23531
878.441	23486
878.568	23322
878.696	23459
878.824	23463
878.951	23676
879.079	23691
879.206	23882
879.333	23649
879.461	23558
879.588	23589
879.715	23737
879.842	23790
879.97	23531
880.097	23368
880.224	23265
880.351	23440
880.478	23455
880.605	23277
880.732	23353
880.859	23596
880.986	23280
881.112	23391
881.239	23322
881.366	23037
881.493	22987
881.619	22869
881.746	22968
881.872	22869
881.999	22930
882.125	22847
882.252	22900
882.378	22835
882.505	23025
882.631	22725
882.757	22782
882.883	22736
883.01	22569
883.136	22573
883.262	22398
883.388	22405
883.514	22542
883.64	22599
883.766	22584
883.892	22341
884.018	22478
884.143	22550
884.269	22626
884.395	22363
884.52	22116
884.646	22314
884.772	22105
884.897	22116
885.023	22162
885.148	22257
885.274	22451
885.399	22249
885.524	22131
885.65	22211
885.775	22238
885.9	22188
886.025	22253
886.15	22367
886.275	22029
886.4	22238
886.525	22181
886.65	22204
886.775	22082
886.9	22322
887.025	22455
887.149	22150
887.274	21937
887.399	21869
887.523	21926
887.648	21880
887.773	21922
887.897	22017
888.021	21922
888.146	21975
888.27	22093
888.395	22051
888.519	22116
888.643	22021
888.767	22078
888.891	21846
889.015	21816
889.139	21732
889.263	21812
889.387	21960
889.511	21926
889.635	21975
889.759	21705
889.883	21739
890.006	21762
890.13	21797
890.254	21671
890.377	21656
890.501	21424
890.624	21633
890.748	21606
890.871	21496
890.995	21355
891.118	21203
891.241	21378
891.364	21275
891.488	21538
891.611	21488
891.734	21313
891.857	21526
891.98	21359
892.103	21294
892.226	21169
892.349	21230
892.471	21043
892.594	21218
892.717	21241
892.839	21180
892.962	21184
893.085	21329
893.207	21313
893.33	21047
893.452	21070
893.575	21268
893.697	21195
893.819	21329
893.941	21397
894.064	21211
894.186	21203
894.308	21039
894.43	21272
894.552	21416
894.674	21203
894.796	20963
894.918	21188
895.04	21058
895.161	21226
895.283	21222
895.405	21188
895.526	21173
895.648	21077
895.769	21306
895.891	21146
896.012	21123
896.134	21241
896.255	21241
896.376	21207
896.498	21066
896.619	21245
896.74	21157
896.861	21245
896.982	21530
897.103	21667
897.224	21367
897.345	21466
897.466	21325
897.587	21218
897.708	21504
897.828	21458
897.949	21374
898.07	21306
898.19	21283
898.311	21435
898.431	21199
898.552	21348
898.672	21507
898.792	21477
898.913	21393
899.033	21256
899.153	21077
899.273	21112
899.393	21138
899.513	21024
899.633	21211
899.753	21081
899.873	21089
899.993	21070
900.113	21062
900.232	21066
900.352	21104
900.472	21005
900.591	20811
900.711	20918
900.83	20804
900.95	21032
901.069	20838
901.189	20785
901.308	20549
901.427	20434
901.546	20454
901.665	20511
901.784	20419
901.904	20328
902.023	20161
902.141	20012
902.26	20073
902.379	20050
902.498	20103
902.617	19883
902.735	20054
902.854	19978
902.973	19883
903.091	19609
903.21	19590
903.328	19578
903.446	19552
903.565	19453
903.683	19426
903.801	19293
903.919	19381
904.038	19350
904.156	19171
904.274	19225
904.392	19187
904.51	19091
904.627	19168
904.745	19160
904.863	19194
904.981	18962
905.098	18825
905.216	18776
905.334	18886
905.451	18814
905.569	18776
905.686	18875
905.803	18764
905.921	18623
906.038	18715
906.155	18669
906.272	18448
906.389	18528
906.506	18304
906.623	18391
906.74	18258
906.857	18247
906.974	18213
907.091	18376
907.208	18437
907.324	18330
907.441	18327
907.557	18136
907.674	18003
907.79	18045
907.907	18072
908.023	18091
908.139	18079
908.256	17946
908.372	17942
908.488	17931
908.604	17783
908.72	17775
908.836	17764
908.952	17760
909.068	17786
909.184	17847
909.3	17733
909.415	17817
909.531	17783
909.647	17417
909.762	17410
909.878	17452
909.993	17463
910.108	17398
910.224	17455
910.339	17269
910.454	17360
910.57	17193
910.685	17109
910.8	17512
910.915	17349
911.03	17265
911.145	17147
911.259	17018
911.374	17086
911.489	16976
911.604	16896
911.718	16858
911.833	16767
911.947	16717
912.062	16561
912.176	16710
912.291	16797
912.405	16843
912.519	16968
912.633	16843
912.748	16892
912.862	16793
912.976	16569
913.09	16561
913.204	16523
913.318	16607
913.431	16603
913.545	16698
913.659	16717
913.772	16626
913.886	16417
914	16333
914.113	16363
914.226	16592
914.34	16375
914.453	16333
914.566	16413
914.68	16204
914.793	16188
914.906	16044
915.019	15945
915.132	15915
915.245	15907
915.358	16025
915.47	15953
915.583	15937
915.696	15975
915.809	15987
915.921	16112
916.034	15880
916.146	15785
916.259	15732
916.371	15945
916.483	15895
916.595	15739
916.708	15816
916.82	15804
916.932	15751
917.044	15694
917.156	15682
917.268	15595
917.38	15584
917.491	15644
917.603	15599
917.715	15660
917.826	15637
917.938	15549
918.049	15496
918.161	15542
918.272	15557
918.384	15724
918.495	15511
918.606	15389
918.717	15127
918.828	15439
918.939	15405
919.05	15222
919.161	15230
919.272	15176
919.383	15108
919.494	15348
919.604	15530
919.715	15256
919.826	15230
919.936	15260
920.047	15226
920.157	15249
920.267	15488
920.378	15298
920.488	15207
920.598	15481
920.708	15561
920.818	15447
920.928	15370
921.038	15488
921.148	15412
921.258	15176
921.368	15119
921.477	15005
921.587	14941
921.697	14941
921.806	14979
921.916	14811
922.025	14682
922.134	14545
922.244	14552
922.353	14743
922.462	14518
922.571	14469
922.68	14282
922.789	14317
922.898	14259
923.007	14248
923.116	14282
923.224	14183
923.333	14199
923.442	14039
923.55	14012
923.659	14096
923.767	14084
923.876	13890
923.984	14103
924.092	13913
924.201	14031
924.309	13917
924.417	14027
924.525	13887
924.633	13898
924.741	14750
924.849	13708
924.956	13807
925.064	13670
925.172	13620
925.279	13655
925.387	13719
925.494	13666
925.602	13700
925.709	13594
925.816	13537
925.924	13636
926.031	13605
926.138	13548
926.245	13582
926.352	13449
926.459	13643
926.566	13620
926.673	13499
926.779	13392
926.886	13320
926.993	13171
927.099	13190
927.206	13175
927.312	13137
927.419	13129
927.525	13141
927.631	13225
927.737	13057
927.843	13046
927.95	12882
928.056	12897
928.162	12958
928.267	13050
928.373	13502
928.479	13091
928.585	12753
928.69	12886
928.796	12958
928.901	12844
929.007	12772
929.112	12821
929.218	12783
929.323	12772
929.428	12650
929.533	12913
929.638	12658
929.743	12665
929.848	12688
929.953	12601
930.058	12536
930.163	12467
930.267	12334
930.372	12555
930.477	12350
930.581	12544
930.685	12433
930.79	12213
930.894	12281
930.998	12106
931.103	12262
931.207	12034
931.311	11950
931.415	11809
931.519	11649
931.623	11573
