Data from test_V78500241_3650.txt Node
Date: Fri Mar 25 16:07:05 CST 2022
User: usil
Spectrometer: V785-0024
Trigger mode: 0
Integration Time (sec): 4.000000E-1
Scans to average: 1
Nonlinearity correction enabled: false
Boxcar width: 0
Storing dark spectrum: false
XAxis mode: Wavelengths
Number of Pixels in Spectrum: 1024
>>>>>Begin Spectral Data<<<<<
801.071	28215
801.214	28207
801.356	28070
801.499	27945
801.641	27781
801.783	27743
801.926	27926
802.068	27823
802.211	27774
802.353	27747
802.496	27648
802.638	27568
802.78	27530
802.923	27393
803.065	27405
803.208	27450
803.35	27492
803.492	27717
803.635	27793
803.777	27580
803.919	27774
804.061	27960
804.204	27690
804.346	27755
804.488	27648
804.63	27679
804.773	27717
804.915	27736
805.057	27903
805.199	27667
805.341	27922
805.483	27819
805.626	27861
805.768	27717
805.91	27842
806.052	27865
806.194	27857
806.336	27968
806.478	27956
806.62	27797
806.762	28051
806.904	28139
807.046	28371
807.188	28310
807.33	28196
807.472	28447
807.614	28173
807.756	28421
807.898	28070
808.04	28158
808.182	28215
808.324	28173
808.465	28226
808.607	28367
808.749	28455
808.891	28649
809.033	28729
809.174	28645
809.316	28538
809.458	28489
809.6	28535
809.741	28508
809.883	28679
810.025	28748
810.166	28740
810.308	28809
810.45	28717
810.591	28786
810.733	28634
810.875	28485
811.016	28493
811.158	28413
811.299	28691
811.441	28721
811.582	28843
811.724	28371
811.865	28554
812.007	28535
812.148	28630
812.29	28519
812.431	28755
812.573	28835
812.714	28968
812.855	28980
812.997	29166
813.138	29277
813.279	29349
813.421	29086
813.562	28938
813.703	28923
813.845	28793
813.986	28596
814.127	28352
814.268	28272
814.41	28291
814.551	28147
814.692	28371
814.833	28253
814.974	28192
815.115	28234
815.256	28139
815.397	28150
815.539	28086
815.68	27960
815.821	28021
815.962	28109
816.103	28002
816.244	27781
816.385	27755
816.526	27736
816.666	27557
816.807	27427
816.948	27656
817.089	27625
817.23	27648
817.371	27583
817.512	27701
817.653	27492
817.793	27507
817.934	27500
818.075	27644
818.216	27504
818.356	27496
818.497	27382
818.638	27298
818.778	27287
818.919	27321
819.06	27355
819.2	27291
819.341	27485
819.481	27462
819.622	27812
819.762	27838
819.903	27861
820.043	27850
820.184	27713
820.324	27675
820.465	27656
820.605	27595
820.746	27797
820.886	27603
821.026	27622
821.167	27686
821.307	27667
821.447	27698
821.588	27462
821.728	27306
821.868	27332
822.008	27142
822.149	27043
822.289	26906
822.429	26891
822.569	26773
822.709	26712
822.849	26613
822.99	26602
823.13	26552
823.27	26419
823.41	26328
823.55	26385
823.69	26286
823.83	26259
823.97	26408
824.11	26069
824.25	26100
824.389	26202
824.529	26229
824.669	26214
824.809	26339
824.949	26183
825.089	26191
825.228	26317
825.368	26096
825.508	26058
825.648	26058
825.787	26084
825.927	26073
826.067	26005
826.206	26111
826.346	26115
826.485	26225
826.625	26149
826.765	26233
826.904	26050
827.044	25788
827.183	25841
827.323	25731
827.462	25799
827.601	25807
827.741	25704
827.88	25856
828.02	25734
828.159	25822
828.298	25742
828.437	25803
828.577	25750
828.716	25932
828.855	25677
828.994	25495
829.134	25441
829.273	25537
829.412	25422
829.551	25354
829.69	25415
829.829	25381
829.968	25594
830.107	25358
830.246	25422
830.385	25354
830.524	25354
830.663	25217
830.802	25202
830.941	25122
831.08	24989
831.219	25259
831.357	25129
831.496	25354
831.635	25110
831.774	24954
831.913	24844
832.051	24833
832.19	24745
832.329	24905
832.467	24852
832.606	24776
832.744	24692
832.883	24707
833.022	24620
833.16	24585
833.299	24856
833.437	24707
833.576	24821
833.714	24821
833.852	24935
833.991	24882
834.129	24882
834.267	24787
834.406	24863
834.544	24840
834.682	24669
834.821	24810
834.959	24943
835.097	24688
835.235	24928
835.373	24722
835.511	24844
835.65	24642
835.788	24604
835.926	24612
836.064	24429
836.202	24471
836.34	24620
836.478	24669
836.615	24620
836.753	24597
836.891	24631
837.029	24620
837.167	24677
837.305	24319
837.443	24479
837.58	24509
837.718	24597
837.856	24441
837.993	24308
838.131	24448
838.269	24353
838.406	24319
838.544	24365
838.681	24110
838.819	24041
838.956	24018
839.094	23901
839.231	24026
839.369	24106
839.506	24277
839.643	24194
839.781	23908
839.918	23931
840.055	23984
840.193	23840
840.33	23737
840.467	23859
840.604	23942
840.742	24194
840.879	23558
841.016	23794
841.153	23828
841.29	23843
841.427	23687
841.564	23847
841.701	23847
841.838	23726
841.975	23733
842.112	23836
842.249	23760
842.385	23573
842.522	23863
842.659	23661
842.796	23600
842.933	23592
843.069	23539
843.206	23524
843.343	23668
843.479	23691
843.616	23695
843.752	23311
843.889	23303
844.025	23493
844.162	23299
844.298	23493
844.435	23395
844.571	23391
844.708	23471
844.844	23463
844.98	23570
845.117	23406
845.253	23288
845.389	23155
845.525	23364
845.661	23261
845.798	23098
845.934	23022
846.07	23113
846.206	23223
846.342	23151
846.478	23075
846.614	22877
846.75	22835
846.886	22767
847.022	22953
847.158	22831
847.294	22759
847.429	23075
847.565	22759
847.701	23025
847.837	22500
847.972	22459
848.108	22649
848.244	22626
848.379	22428
848.515	22519
848.65	22424
848.786	22390
848.921	22363
849.057	22538
849.192	22557
849.328	22504
849.463	22421
849.598	22261
849.734	22299
849.869	22230
850.004	22314
850.14	22173
850.275	22112
850.41	22055
850.545	22154
850.68	22173
850.815	22188
850.95	22139
851.085	22322
851.22	22352
851.355	22379
851.49	22097
851.625	22234
851.76	22131
851.895	22128
852.03	22211
852.165	22173
852.299	22162
852.434	22219
852.569	22192
852.703	22040
852.838	22150
852.973	22257
853.107	22257
853.242	22044
853.376	21854
853.511	21956
853.645	21979
853.78	22010
853.914	22055
854.048	21956
854.183	22078
854.317	21968
854.451	22112
854.585	22040
854.72	21964
854.854	22040
854.988	21998
855.122	21979
855.256	21846
855.39	21892
855.524	22032
855.658	22147
855.792	22048
855.926	22021
856.06	22093
856.194	22013
856.327	22059
856.461	21915
856.595	22032
856.729	21960
856.862	21994
856.996	22051
857.13	22059
857.263	22234
857.397	22029
857.53	21937
857.664	21964
857.797	22124
857.931	22131
858.064	22025
858.197	22021
858.331	21911
858.464	22032
858.597	21873
858.731	22021
858.864	22002
858.997	21930
859.13	21998
859.263	22021
859.396	22044
859.529	21850
859.662	21991
859.795	21991
859.928	22093
860.061	22139
860.194	22192
860.327	22010
860.46	21956
860.592	22139
860.725	22185
860.858	22090
860.99	22105
861.123	22002
861.256	22040
861.388	22116
861.521	22774
861.653	21876
861.786	21762
861.918	21831
862.05	22002
862.183	21899
862.315	21968
862.447	22021
862.58	21884
862.712	21812
862.844	21762
862.976	21861
863.108	21827
863.24	22234
863.372	21644
863.504	21663
863.636	21743
863.768	21694
863.9	21812
864.032	21713
864.164	21682
864.296	21835
864.428	21759
864.559	21766
864.691	21903
864.823	21812
864.954	21682
865.086	21576
865.217	21583
865.349	21530
865.48	21644
865.612	21648
865.743	21778
865.875	21614
866.006	21599
866.137	21545
866.269	21496
866.4	21557
866.531	21439
866.662	21466
866.793	21564
866.924	21538
867.055	21595
867.186	21698
867.317	21458
867.448	21526
867.579	21576
867.71	21542
867.841	21488
867.972	21599
868.103	21583
868.233	21485
868.364	21576
868.495	21568
868.625	21808
868.756	21937
868.886	21713
869.017	21747
869.147	21918
869.278	21934
869.408	21739
869.539	21827
869.669	21812
869.799	21720
869.929	21960
870.06	21880
870.19	22101
870.32	22067
870.45	22181
870.58	22204
870.71	22360
870.84	22192
870.97	22230
871.1	22253
871.23	22268
871.36	22371
871.489	22265
871.619	22375
871.749	22478
871.879	22428
872.008	22447
872.138	22443
872.267	22485
872.397	22386
872.526	22192
872.656	22310
872.785	22196
872.915	22371
873.044	22421
873.173	22379
873.303	22474
873.432	22489
873.561	22554
873.69	22546
873.819	22287
873.948	22504
874.077	22470
874.206	22291
874.335	22443
874.464	22630
874.593	22672
874.722	22455
874.851	22736
874.979	22557
875.108	22713
875.237	22504
875.365	22550
875.494	22672
875.623	22713
875.751	22592
875.88	22675
876.008	22729
876.136	22835
876.265	23052
876.393	23189
876.521	23155
876.65	23094
876.778	23140
876.906	22972
877.034	22984
877.162	22987
877.29	22919
877.418	22934
877.546	22946
877.674	22991
877.802	22927
877.93	22896
878.058	22919
878.185	23010
878.313	22850
878.441	22919
878.568	22824
878.696	22809
878.824	22999
878.951	22972
879.079	23193
879.206	23212
879.333	23235
879.461	23086
879.588	23117
879.715	23227
879.842	23277
879.97	23037
880.097	22793
880.224	22850
880.351	22748
880.478	22828
880.605	22774
880.732	22717
880.859	22911
880.986	22797
881.112	22771
881.239	22744
881.366	22527
881.493	22394
881.619	22348
881.746	22432
881.872	22276
881.999	22318
882.125	22417
882.252	22409
882.378	22272
882.505	22531
882.631	22196
882.757	22006
882.883	22246
883.01	22059
883.136	22040
883.262	21892
883.388	22055
883.514	22040
883.64	22082
883.766	21964
883.892	21850
884.018	21857
884.143	21987
884.269	22006
884.395	21736
884.52	21732
884.646	21713
884.772	21591
884.897	21469
885.023	21599
885.148	21701
885.274	21831
885.399	21869
885.524	21553
885.65	21762
885.775	21850
885.9	21812
886.025	21774
886.15	21660
886.275	21713
886.4	21614
886.525	21599
886.65	21652
886.775	21652
886.9	21717
887.025	21895
887.149	21496
887.274	21462
887.399	21492
887.523	21431
887.648	21340
887.773	21367
887.897	21564
888.021	21439
888.146	21332
888.27	21587
888.395	21477
888.519	21488
888.643	21386
888.767	21477
888.891	21256
889.015	21283
889.139	21389
889.263	21332
889.387	21355
889.511	21439
889.635	21329
889.759	21207
889.883	21165
890.006	21195
890.13	21359
890.254	21188
890.377	21119
890.501	20944
890.624	20967
890.748	21020
890.871	20895
890.995	20743
891.118	20697
891.241	20861
891.364	20727
891.488	20982
891.611	20842
891.734	20807
891.857	20830
891.98	20921
892.103	20845
892.226	20781
892.349	20636
892.471	20674
892.594	20705
892.717	20826
892.839	20667
892.962	20720
893.085	20682
893.207	20750
893.33	20560
893.452	20511
893.575	20674
893.697	20674
893.819	20743
893.941	20986
894.064	20823
894.186	20571
894.308	20629
894.43	20830
894.552	20800
894.674	20880
894.796	20590
894.918	20674
895.04	20720
895.161	20792
895.283	20773
895.405	20575
895.526	20807
895.648	20712
895.769	20807
895.891	20697
896.012	20918
896.134	20674
896.255	20712
896.376	20644
896.498	20587
896.619	20769
896.74	20621
896.861	20735
896.982	21096
897.103	21154
897.224	21028
897.345	20925
897.466	20998
897.587	20956
897.708	21013
897.828	20971
897.949	20910
898.07	20651
898.19	20899
898.311	20994
898.431	20853
898.552	20906
898.672	20929
898.792	20998
898.913	20857
899.033	20758
899.153	20743
899.273	20697
899.393	20727
899.513	20617
899.633	20541
899.753	20602
899.873	20693
899.993	20621
900.113	20602
900.232	20648
900.352	20499
900.472	20507
900.591	20355
900.711	20476
900.83	20377
900.95	20533
901.069	20465
901.189	20301
901.308	20138
901.427	20020
901.546	19898
901.665	20058
901.784	19982
901.904	19811
902.023	19784
902.141	19609
902.26	19556
902.379	19533
902.498	19346
902.617	19510
902.735	19510
902.854	19426
902.973	19415
903.091	19244
903.21	19133
903.328	19190
903.446	19103
903.565	19008
903.683	18886
903.801	18859
903.919	18863
904.038	18909
904.156	18738
904.274	18848
904.392	18700
904.51	18764
904.627	18749
904.745	18848
904.863	18661
904.981	18544
905.098	18376
905.216	18262
905.334	18395
905.451	18232
905.569	18323
905.686	18456
905.803	18334
905.921	18125
906.038	18254
906.155	18213
906.272	18152
906.389	18087
906.506	17923
906.623	17904
906.74	17866
906.857	17912
906.974	17824
907.091	17946
907.208	17996
907.324	17931
907.441	17805
907.557	17581
907.674	17695
907.79	17535
907.907	17653
908.023	17490
908.139	17703
908.256	17528
908.372	17554
908.488	17452
908.604	17425
908.72	17296
908.836	17296
908.952	17337
909.068	17296
909.184	17364
909.3	17387
909.415	17414
909.531	17353
909.647	17025
909.762	17064
909.878	17079
909.993	17037
910.108	17025
910.224	16949
910.339	17029
910.454	16889
910.57	16885
910.685	16847
910.8	16934
910.915	16942
911.03	16850
911.145	16717
911.259	16645
911.374	16577
911.489	16588
911.604	16485
911.718	16306
911.833	16325
911.947	16333
912.062	16223
912.176	16405
912.291	16402
912.405	16394
912.519	16573
912.633	16535
912.748	16405
912.862	16360
912.976	16287
913.09	16097
913.204	16124
913.318	16268
913.431	16238
913.545	16284
913.659	16253
913.772	16044
913.886	16036
914	15941
914.113	15998
914.226	16097
914.34	16017
914.453	15895
914.566	15968
914.68	15854
914.793	15903
914.906	15625
915.019	15523
915.132	15599
915.245	15545
915.358	15587
915.47	15519
915.583	15447
915.696	15591
915.809	15603
915.921	15732
916.034	15424
916.146	15454
916.259	15454
916.371	15557
916.483	15507
916.595	15393
916.708	15420
916.82	15485
916.932	15294
917.044	15374
917.156	15382
917.268	15310
917.38	15195
917.491	15245
917.603	15252
917.715	15268
917.826	15439
917.938	15161
918.049	14960
918.161	15146
918.272	15298
918.384	15207
918.495	15142
918.606	14933
918.717	14918
918.828	14929
918.939	14872
919.05	14830
919.161	14838
919.272	14792
919.383	14838
919.494	14979
919.604	15066
919.715	14857
919.826	14826
919.936	14781
920.047	14986
920.157	14845
920.267	15051
920.378	14891
920.488	14842
920.598	15024
920.708	15169
920.818	15058
920.928	15043
921.038	15188
921.148	15047
921.258	14857
921.368	14792
921.477	14712
921.587	14606
921.697	14511
921.806	14617
921.916	14541
922.025	14362
922.134	14286
922.244	14275
922.353	14389
922.462	14164
922.571	14012
922.68	14024
922.789	13822
922.898	14027
923.007	13868
923.116	13974
923.224	13856
923.333	13970
923.442	13681
923.55	13723
923.659	13677
923.767	13814
923.876	13727
923.984	13704
924.092	13708
924.201	13791
924.309	13597
924.417	13616
924.525	13696
924.633	13609
924.741	14484
924.849	13392
924.956	13426
925.064	13297
925.172	13247
925.279	13346
925.387	13316
925.494	13228
925.602	13453
925.709	13354
925.816	13137
925.924	13293
926.031	13285
926.138	13240
926.245	13285
926.352	13175
926.459	13400
926.566	13228
926.673	13175
926.779	13122
926.886	12962
926.993	12913
927.099	12951
927.206	12817
927.312	12798
927.419	12901
927.525	12776
927.631	12772
927.737	12703
927.843	12703
927.95	12639
928.056	12696
928.162	12783
928.267	12772
928.373	13285
928.479	12802
928.585	12467
928.69	12601
928.796	12658
928.901	12555
929.007	12357
929.112	12559
929.218	12471
929.323	12407
929.428	12464
929.533	12513
929.638	12353
929.743	12422
929.848	12407
929.953	12422
930.058	12304
930.163	12072
930.267	12049
930.372	12220
930.477	11984
930.581	12304
930.685	12091
930.79	11984
930.894	11950
930.998	12015
931.103	12087
931.207	11737
931.311	11596
931.415	11539
931.519	11398
931.623	11284
