Data from test_V78500241_2036.txt Node
Date: Fri Mar 25 15:55:54 CST 2022
User: usil
Spectrometer: V785-0024
Trigger mode: 0
Integration Time (sec): 4.000000E-1
Scans to average: 1
Nonlinearity correction enabled: false
Boxcar width: 0
Storing dark spectrum: false
XAxis mode: Wavelengths
Number of Pixels in Spectrum: 1024
>>>>>Begin Spectral Data<<<<<
801.071	28824
801.214	28885
801.356	28615
801.499	28569
801.641	28504
801.783	28440
801.926	28546
802.068	28295
802.211	28371
802.353	28352
802.496	28200
802.638	28139
802.78	28036
802.923	28143
803.065	28036
803.208	28025
803.35	28021
803.492	28211
803.635	28352
803.777	28268
803.919	28379
804.061	28675
804.204	28356
804.346	28322
804.488	28261
804.63	28337
804.773	28337
804.915	28436
805.057	28447
805.199	28432
805.341	28459
805.483	28596
805.626	28508
805.768	28367
805.91	28637
806.052	28485
806.194	28516
806.336	28790
806.478	28573
806.62	28500
806.762	28717
806.904	28896
807.046	28999
807.188	28778
807.33	28850
807.472	28995
807.614	28892
807.756	28946
807.898	28976
808.04	28812
808.182	28904
808.324	28869
808.465	28835
808.607	29056
808.749	29231
808.891	29280
809.033	29372
809.174	29296
809.316	29322
809.458	29223
809.6	29307
809.741	29311
809.883	29421
810.025	29551
810.166	29512
810.308	29615
810.45	29471
810.591	29455
810.733	29341
810.875	29254
811.016	29094
811.158	29200
811.299	29402
811.441	29334
811.582	29417
811.724	29307
811.865	29204
812.007	29071
812.148	29261
812.29	29463
812.431	29398
812.573	29543
812.714	29665
812.855	29805
812.997	29851
813.138	30003
813.279	29916
813.421	29920
813.562	29649
813.703	29581
813.845	29455
813.986	29212
814.127	29037
814.268	28938
814.41	28987
814.551	28877
814.692	28980
814.833	28873
814.974	28972
815.115	28850
815.256	28721
815.397	28835
815.539	28991
815.68	28729
815.821	28740
815.962	28736
816.103	28752
816.244	28634
816.385	28557
816.526	28607
816.666	28314
816.807	28226
816.948	28413
817.089	28295
817.23	28276
817.371	28200
817.512	28226
817.653	28173
817.793	28185
817.934	28303
818.075	28325
818.216	28192
818.356	28188
818.497	28147
818.638	27926
818.778	28059
818.919	27968
819.06	28090
819.2	28253
819.341	28234
819.481	28082
819.622	28451
819.762	28557
819.903	28554
820.043	28500
820.184	28390
820.324	28436
820.465	28344
820.605	28443
820.746	28246
820.886	28246
821.026	28451
821.167	28382
821.307	28314
821.447	28341
821.588	28109
821.728	28116
821.868	27892
822.008	27724
822.149	27797
822.289	27759
822.429	27515
822.569	27317
822.709	27420
822.849	27325
822.99	27268
823.13	27272
823.27	27089
823.41	27127
823.55	27028
823.69	27013
823.83	27104
823.97	26990
824.11	26925
824.25	26921
824.389	26963
824.529	27047
824.669	26883
824.809	26902
824.949	27043
825.089	26937
825.228	26963
825.368	26705
825.508	26762
825.648	26857
825.787	26811
825.927	26834
826.067	26765
826.206	26834
826.346	26708
826.485	26872
826.625	26902
826.765	26800
826.904	26746
827.044	26575
827.183	26556
827.323	26503
827.462	26503
827.601	26461
827.741	26511
827.88	26564
828.02	26507
828.159	26575
828.298	26503
828.437	26594
828.577	26461
828.716	26587
828.855	26393
828.994	26305
829.134	26168
829.273	26244
829.412	26180
829.551	26020
829.69	26286
829.829	26126
829.968	26275
830.107	26313
830.246	26088
830.385	26122
830.524	26069
830.663	25951
830.802	26043
830.941	25727
831.08	25738
831.219	25811
831.357	25913
831.496	26043
831.635	25750
831.774	25731
831.913	25655
832.051	25731
832.19	25441
832.329	25590
832.467	25514
832.606	25403
832.744	25343
832.883	25403
833.022	25544
833.16	25362
833.299	25552
833.437	25506
833.576	25693
833.714	25544
833.852	25601
833.991	25521
834.129	25609
834.267	25582
834.406	25434
834.544	25624
834.682	25491
834.821	25521
834.959	25658
835.097	25639
835.235	25529
835.373	25597
835.511	25426
835.65	25415
835.788	25312
835.926	25270
836.064	25251
836.202	25251
836.34	25358
836.478	25453
836.615	25304
836.753	25381
836.891	25434
837.029	25449
837.167	25304
837.305	25312
837.443	25225
837.58	25251
837.718	25190
837.856	25168
837.993	25122
838.131	25221
838.269	25057
838.406	25050
838.544	25171
838.681	24935
838.819	24802
838.956	24730
839.094	24563
839.231	24776
839.369	24833
839.506	24905
839.643	24859
839.781	24658
839.918	24559
840.055	24604
840.193	24544
840.33	24593
840.467	24582
840.604	24456
840.742	24707
840.879	24464
841.016	24384
841.153	24429
841.29	24551
841.427	24563
841.564	24517
841.701	24505
841.838	24528
841.975	24372
842.112	24418
842.249	24479
842.385	24262
842.522	24513
842.659	24441
842.796	24311
842.933	24338
843.069	24194
843.206	24209
843.343	24277
843.479	24228
843.616	24315
843.752	24030
843.889	24068
844.025	24239
844.162	24102
844.298	24205
844.435	24095
844.571	24041
844.708	24174
844.844	24228
844.98	24155
845.117	24117
845.253	23958
845.389	23851
845.525	23950
845.661	23824
845.798	23916
845.934	23771
846.07	23726
846.206	23893
846.342	24049
846.478	23878
846.614	23524
846.75	23345
846.886	23570
847.022	23524
847.158	23539
847.294	23444
847.429	23619
847.565	23558
847.701	23752
847.837	23265
847.972	23258
848.108	23288
848.244	23265
848.379	23067
848.515	22980
848.65	23113
848.786	22987
848.921	23121
849.057	23124
849.192	23132
849.328	23185
849.463	23143
849.598	23071
849.734	22984
849.869	22942
850.004	22862
850.14	22949
850.275	22953
850.41	22797
850.545	22729
850.68	22904
850.815	22938
850.95	22854
851.085	23064
851.22	22930
851.355	22949
851.49	22869
851.625	22740
851.76	22908
851.895	22805
852.03	22915
852.165	22896
852.299	22900
852.434	22961
852.569	22873
852.703	22892
852.838	22885
852.973	23029
853.107	22968
853.242	22885
853.376	22812
853.511	22664
853.645	22736
853.78	22801
853.914	22744
854.048	22679
854.183	22660
854.317	22672
854.451	22778
854.585	22786
854.72	22675
854.854	22786
854.988	22557
855.122	22664
855.256	22588
855.39	22645
855.524	22755
855.658	22771
855.792	22675
855.926	22683
856.06	22782
856.194	22812
856.327	22675
856.461	22691
856.595	22573
856.729	22786
856.862	22744
856.996	22706
857.13	22824
857.263	22771
857.397	22850
857.53	22691
857.664	22733
857.797	22752
857.931	22793
858.064	22854
858.197	22824
858.331	22763
858.464	22717
858.597	22550
858.731	22744
858.864	22550
858.997	22664
859.13	22782
859.263	22683
859.396	22672
859.529	22577
859.662	22778
859.795	22664
859.928	22725
860.061	22801
860.194	22991
860.327	22755
860.46	22702
860.592	22816
860.725	22873
860.858	22790
860.99	22698
861.123	22641
861.256	22733
861.388	22706
861.521	23566
861.653	22561
861.786	22538
861.918	22637
862.05	22641
862.183	22607
862.315	22698
862.447	22759
862.58	22641
862.712	22508
862.844	22341
862.976	22519
863.108	22409
863.24	22767
863.372	22466
863.504	22440
863.636	22516
863.768	22413
863.9	22481
864.032	22303
864.164	22375
864.296	22390
864.428	22554
864.559	22546
864.691	22451
864.823	22497
864.954	22440
865.086	22356
865.217	22352
865.349	22207
865.48	22265
865.612	22246
865.743	22386
865.875	22322
866.006	22246
866.137	22230
866.269	22314
866.4	22181
866.531	22246
866.662	22101
866.793	22257
866.924	22265
867.055	22238
867.186	22215
867.317	22112
867.448	22128
867.579	22200
867.71	22093
867.841	22242
867.972	22287
868.103	22139
868.233	22272
868.364	22242
868.495	22306
868.625	22325
868.756	22554
868.886	22310
869.017	22379
869.147	22592
869.278	22622
869.408	22523
869.539	22443
869.669	22481
869.799	22527
869.929	22565
870.06	22516
870.19	22828
870.32	22721
870.45	22839
870.58	22831
870.71	22987
870.84	22923
870.97	22869
871.1	22816
871.23	22984
871.36	23041
871.489	22976
871.619	22995
871.749	23060
871.879	23166
872.008	23025
872.138	23056
872.267	23090
872.397	22908
872.526	22831
872.656	22976
872.785	22915
872.915	23006
873.044	23204
873.173	23140
873.303	23136
873.432	23079
873.561	23083
873.69	23151
873.819	23113
873.948	23102
874.077	23090
874.206	23029
874.335	23109
874.464	23140
874.593	23307
874.722	23155
874.851	23250
874.979	23353
875.108	23322
875.237	23216
875.365	23231
875.494	23261
875.623	23417
875.751	23216
875.88	23349
876.008	23444
876.136	23364
876.265	23649
876.393	23805
876.521	23714
876.65	23687
876.778	23657
876.906	23687
877.034	23585
877.162	23638
877.29	23463
877.418	23661
877.546	23611
877.674	23528
877.802	23627
877.93	23490
878.058	23585
878.185	23505
878.313	23417
878.441	23600
878.568	23414
878.696	23516
878.824	23509
878.951	23699
879.079	23764
879.206	23954
879.333	23748
879.461	23691
879.588	23794
879.715	23824
879.842	23961
879.97	23699
880.097	23436
880.224	23448
880.351	23440
880.478	23452
880.605	23478
880.732	23440
880.859	23676
880.986	23280
881.112	23516
881.239	23185
881.366	23193
881.493	23121
881.619	23048
881.746	23166
881.872	23010
881.999	22984
882.125	22987
882.252	22957
882.378	23025
882.505	23044
882.631	22831
882.757	22759
882.883	22729
883.01	22626
883.136	22622
883.262	22417
883.388	22447
883.514	22630
883.64	22649
883.766	22615
883.892	22398
884.018	22470
884.143	22717
884.269	22645
884.395	22344
884.52	22306
884.646	22299
884.772	22207
884.897	22147
885.023	22314
885.148	22341
885.274	22489
885.399	22295
885.524	22318
885.65	22257
885.775	22333
885.9	22188
886.025	22386
886.15	22417
886.275	22242
886.4	22074
886.525	22360
886.65	22219
886.775	22188
886.9	22447
887.025	22474
887.149	22238
887.274	22040
887.399	22029
887.523	21953
887.648	21934
887.773	22044
887.897	22059
888.021	22059
888.146	22086
888.27	22154
888.395	22063
888.519	22063
888.643	22078
888.767	22082
888.891	21945
889.015	21827
889.139	21800
889.263	21633
889.387	21911
889.511	22063
889.635	21884
889.759	22044
889.883	21728
890.006	21785
890.13	21911
890.254	21728
890.377	21797
890.501	21618
890.624	21625
890.748	21644
890.871	21511
890.995	21397
891.118	21412
891.241	21363
891.364	21458
891.488	21519
891.611	21393
891.734	21374
891.857	21481
891.98	21298
892.103	21374
892.226	21386
892.349	21397
892.471	21157
892.594	21256
892.717	21249
892.839	21211
892.962	21275
893.085	21321
893.207	21298
893.33	21165
893.452	21169
893.575	21268
893.697	21256
893.819	21416
893.941	21443
894.064	21378
894.186	21211
894.308	21051
894.43	21302
894.552	21511
894.674	21370
894.796	21169
894.918	21176
895.04	21199
895.161	21329
895.283	21192
895.405	21154
895.526	21230
895.648	21294
895.769	21192
895.891	21336
896.012	21287
896.134	21294
896.255	21169
896.376	21165
896.498	21272
896.619	21329
896.74	21161
896.861	21264
896.982	21447
897.103	21618
897.224	21393
897.345	21481
897.466	21367
897.587	21367
897.708	21526
897.828	21477
897.949	21344
898.07	21222
898.19	21340
898.311	21473
898.431	21507
898.552	21405
898.672	21420
898.792	21587
898.913	21420
899.033	21355
899.153	21306
899.273	21108
899.393	21214
899.513	21173
899.633	21226
899.753	21287
899.873	21104
899.993	21142
900.113	21096
900.232	21089
900.352	21032
900.472	21013
900.591	21009
900.711	21051
900.83	20883
900.95	21062
901.069	21036
901.189	20823
901.308	20526
901.427	20473
901.546	20602
901.665	20446
901.784	20507
901.904	20431
902.023	20298
902.141	20031
902.26	20001
902.379	20138
902.498	19997
902.617	19826
902.735	19982
902.854	19963
902.973	19807
903.091	19685
903.21	19639
903.328	19651
903.446	19620
903.565	19392
903.683	19369
903.801	19343
903.919	19529
904.038	19343
904.156	19152
904.274	19209
904.392	19152
904.51	19209
904.627	19160
904.745	19179
904.863	19251
904.981	19031
905.098	18886
905.216	18852
905.334	18795
905.451	18916
905.569	18878
905.686	18859
905.803	18791
905.921	18711
906.038	18688
906.155	18772
906.272	18623
906.389	18521
906.506	18441
906.623	18490
906.74	18441
906.857	18220
906.974	18350
907.091	18513
907.208	18536
907.324	18384
907.441	18308
907.557	18079
907.674	18034
907.79	17999
907.907	18102
908.023	18140
908.139	18095
908.256	18095
908.372	17912
908.488	17984
908.604	17992
908.72	17809
908.836	17840
908.952	17889
909.068	17828
909.184	17859
909.3	17775
909.415	17783
909.531	17733
909.647	17627
909.762	17596
909.878	17421
909.993	17509
910.108	17414
910.224	17448
910.339	17551
910.454	17368
910.57	17307
910.685	17311
910.8	17592
910.915	17520
911.03	17296
911.145	17064
911.259	17060
911.374	17006
911.489	16949
911.604	17003
911.718	16847
911.833	16828
911.947	16702
912.062	16649
912.176	16881
912.291	16786
912.405	16866
912.519	17037
912.633	17067
912.748	16911
912.862	16725
912.976	16596
913.09	16493
913.204	16535
913.318	16626
913.431	16641
913.545	16771
913.659	16565
913.772	16580
913.886	16462
914	16394
914.113	16516
914.226	16436
914.34	16440
914.453	16306
914.566	16363
914.68	16303
914.793	16287
914.906	15991
915.019	16078
915.132	15873
915.245	16051
915.358	16029
915.47	16048
915.583	16010
915.696	15998
915.809	16109
915.921	16166
916.034	15918
916.146	15987
916.259	15854
916.371	16029
916.483	15956
916.595	15899
916.708	15789
916.82	15823
916.932	15739
917.044	15656
917.156	15743
917.268	15545
917.38	15762
917.491	15534
917.603	15599
917.715	15671
917.826	15633
917.938	15473
918.049	15393
918.161	15549
918.272	15720
918.384	15644
918.495	15591
918.606	15386
918.717	15313
918.828	15386
918.939	15329
919.05	15275
919.161	15302
919.272	15112
919.383	15252
919.494	15393
919.604	15534
919.715	15344
919.826	15207
919.936	15161
920.047	15393
920.157	15351
920.267	15481
920.378	15351
920.488	15302
920.598	15469
920.708	15584
920.818	15424
920.928	15450
921.038	15530
921.148	15530
921.258	15321
921.368	15097
921.477	14982
921.587	14994
921.697	14868
921.806	15173
921.916	14967
922.025	14765
922.134	14705
922.244	14564
922.353	14716
922.462	14602
922.571	14446
922.68	14347
922.789	14278
922.898	14225
923.007	14290
923.116	14282
923.224	14275
923.333	14225
923.442	14126
923.55	14183
923.659	14077
923.767	14225
923.876	14077
923.984	14073
924.092	13986
924.201	13986
924.309	14119
924.417	13970
924.525	13955
924.633	13887
924.741	14788
924.849	13700
924.956	13883
925.064	13704
925.172	13647
925.279	13643
925.387	13670
925.494	13636
925.602	13727
925.709	13666
925.816	13563
925.924	13590
926.031	13700
926.138	13567
926.245	13605
926.352	13434
926.459	13651
926.566	13639
926.673	13537
926.779	13460
926.886	13426
926.993	13259
927.099	13301
927.206	13160
927.312	13069
927.419	13198
927.525	13122
927.631	13179
927.737	13129
927.843	13122
927.95	12939
928.056	13004
928.162	13156
928.267	13095
928.373	13666
928.479	13141
928.585	12817
928.69	12935
928.796	12989
928.901	12772
929.007	12669
929.112	12848
929.218	12825
929.323	12795
929.428	12677
929.533	12821
929.638	12623
929.743	12662
929.848	12757
929.953	12726
930.058	12642
930.163	12395
930.267	12467
930.372	12502
930.477	12319
930.581	12570
930.685	12342
930.79	12289
930.894	12266
930.998	12235
931.103	12399
931.207	12022
931.311	11885
931.415	11729
931.519	11661
931.623	11676
