Data from test_V78500241_1087.txt Node
Date: Fri Mar 25 15:49:19 CST 2022
User: usil
Spectrometer: V785-0024
Trigger mode: 0
Integration Time (sec): 4.000000E-1
Scans to average: 1
Nonlinearity correction enabled: false
Boxcar width: 0
Storing dark spectrum: false
XAxis mode: Wavelengths
Number of Pixels in Spectrum: 1024
>>>>>Begin Spectral Data<<<<<
801.071	28550
801.214	28447
801.356	28101
801.499	27983
801.641	28063
801.783	27998
801.926	28021
802.068	27876
802.211	27934
802.353	27907
802.496	27705
802.638	27610
802.78	27507
802.923	27671
803.065	27663
803.208	27709
803.35	27637
803.492	27724
803.635	27850
803.777	27701
803.919	27835
804.061	28169
804.204	27884
804.346	27656
804.488	27850
804.63	27743
804.773	27823
804.915	28051
805.057	27987
805.199	27850
805.341	27838
805.483	28006
805.626	28078
805.768	28086
805.91	28147
806.052	27949
806.194	28097
806.336	28284
806.478	28242
806.62	28124
806.762	28200
806.904	28409
807.046	28519
807.188	28436
807.33	28519
807.472	28478
807.614	28390
807.756	28462
807.898	28367
808.04	28329
808.182	28257
808.324	28234
808.465	28462
808.607	28542
808.749	28729
808.891	28759
809.033	28900
809.174	28790
809.316	28702
809.458	28698
809.6	28561
809.741	28797
809.883	28980
810.025	29113
810.166	29010
810.308	29060
810.45	28942
810.591	28869
810.733	28862
810.875	28725
811.016	28706
811.158	28447
811.299	28809
811.441	28854
811.582	28888
811.724	28919
811.865	28649
812.007	28706
812.148	28744
812.29	28843
812.431	28812
812.573	29060
812.714	29086
812.855	29250
812.997	29341
813.138	29528
813.279	29368
813.421	29223
813.562	29277
813.703	29105
813.845	28957
813.986	28698
814.127	28459
814.268	28424
814.41	28455
814.551	28394
814.692	28531
814.833	28432
814.974	28596
815.115	28470
815.256	28291
815.397	28394
815.539	28363
815.68	28200
815.821	28158
815.962	28310
816.103	28173
816.244	28139
816.385	27949
816.526	28002
816.666	27979
816.807	27591
816.948	27762
817.089	27831
817.23	27808
817.371	27781
817.512	27770
817.653	27797
817.793	27759
817.934	27755
818.075	27774
818.216	27804
818.356	27781
818.497	27606
818.638	27545
818.778	27431
818.919	27549
819.06	27576
819.2	27652
819.341	27728
819.481	27835
819.622	27960
819.762	28063
819.903	28002
820.043	28006
820.184	27854
820.324	27903
820.465	27987
820.605	27827
820.746	27983
820.886	27800
821.026	27819
821.167	27892
821.307	27854
821.447	27800
821.588	27701
821.728	27587
821.868	27504
822.008	27298
822.149	27294
822.289	27218
822.429	26956
822.569	26918
822.709	26952
822.849	26792
822.99	26807
823.13	26750
823.27	26769
823.41	26514
823.55	26552
823.69	26575
823.83	26564
823.97	26518
824.11	26309
824.25	26362
824.389	26370
824.529	26434
824.669	26343
824.809	26552
824.949	26427
825.089	26492
825.228	26476
825.368	26256
825.508	26248
825.648	26225
825.787	26499
825.927	26252
826.067	26313
826.206	26347
826.346	26385
826.485	26320
826.625	26218
826.765	26434
826.904	26294
827.044	26115
827.183	25963
827.323	25936
827.462	25951
827.601	25978
827.741	25982
827.88	26191
828.02	25780
828.159	25970
828.298	26001
828.437	26206
828.577	25811
828.716	25864
828.855	25803
828.994	25658
829.134	25757
829.273	25693
829.412	25677
829.551	25795
829.69	25605
829.829	25731
829.968	25769
830.107	25696
830.246	25769
830.385	25548
830.524	25556
830.663	25479
830.802	25362
830.941	25266
831.08	25297
831.219	25384
831.357	25324
831.496	25677
831.635	25282
831.774	25110
831.913	25221
832.051	25099
832.19	25069
832.329	25095
832.467	25129
832.606	25023
832.744	24875
832.883	25042
833.022	24875
833.16	24837
833.299	25103
833.437	25012
833.576	24981
833.714	24859
833.852	24981
833.991	25080
834.129	25118
834.267	25122
834.406	25027
834.544	25095
834.682	25015
834.821	24977
834.959	25183
835.097	24894
835.235	25076
835.373	24958
835.511	24992
835.65	24947
835.788	24905
835.926	24631
836.064	24642
836.202	24555
836.34	24806
836.478	24882
836.615	24886
836.753	24833
836.891	24833
837.029	24757
837.167	24669
837.305	24753
837.443	24722
837.58	24814
837.718	24753
837.856	24585
837.993	24665
838.131	24616
838.269	24517
838.406	24589
838.544	24399
838.681	24281
838.819	24273
838.956	24201
839.094	24038
839.231	24285
839.369	24372
839.506	24547
839.643	24308
839.781	24163
839.918	24068
840.055	24144
840.193	24148
840.33	24064
840.467	24117
840.604	24018
840.742	24353
840.879	23897
841.016	24049
841.153	23908
841.29	24087
841.427	23969
841.564	24114
841.701	24026
841.838	23916
841.975	23920
842.112	23851
842.249	23935
842.385	23889
842.522	24007
842.659	23859
842.796	23657
842.933	23828
843.069	23840
843.206	23737
843.343	23870
843.479	23882
843.616	23703
843.752	23592
843.889	23543
844.025	23722
844.162	23531
844.298	23543
844.435	23505
844.571	23509
844.708	23608
844.844	23733
844.98	23653
845.117	23585
845.253	23467
845.389	23433
845.525	23448
845.661	23497
845.798	23231
845.934	23410
846.07	23345
846.206	23261
846.342	23398
846.478	23337
846.614	23098
846.75	22995
846.886	23029
847.022	22991
847.158	23136
847.294	23014
847.429	23075
847.565	23029
847.701	23315
847.837	22843
847.972	22603
848.108	22862
848.244	22927
848.379	22702
848.515	22580
848.65	22653
848.786	22641
848.921	22706
849.057	22812
849.192	22725
849.328	22668
849.463	22630
849.598	22641
849.734	22500
849.869	22531
850.004	22337
850.14	22356
850.275	22443
850.41	22253
850.545	22299
850.68	22379
850.815	22398
850.95	22333
851.085	22554
851.22	22379
851.355	22371
851.49	22432
851.625	22329
851.76	22409
851.895	22291
852.03	22322
852.165	22371
852.299	22242
852.434	22344
852.569	22390
852.703	22322
852.838	22405
852.973	22542
853.107	22588
853.242	22303
853.376	22200
853.511	21998
853.645	22185
853.78	22276
853.914	22226
854.048	22139
854.183	22169
854.317	22249
854.451	22344
854.585	22169
854.72	22196
854.854	22314
854.988	22253
855.122	22242
855.256	22192
855.39	22055
855.524	22284
855.658	22226
855.792	22348
855.926	22234
856.06	22234
856.194	22314
856.327	22051
856.461	22063
856.595	22154
856.729	22116
856.862	22341
856.996	22207
857.13	22352
857.263	22291
857.397	22257
857.53	22173
857.664	22303
857.797	22379
857.931	22333
858.064	22268
858.197	22329
858.331	22181
858.464	22211
858.597	22154
858.731	22093
858.864	22188
858.997	22242
859.13	22162
859.263	22200
859.396	22200
859.529	22196
859.662	22093
859.795	22116
859.928	22097
860.061	22421
860.194	22363
860.327	22272
860.46	22166
860.592	22200
860.725	22367
860.858	22352
860.99	22139
861.123	22169
861.256	22025
861.388	22166
861.521	22896
861.653	22086
861.786	22090
861.918	22105
862.05	22010
862.183	22067
862.315	22135
862.447	22219
862.58	22185
862.712	21876
862.844	21804
862.976	22128
863.108	22040
863.24	22508
863.372	21827
863.504	21899
863.636	21899
863.768	21979
863.9	21876
864.032	21816
864.164	21854
864.296	21907
864.428	21987
864.559	21937
864.691	22017
864.823	21911
864.954	21895
865.086	21819
865.217	21915
865.349	21694
865.48	21770
865.612	21732
865.743	21941
865.875	21736
866.006	21903
866.137	21816
866.269	21842
866.4	21873
866.531	21720
866.662	21717
866.793	21724
866.924	21648
867.055	21671
867.186	21717
867.317	21656
867.448	21610
867.579	21778
867.71	21603
867.841	21667
867.972	21762
868.103	21705
868.233	21667
868.364	21682
868.495	21804
868.625	21960
868.756	22131
868.886	21937
869.017	21979
869.147	21937
869.278	22032
869.408	21937
869.539	21888
869.669	22067
869.799	22074
869.929	22010
870.06	22070
870.19	22257
870.32	22299
870.45	22196
870.58	22238
870.71	22409
870.84	22459
870.97	22306
871.1	22367
871.23	22516
871.36	22527
871.489	22363
871.619	22493
871.749	22451
871.879	22649
872.008	22744
872.138	22607
872.267	22588
872.397	22436
872.526	22409
872.656	22371
872.785	22417
872.915	22557
873.044	22801
873.173	22531
873.303	22592
873.432	22561
873.561	22611
873.69	22535
873.819	22516
873.948	22691
874.077	22557
874.206	22421
874.335	22653
874.464	22687
874.593	22835
874.722	22656
874.851	22748
874.979	22866
875.108	22790
875.237	22752
875.365	22824
875.494	22759
875.623	22877
875.751	22736
875.88	22843
876.008	22889
876.136	22984
876.265	23227
876.393	23318
876.521	23204
876.65	23261
876.778	23250
876.906	23105
877.034	23185
877.162	23170
877.29	23155
877.418	23193
877.546	23136
877.674	23117
877.802	23102
877.93	23121
878.058	23044
878.185	22980
878.313	23052
878.441	23086
878.568	23044
878.696	23121
878.824	23075
878.951	23109
879.079	23284
879.206	23368
879.333	23239
879.461	23143
879.588	23299
879.715	23337
879.842	23349
879.97	23178
880.097	22957
880.224	22938
880.351	22919
880.478	22946
880.605	22824
880.732	22885
880.859	23185
880.986	22862
881.112	22889
881.239	22805
881.366	22675
881.493	22603
881.619	22538
881.746	22538
881.872	22569
881.999	22653
882.125	22508
882.252	22535
882.378	22424
882.505	22603
882.631	22481
882.757	22291
882.883	22238
883.01	22181
883.136	22109
883.262	22105
883.388	22006
883.514	22116
883.64	22257
883.766	22082
883.892	22025
884.018	22006
884.143	22139
884.269	22219
884.395	21968
884.52	21930
884.646	21717
884.772	21812
884.897	21785
885.023	21785
885.148	21903
885.274	22059
885.399	21934
885.524	21736
885.65	21888
885.775	21884
885.9	21797
886.025	21873
886.15	21907
886.275	21759
886.4	21838
886.525	21759
886.65	21755
886.775	21846
886.9	21895
887.025	22025
887.149	21705
887.274	21614
887.399	21530
887.523	21587
887.648	21424
887.773	21488
887.897	21614
888.021	21549
888.146	21599
888.27	21648
888.395	21641
888.519	21625
888.643	21637
888.767	21473
888.891	21443
889.015	21393
889.139	21466
889.263	21408
889.387	21420
889.511	21568
889.635	21507
889.759	21252
889.883	21389
890.006	21431
890.13	21523
890.254	21264
890.377	21363
890.501	21112
890.624	21108
890.748	21157
890.871	21074
890.995	20902
891.118	20914
891.241	20982
891.364	20944
891.488	20990
891.611	20834
891.734	20986
891.857	20967
891.98	20967
892.103	20876
892.226	20982
892.349	20872
892.471	20792
892.594	20857
892.717	20979
892.839	20792
892.962	20880
893.085	20823
893.207	20796
893.33	20617
893.452	20804
893.575	20796
893.697	20834
893.819	20944
893.941	21043
894.064	20948
894.186	20796
894.308	20754
894.43	20823
894.552	21077
894.674	20830
894.796	20689
894.918	20777
895.04	20804
895.161	20960
895.283	20868
895.405	20781
895.526	20857
895.648	20762
895.769	20838
895.891	20750
896.012	20857
896.134	20800
896.255	20849
896.376	20838
896.498	20819
896.619	20705
896.74	20849
896.861	20746
896.982	21100
897.103	21298
897.224	21032
897.345	21077
897.466	20948
897.587	20975
897.708	21123
897.828	20921
897.949	20986
898.07	20853
898.19	20902
898.311	21154
898.431	21062
898.552	20963
898.672	21142
898.792	21089
898.913	20998
899.033	20864
899.153	20815
899.273	20701
899.393	20735
899.513	20838
899.633	20735
899.753	20857
899.873	20602
899.993	20830
900.113	20773
900.232	20739
900.352	20621
900.472	20568
900.591	20473
900.711	20602
900.83	20488
900.95	20629
901.069	20617
901.189	20362
901.308	20176
901.427	20183
901.546	20077
901.665	20111
901.784	20001
901.904	19967
902.023	19814
902.141	19635
902.26	19624
902.379	19712
902.498	19548
902.617	19567
902.735	19651
902.854	19582
902.973	19483
903.091	19316
903.21	19240
903.328	19137
903.446	19126
903.565	19171
903.683	19103
903.801	18806
903.919	19069
904.038	19015
904.156	18863
904.274	18814
904.392	18825
904.51	18913
904.627	18779
904.745	18795
904.863	18932
904.981	18521
905.098	18532
905.216	18456
905.334	18483
905.451	18506
905.569	18399
905.686	18631
905.803	18483
905.921	18281
906.038	18361
906.155	18171
906.272	18182
906.389	18167
906.506	18038
906.623	18049
906.74	17939
906.857	17824
906.974	17908
907.091	18072
907.208	18114
907.324	18019
907.441	17920
907.557	17695
907.674	17851
907.79	17718
907.907	17710
908.023	17775
908.139	17703
908.256	17714
908.372	17562
908.488	17501
908.604	17516
908.72	17269
908.836	17349
908.952	17376
909.068	17493
909.184	17452
909.3	17379
909.415	17493
909.531	17376
909.647	17162
909.762	17200
909.878	17041
909.993	17098
910.108	17140
910.224	17071
910.339	17075
910.454	16968
910.57	16911
910.685	16843
910.8	17124
910.915	17079
911.03	17048
911.145	16862
911.259	16831
911.374	16774
911.489	16736
911.604	16561
911.718	16455
911.833	16523
911.947	16424
912.062	16356
912.176	16489
912.291	16485
912.405	16558
912.519	16679
912.633	16664
912.748	16443
912.862	16390
912.976	16276
913.09	16215
913.204	16276
913.318	16306
913.431	16432
913.545	16318
913.659	16398
913.772	16234
913.886	16135
914	16116
914.113	16207
914.226	16166
914.34	16082
914.453	15934
914.566	16063
914.68	16032
914.793	15880
914.906	15770
915.019	15633
915.132	15690
915.245	15625
915.358	15641
915.47	15603
915.583	15599
915.696	15629
915.809	15724
915.921	15842
916.034	15542
916.146	15420
916.259	15564
916.371	15656
916.483	15629
916.595	15530
916.708	15447
916.82	15439
916.932	15443
917.044	15530
917.156	15351
917.268	15374
917.38	15287
917.491	15359
917.603	15291
917.715	15329
917.826	15359
917.938	15306
918.049	15123
918.161	15291
918.272	15374
918.384	15405
918.495	15199
918.606	15104
918.717	14944
918.828	15093
918.939	15135
919.05	14975
919.161	15001
919.272	14883
919.383	14876
919.494	15074
919.604	15199
919.715	15097
919.826	14963
919.936	14956
920.047	15165
920.157	15093
920.267	15340
920.378	15089
920.488	15066
920.598	15207
920.708	15340
920.818	15173
920.928	15150
921.038	15260
921.148	15291
921.258	14975
921.368	14921
921.477	14727
921.587	14765
921.697	14636
921.806	14804
921.916	14689
922.025	14503
922.134	14404
922.244	14389
922.353	14480
922.462	14244
922.571	14267
922.68	14065
922.789	14058
922.898	14024
923.007	13982
923.116	14054
923.224	13978
923.333	13940
923.442	13856
923.55	13841
923.659	13906
923.767	13989
923.876	13731
923.984	13871
924.092	13708
924.201	13845
924.309	13719
924.417	13628
924.525	13712
924.633	13639
924.741	14381
924.849	13582
924.956	13624
925.064	13556
925.172	13388
925.279	13411
925.387	13438
925.494	13571
925.602	13521
925.709	13529
925.816	13266
925.924	13388
926.031	13434
926.138	13339
926.245	13335
926.352	13285
926.459	13362
926.566	13403
926.673	13244
926.779	13072
926.886	13171
926.993	13004
927.099	13008
927.206	12894
927.312	12882
927.419	12985
927.525	13046
927.631	13012
927.737	12844
927.843	12878
927.95	12749
928.056	12707
928.162	12795
928.267	12753
928.373	13350
928.479	12856
928.585	12604
928.69	12696
928.796	12795
928.901	12627
929.007	12559
929.112	12627
929.218	12563
929.323	12551
929.428	12475
929.533	12601
929.638	12418
929.743	12475
929.848	12589
929.953	12445
930.058	12281
930.163	12239
930.267	12235
930.372	12380
930.477	12171
930.581	12372
930.685	12201
930.79	12140
930.894	12091
930.998	11999
931.103	12213
931.207	11767
931.311	11707
931.415	11676
931.519	11417
931.623	11299
