Data from test_V78500241_2608.txt Node
Date: Fri Mar 25 15:59:52 CST 2022
User: usil
Spectrometer: V785-0024
Trigger mode: 0
Integration Time (sec): 4.000000E-1
Scans to average: 1
Nonlinearity correction enabled: false
Boxcar width: 0
Storing dark spectrum: false
XAxis mode: Wavelengths
Number of Pixels in Spectrum: 1024
>>>>>Begin Spectral Data<<<<<
801.071	28698
801.214	28809
801.356	28577
801.499	28432
801.641	28428
801.783	28124
801.926	28371
802.068	28367
802.211	28204
802.353	28261
802.496	27968
802.638	28010
802.78	27895
802.923	27987
803.065	27994
803.208	27941
803.35	28055
803.492	28086
803.635	28204
803.777	28162
803.919	28341
804.061	28508
804.204	28147
804.346	28185
804.488	28181
804.63	28226
804.773	28249
804.915	28375
805.057	28318
805.199	28310
805.341	28352
805.483	28451
805.626	28432
805.768	28265
805.91	28390
806.052	28432
806.194	28280
806.336	28618
806.478	28417
806.62	28405
806.762	28481
806.904	28847
807.046	28927
807.188	28805
807.33	28892
807.472	28881
807.614	28953
807.756	28831
807.898	28752
808.04	28706
808.182	28618
808.324	28812
808.465	28831
808.607	29121
808.749	29018
808.891	29159
809.033	29341
809.174	29193
809.316	29102
809.458	29159
809.6	29159
809.741	29296
809.883	29307
810.025	29330
810.166	29436
810.308	29478
810.45	29417
810.591	29368
810.733	29147
810.875	29189
811.016	29132
811.158	28968
811.299	29315
811.441	29299
811.582	29433
811.724	29197
811.865	29105
812.007	29124
812.148	29151
812.29	29105
812.431	29326
812.573	29425
812.714	29505
812.855	29649
812.997	29741
813.138	29874
813.279	29813
813.421	29608
813.562	29592
813.703	29303
813.845	29417
813.986	29086
814.127	28923
814.268	28911
814.41	28904
814.551	28881
814.692	28824
814.833	28679
814.974	28835
815.115	28911
815.256	28687
815.397	28721
815.539	28706
815.68	28611
815.821	28729
815.962	28706
816.103	28622
816.244	28527
816.385	28421
816.526	28367
816.666	28265
816.807	28181
816.948	28253
817.089	28257
817.23	28109
817.371	28211
817.512	28150
817.653	28082
817.793	28109
817.934	28040
818.075	28234
818.216	28192
818.356	28147
818.497	28093
818.638	27865
818.778	27865
818.919	27960
819.06	27903
819.2	28051
819.341	28177
819.481	28238
819.622	28318
819.762	28588
819.903	28504
820.043	28287
820.184	28382
820.324	28398
820.465	28413
820.605	28394
820.746	28242
820.886	28234
821.026	28295
821.167	28188
821.307	28291
821.447	28185
821.588	28048
821.728	28086
821.868	27888
822.008	27709
822.149	27644
822.289	27641
822.429	27469
822.569	27226
822.709	27336
822.849	27135
822.99	27081
823.13	27203
823.27	27108
823.41	27074
823.55	26948
823.69	26979
823.83	27024
823.97	26895
824.11	26906
824.25	26788
824.389	26788
824.529	26872
824.669	26834
824.809	26979
824.949	26868
825.089	26925
825.228	26891
825.368	26674
825.508	26594
825.648	26629
825.787	26796
825.927	26765
826.067	26644
826.206	26636
826.346	26735
826.485	26781
826.625	26724
826.765	26788
826.904	26746
827.044	26446
827.183	26598
827.323	26362
827.462	26522
827.601	26457
827.741	26415
827.88	26343
828.02	26343
828.159	26381
828.298	26549
828.437	26552
828.577	26267
828.716	26636
828.855	26263
828.994	26001
829.134	25982
829.273	26111
829.412	26153
829.551	26016
829.69	26073
829.829	26240
829.968	26305
830.107	26145
830.246	26050
830.385	26096
830.524	26126
830.663	25921
830.802	25784
830.941	25689
831.08	25693
831.219	25925
831.357	25772
831.496	25868
831.635	25826
831.774	25635
831.913	25559
832.051	25548
832.19	25419
832.329	25499
832.467	25472
832.606	25396
832.744	25449
832.883	25285
833.022	25263
833.16	25308
833.299	25358
833.437	25312
833.576	25457
833.714	25499
833.852	25556
833.991	25464
834.129	25441
834.267	25365
834.406	25445
834.544	25335
834.682	25350
834.821	25339
834.959	25609
835.097	25499
835.235	25552
835.373	25270
835.511	25411
835.65	25213
835.788	25259
835.926	25202
836.064	25057
836.202	25228
836.34	25183
836.478	25362
836.615	25225
836.753	25278
836.891	25160
837.029	25263
837.167	25289
837.305	25084
837.443	25107
837.58	25065
837.718	25129
837.856	25072
837.993	25118
838.131	25004
838.269	24916
838.406	24943
838.544	24909
838.681	24631
838.819	24764
838.956	24608
839.094	24505
839.231	24616
839.369	24760
839.506	24924
839.643	24844
839.781	24540
839.918	24380
840.055	24498
840.193	24483
840.33	24479
840.467	24498
840.604	24505
840.742	24829
840.879	24266
841.016	24460
841.153	24300
841.29	24456
841.427	24437
841.564	24429
841.701	24369
841.838	24357
841.975	24361
842.112	24350
842.249	24262
842.385	24285
842.522	24464
842.659	24311
842.796	24095
842.933	24304
843.069	24171
843.206	24197
843.343	24194
843.479	24258
843.616	24304
843.752	24087
843.889	23927
844.025	24190
844.162	23973
844.298	24022
844.435	23999
844.571	23901
844.708	23973
844.844	24136
844.98	24034
845.117	23961
845.253	23859
845.389	23710
845.525	23904
845.661	23805
845.798	23817
845.934	23783
846.07	23646
846.206	23783
846.342	23912
846.478	23676
846.614	23554
846.75	23421
846.886	23410
847.022	23459
847.158	23387
847.294	23330
847.429	23391
847.565	23402
847.701	23623
847.837	23178
847.972	23086
848.108	23299
848.244	23178
848.379	23037
848.515	23121
848.65	22991
848.786	23014
848.921	23090
849.057	23117
849.192	23109
849.328	23102
849.463	23025
849.598	22927
849.734	22946
849.869	22896
850.004	22869
850.14	22885
850.275	22744
850.41	22687
850.545	22706
850.68	22740
850.815	22809
850.95	22900
851.085	23022
851.22	22911
851.355	22801
851.49	22835
851.625	22725
851.76	22721
851.895	22713
852.03	22611
852.165	22748
852.299	22744
852.434	22843
852.569	22694
852.703	22763
852.838	22790
852.973	22976
853.107	22866
853.242	22831
853.376	22596
853.511	22527
853.645	22588
853.78	22607
853.914	22717
854.048	22455
854.183	22588
854.317	22573
854.451	22744
854.585	22641
854.72	22611
854.854	22626
854.988	22641
855.122	22675
855.256	22550
855.39	22557
855.524	22672
855.658	22672
855.792	22660
855.926	22561
856.06	22637
856.194	22615
856.327	22607
856.461	22546
856.595	22557
856.729	22561
856.862	22607
856.996	22607
857.13	22725
857.263	22820
857.397	22447
857.53	22508
857.664	22618
857.797	22577
857.931	22649
858.064	22797
858.197	22725
858.331	22538
858.464	22588
858.597	22493
858.731	22645
858.864	22512
858.997	22588
859.13	22508
859.263	22694
859.396	22744
859.529	22645
859.662	22478
859.795	22550
859.928	22588
860.061	22824
860.194	22786
860.327	22698
860.46	22618
860.592	22820
860.725	22805
860.858	22733
860.99	22679
861.123	22485
861.256	22489
861.388	22546
861.521	23364
861.653	22523
861.786	22390
861.918	22424
862.05	22436
862.183	22440
862.315	22580
862.447	22607
862.58	22489
862.712	22356
862.844	22284
862.976	22500
863.108	22413
863.24	22569
863.372	22272
863.504	22306
863.636	22257
863.768	22280
863.9	22268
864.032	22219
864.164	22181
864.296	22303
864.428	22440
864.559	22360
864.691	22325
864.823	22223
864.954	22276
865.086	22249
865.217	22101
865.349	22226
865.48	22230
865.612	22200
865.743	22303
865.875	22238
866.006	22226
866.137	22249
866.269	22219
866.4	22234
866.531	22101
866.662	22101
866.793	22021
866.924	22128
867.055	22207
867.186	22181
867.317	22086
867.448	22090
867.579	22067
867.71	21991
867.841	22010
867.972	22101
868.103	22097
868.233	22074
868.364	22181
868.495	22226
868.625	22325
868.756	22443
868.886	22265
869.017	22470
869.147	22481
869.278	22352
869.408	22489
869.539	22291
869.669	22413
869.799	22550
869.929	22485
870.06	22512
870.19	22599
870.32	22679
870.45	22607
870.58	22740
870.71	22885
870.84	22873
870.97	22774
871.1	22752
871.23	22869
871.36	22915
871.489	22965
871.619	22873
871.749	22972
871.879	23075
872.008	23121
872.138	23025
872.267	22900
872.397	23003
872.526	22710
872.656	22710
872.785	22736
872.915	22930
873.044	23006
873.173	22991
873.303	22828
873.432	23029
873.561	23265
873.69	22953
873.819	22987
873.948	23037
874.077	23025
874.206	23006
874.335	22847
874.464	23151
874.593	23254
874.722	23048
874.851	23277
874.979	23246
875.108	23254
875.237	23121
875.365	23124
875.494	23121
875.623	23261
875.751	23200
875.88	23200
876.008	23383
876.136	23376
876.265	23547
876.393	23733
876.521	23589
876.65	23615
876.778	23573
876.906	23558
877.034	23520
877.162	23661
877.29	23490
877.418	23592
877.546	23623
877.674	23493
877.802	23398
877.93	23478
878.058	23570
878.185	23455
878.313	23471
878.441	23395
878.568	23166
878.696	23280
878.824	23490
878.951	23619
879.079	23691
879.206	23809
879.333	23714
879.461	23570
879.588	23680
879.715	23687
879.842	23855
879.97	23699
880.097	23482
880.224	23322
880.351	23349
880.478	23326
880.605	23220
880.732	23391
880.859	23478
880.986	23349
881.112	23402
881.239	23162
881.366	23098
881.493	23064
881.619	22968
881.746	22854
881.872	23029
881.999	22991
882.125	22892
882.252	22919
882.378	22820
882.505	22946
882.631	22668
882.757	22645
882.883	22812
883.01	22687
883.136	22546
883.262	22470
883.388	22421
883.514	22569
883.64	22603
883.766	22386
883.892	22253
884.018	22356
884.143	22554
884.269	22584
884.395	22192
884.52	22181
884.646	22280
884.772	22147
884.897	22013
885.023	22002
885.148	22253
885.274	22348
885.399	22329
885.524	22158
885.65	22329
885.775	22131
885.9	22131
886.025	22272
886.15	22325
886.275	22253
886.4	22059
886.525	22124
886.65	22101
886.775	22207
886.9	22287
887.025	22405
887.149	22253
887.274	22082
887.399	21861
887.523	21945
887.648	21922
887.773	21937
887.897	21956
888.021	21987
888.146	21876
888.27	22101
888.395	22078
888.519	21930
888.643	21922
888.767	21998
888.891	21884
889.015	21781
889.139	21846
889.263	21732
889.387	21835
889.511	21934
889.635	21778
889.759	21713
889.883	21679
890.006	21789
890.13	21793
890.254	21728
890.377	21762
890.501	21549
890.624	21553
890.748	21523
890.871	21393
890.995	21302
891.118	21264
891.241	21214
891.364	21245
891.488	21397
891.611	21382
891.734	21275
891.857	21302
891.98	21348
892.103	21332
892.226	21291
892.349	21222
892.471	21017
892.594	21218
892.717	21150
892.839	21146
892.962	21127
893.085	21310
893.207	21214
893.33	21112
893.452	21150
893.575	21135
893.697	21180
893.819	21241
893.941	21306
894.064	21268
894.186	21188
894.308	21116
894.43	21283
894.552	21401
894.674	21226
894.796	21077
894.918	21051
895.04	21184
895.161	21256
895.283	21287
895.405	21055
895.526	21135
895.648	21100
895.769	21222
895.891	21245
896.012	21317
896.134	21298
896.255	21195
896.376	21036
896.498	21051
896.619	21214
896.74	21127
896.861	21135
896.982	21523
897.103	21561
897.224	21348
897.345	21443
897.466	21245
897.587	21336
897.708	21561
897.828	21420
897.949	21332
898.07	21180
898.19	21378
898.311	21492
898.431	21264
898.552	21279
898.672	21382
898.792	21382
898.913	21252
899.033	21226
899.153	21157
899.273	21043
899.393	21154
899.513	21058
899.633	21096
899.753	21093
899.873	20910
899.993	21138
900.113	20963
900.232	21104
900.352	20952
900.472	20910
900.591	20876
900.711	20921
900.83	20872
900.95	20849
901.069	20880
901.189	20735
901.308	20469
901.427	20347
901.546	20476
901.665	20415
901.784	20549
901.904	20358
902.023	20191
902.141	19947
902.26	19936
902.379	19906
902.498	19921
902.617	19902
902.735	19967
902.854	19940
902.973	19921
903.091	19670
903.21	19624
903.328	19502
903.446	19563
903.565	19316
903.683	19575
903.801	19194
903.919	19396
904.038	19350
904.156	19209
904.274	19312
904.392	19057
904.51	19183
904.627	19091
904.745	19171
904.863	19141
904.981	18985
905.098	18776
905.216	18802
905.334	18859
905.451	18829
905.569	18817
905.686	18882
905.803	18730
905.921	18559
906.038	18669
906.155	18593
906.272	18521
906.389	18528
906.506	18228
906.623	18388
906.74	18338
906.857	18289
906.974	18254
907.091	18327
907.208	18399
907.324	18342
907.441	18155
907.557	18053
907.674	18038
907.79	17942
907.907	18068
908.023	18057
908.139	18026
908.256	17916
908.372	17935
908.488	17923
908.604	17897
908.72	17699
908.836	17680
908.952	17832
909.068	17805
909.184	17878
909.3	17786
909.415	17786
909.531	17676
909.647	17524
909.762	17391
909.878	17417
909.993	17505
910.108	17459
910.224	17524
910.339	17383
910.454	17417
910.57	17235
910.685	17181
910.8	17520
910.915	17417
911.03	17174
911.145	17075
911.259	17128
911.374	17045
911.489	16968
911.604	16915
911.718	16752
911.833	16873
911.947	16736
912.062	16626
912.176	16713
912.291	16729
912.405	16721
912.519	16877
912.633	16949
912.748	16869
912.862	16645
912.976	16565
913.09	16546
913.204	16538
913.318	16519
913.431	16653
913.545	16717
913.659	16660
913.772	16459
913.886	16375
914	16310
914.113	16451
914.226	16561
914.34	16272
914.453	16299
914.566	16306
914.68	16280
914.793	16143
914.906	15975
915.019	16002
915.132	15945
915.245	15911
915.358	15918
915.47	15934
915.583	15846
915.696	15937
915.809	16002
915.921	16036
916.034	15911
916.146	15835
916.259	15808
916.371	15964
916.483	15869
916.595	15850
916.708	15736
916.82	15759
916.932	15800
917.044	15652
917.156	15724
917.268	15462
917.38	15568
917.491	15523
917.603	15618
917.715	15671
917.826	15599
917.938	15549
918.049	15412
918.161	15439
918.272	15629
918.384	15576
918.495	15408
918.606	15279
918.717	15245
918.828	15302
918.939	15370
919.05	15173
919.161	15230
919.272	15009
919.383	15169
919.494	15321
919.604	15542
919.715	15192
919.826	15146
919.936	15116
920.047	15447
920.157	15260
920.267	15462
920.378	15306
920.488	15123
920.598	15363
920.708	15511
920.818	15367
920.928	15344
921.038	15519
921.148	15412
921.258	15252
921.368	15135
921.477	14998
921.587	14963
921.697	14819
921.806	14979
921.916	14785
922.025	14750
922.134	14663
922.244	14552
922.353	14640
922.462	14556
922.571	14408
922.68	14298
922.789	14244
922.898	14267
923.007	14202
923.116	14309
923.224	14221
923.333	14248
923.442	14046
923.55	14111
923.659	14092
923.767	14130
923.876	13906
923.984	13993
924.092	13997
924.201	14065
924.309	13936
924.417	13951
924.525	13947
924.633	13890
924.741	14861
924.849	13658
924.956	13791
925.064	13647
925.172	13563
925.279	13575
925.387	13670
925.494	13575
925.602	13674
925.709	13639
925.816	13559
925.924	13480
926.031	13563
926.138	13480
926.245	13662
926.352	13449
926.459	13529
926.566	13597
926.673	13563
926.779	13350
926.886	13373
926.993	13206
927.099	13126
927.206	13168
927.312	13091
927.419	13126
927.525	13156
927.631	13346
927.737	13061
927.843	12913
927.95	12958
928.056	12996
928.162	12939
928.267	13012
928.373	13426
928.479	13065
928.585	12783
928.69	12882
928.796	12981
928.901	12825
929.007	12631
929.112	12730
929.218	12753
929.323	12719
929.428	12654
929.533	12837
929.638	12570
929.743	12681
929.848	12665
929.953	12578
930.058	12475
930.163	12361
930.267	12292
930.372	12467
930.477	12338
930.581	12532
930.685	12403
930.79	12228
930.894	12216
930.998	12182
931.103	12311
931.207	12015
931.311	11870
931.415	11817
931.519	11623
931.623	11577
