Data from test_V78500241_1186.txt Node
Date: Fri Mar 25 15:50:01 CST 2022
User: usil
Spectrometer: V785-0024
Trigger mode: 0
Integration Time (sec): 4.000000E-1
Scans to average: 1
Nonlinearity correction enabled: false
Boxcar width: 0
Storing dark spectrum: false
XAxis mode: Wavelengths
Number of Pixels in Spectrum: 1024
>>>>>Begin Spectral Data<<<<<
801.071	28508
801.214	28580
801.356	28181
801.499	28188
801.641	28090
801.783	28154
801.926	28249
802.068	28124
802.211	28017
802.353	27953
802.496	27789
802.638	27774
802.78	27762
802.923	27728
803.065	27686
803.208	27576
803.35	27842
803.492	27918
803.635	27873
803.777	27899
803.919	28070
804.061	28356
804.204	28048
804.346	27960
804.488	27854
804.63	27949
804.773	27850
804.915	27964
805.057	28135
805.199	28051
805.341	28082
805.483	28238
805.626	28120
805.768	28074
805.91	28169
806.052	28051
806.194	28093
806.336	28181
806.478	28265
806.62	28139
806.762	28341
806.904	28462
807.046	28717
807.188	28637
807.33	28733
807.472	28596
807.614	28668
807.756	28508
807.898	28443
808.04	28474
808.182	28360
808.324	28462
808.465	28485
808.607	28725
808.749	28858
808.891	28946
809.033	29022
809.174	28828
809.316	28767
809.458	28843
809.6	28748
809.741	28949
809.883	28946
810.025	29185
810.166	29162
810.308	29117
810.45	29105
810.591	29056
810.733	28930
810.875	28930
811.016	28862
811.158	28786
811.299	28942
811.441	29044
811.582	29018
811.724	28930
811.865	28919
812.007	28934
812.148	28976
812.29	29105
812.431	29037
812.573	29254
812.714	29315
812.855	29512
812.997	29642
813.138	29471
813.279	29535
813.421	29402
813.562	29307
813.703	29258
813.845	29090
813.986	28801
814.127	28637
814.268	28664
814.41	28626
814.551	28542
814.692	28771
814.833	28470
814.974	28706
815.115	28694
815.256	28424
815.397	28443
815.539	28451
815.68	28409
815.821	28226
815.962	28447
816.103	28272
816.244	28265
816.385	28158
816.526	28223
816.666	27991
816.807	27751
816.948	28040
817.089	28006
817.23	27827
817.371	27987
817.512	27922
817.653	27960
817.793	27873
817.934	27937
818.075	27854
818.216	27918
818.356	27865
818.497	27819
818.638	27599
818.778	27720
818.919	27747
819.06	27625
819.2	27854
819.341	27895
819.481	27979
819.622	28025
819.762	28238
819.903	28139
820.043	28204
820.184	28067
820.324	28040
820.465	28059
820.605	28059
820.746	28036
820.886	27854
821.026	28006
821.167	27941
821.307	28086
821.447	27865
821.588	27842
821.728	27816
821.868	27534
822.008	27488
822.149	27313
822.289	27348
822.429	27173
822.569	26956
822.709	26986
822.849	27047
822.99	26914
823.13	26986
823.27	26807
823.41	26667
823.55	26686
823.69	26762
823.83	26716
823.97	26667
824.11	26606
824.25	26412
824.389	26678
824.529	26556
824.669	26613
824.809	26724
824.949	26644
825.089	26697
825.228	26636
825.368	26530
825.508	26431
825.648	26514
825.787	26396
825.927	26488
826.067	26377
826.206	26450
826.346	26488
826.485	26434
826.625	26412
826.765	26492
826.904	26320
827.044	26240
827.183	26195
827.323	26187
827.462	26214
827.601	26111
827.741	26237
827.88	26172
828.02	25986
828.159	26214
828.298	26214
828.437	26229
828.577	26176
828.716	26218
828.855	26103
828.994	25818
829.134	25811
829.273	25864
829.412	25917
829.551	25814
829.69	25826
829.829	25936
829.968	25993
830.107	26016
830.246	25799
830.385	25704
830.524	25700
830.663	25544
830.802	25559
830.941	25369
831.08	25354
831.219	25556
831.357	25533
831.496	25605
831.635	25525
831.774	25468
831.913	25278
832.051	25331
832.19	25278
832.329	25270
832.467	25076
832.606	25168
832.744	25225
832.883	25057
833.022	25107
833.16	25114
833.299	25160
833.437	25156
833.576	25221
833.714	25160
833.852	25263
833.991	25308
834.129	25362
834.267	25331
834.406	25320
834.544	25244
834.682	25236
834.821	25209
834.959	25335
835.097	25099
835.235	25228
835.373	25308
835.511	25187
835.65	25050
835.788	25008
835.926	24848
836.064	24810
836.202	24901
836.34	25031
836.478	25141
836.615	24981
836.753	25057
836.891	25027
837.029	25027
837.167	25080
837.305	25019
837.443	24905
837.58	24905
837.718	24992
837.856	24932
837.993	24730
838.131	24882
838.269	24753
838.406	24859
838.544	24741
838.681	24448
838.819	24528
838.956	24342
839.094	24300
839.231	24460
839.369	24494
839.506	24703
839.643	24601
839.781	24388
839.918	24357
840.055	24330
840.193	24319
840.33	24087
840.467	24388
840.604	24311
840.742	24631
840.879	24296
841.016	24152
841.153	24060
841.29	24334
841.427	24216
841.564	24224
841.701	24159
841.838	24155
841.975	24152
842.112	24167
842.249	24163
842.385	24011
842.522	24209
842.659	23958
842.796	24057
842.933	23927
843.069	23942
843.206	23961
843.343	24095
843.479	23977
843.616	23878
843.752	23794
843.889	23882
844.025	23859
844.162	23718
844.298	23893
844.435	23737
844.571	23748
844.708	23904
844.844	23836
844.98	23855
845.117	23908
845.253	23630
845.389	23630
845.525	23699
845.661	23684
845.798	23630
845.934	23501
846.07	23406
846.206	23623
846.342	23649
846.478	23486
846.614	23269
846.75	23200
846.886	23181
847.022	23315
847.158	23227
847.294	23261
847.429	23299
847.565	23170
847.701	23315
847.837	22923
847.972	22885
848.108	23044
848.244	22976
848.379	22862
848.515	22809
848.65	22889
848.786	22873
848.921	22877
849.057	22934
849.192	22839
849.328	22843
849.463	22790
849.598	22797
849.734	22675
849.869	22740
850.004	22504
850.14	22634
850.275	22478
850.41	22474
850.545	22607
850.68	22428
850.815	22645
850.95	22611
851.085	22744
851.22	22637
851.355	22603
851.49	22577
851.625	22531
851.76	22584
851.895	22417
852.03	22508
852.165	22500
852.299	22538
852.434	22637
852.569	22645
852.703	22561
852.838	22615
852.973	22649
853.107	22641
853.242	22512
853.376	22352
853.511	22333
853.645	22440
853.78	22504
853.914	22500
854.048	22291
854.183	22417
854.317	22325
854.451	22580
854.585	22417
854.72	22348
854.854	22546
854.988	22402
855.122	22440
855.256	22329
855.39	22207
855.524	22443
855.658	22466
855.792	22360
855.926	22447
856.06	22394
856.194	22405
856.327	22379
856.461	22268
856.595	22249
856.729	22440
856.862	22512
856.996	22318
857.13	22424
857.263	22462
857.397	22390
857.53	22280
857.664	22421
857.797	22394
857.931	22481
858.064	22409
858.197	22500
858.331	22322
858.464	22276
858.597	22333
858.731	22150
858.864	22284
858.997	22265
859.13	22287
859.263	22280
859.396	22432
859.529	22223
859.662	22440
859.795	22356
859.928	22287
860.061	22599
860.194	22508
860.327	22405
860.46	22413
860.592	22356
860.725	22554
860.858	22462
860.99	22367
861.123	22325
861.256	22314
861.388	22390
861.521	23143
861.653	22257
861.786	22150
861.918	22215
862.05	22204
862.183	22306
862.315	22382
862.447	22306
862.58	22150
862.712	22131
862.844	22090
862.976	22128
863.108	22150
863.24	22561
863.372	22124
863.504	22070
863.636	22112
863.768	22124
863.9	22173
864.032	21994
864.164	21934
864.296	22036
864.428	22318
864.559	22204
864.691	22177
864.823	22086
864.954	22051
865.086	22048
865.217	21934
865.349	21903
865.48	21941
865.612	21953
865.743	22082
865.875	21983
866.006	21979
866.137	21956
866.269	21888
866.4	21975
866.531	21968
866.662	21831
866.793	21850
866.924	21953
867.055	21899
867.186	21899
867.317	21972
867.448	21789
867.579	21888
867.71	21892
867.841	21827
867.972	21823
868.103	21713
868.233	21937
868.364	21949
868.495	22067
868.625	22135
868.756	22169
868.886	22048
869.017	22150
869.147	22234
869.278	22246
869.408	22219
869.539	22029
869.669	22154
869.799	22303
869.929	22230
870.06	22360
870.19	22459
870.32	22508
870.45	22474
870.58	22603
870.71	22630
870.84	22634
870.97	22577
871.1	22542
871.23	22710
871.36	22679
871.489	22706
871.619	22725
871.749	22740
871.879	22706
872.008	22873
872.138	22752
872.267	22763
872.397	22698
872.526	22542
872.656	22565
872.785	22645
872.915	22755
873.044	22877
873.173	22618
873.303	22824
873.432	22862
873.561	22786
873.69	22843
873.819	22820
873.948	22748
874.077	22820
874.206	22717
874.335	22664
874.464	22839
874.593	22930
874.722	23025
874.851	22999
874.979	22976
875.108	22976
875.237	22987
875.365	22866
875.494	22831
875.623	22984
875.751	22923
875.88	23014
876.008	23022
876.136	23079
876.265	23322
876.393	23505
876.521	23463
876.65	23330
876.778	23273
876.906	23246
877.034	23303
877.162	23398
877.29	23258
877.418	23379
877.546	23368
877.674	23185
877.802	23254
877.93	23269
878.058	23299
878.185	23303
878.313	23189
878.441	23204
878.568	23052
878.696	23246
878.824	23349
878.951	23326
879.079	23471
879.206	23486
879.333	23471
879.461	23364
879.588	23452
879.715	23436
879.842	23619
879.97	23299
880.097	23098
880.224	23044
880.351	23235
880.478	23170
880.605	23128
880.732	23075
880.859	23353
880.986	23113
881.112	23025
881.239	22896
881.366	22862
881.493	22763
881.619	22649
881.746	22634
881.872	22649
881.999	22542
882.125	22504
882.252	22672
882.378	22599
882.505	22755
882.631	22459
882.757	22318
882.883	22592
883.01	22428
883.136	22352
883.262	22196
883.388	22226
883.514	22451
883.64	22409
883.766	22242
883.892	22131
884.018	22090
884.143	22341
884.269	22204
884.395	22131
884.52	21895
884.646	21975
884.772	21876
884.897	21895
885.023	22063
885.148	22036
885.274	22082
885.399	22048
885.524	22025
885.65	21964
885.775	21949
885.9	21983
886.025	22051
886.15	21998
886.275	21979
886.4	21800
886.525	21926
886.65	21930
886.775	21785
886.9	21975
887.025	22169
887.149	22010
887.274	21743
887.399	21747
887.523	21720
887.648	21667
887.773	21778
887.897	21774
888.021	21759
888.146	21458
888.27	21713
888.395	21850
888.519	21842
888.643	21762
888.767	21762
888.891	21622
889.015	21435
889.139	21622
889.263	21424
889.387	21572
889.511	21781
889.635	21610
889.759	21408
889.883	21507
890.006	21488
890.13	21572
890.254	21382
890.377	21553
890.501	21294
890.624	21279
890.748	21336
890.871	21176
890.995	21180
891.118	20994
891.241	21184
891.364	21032
891.488	21195
891.611	21226
891.734	21100
891.857	21195
891.98	21066
892.103	21093
892.226	21214
892.349	20990
892.471	20769
892.594	21013
892.717	20986
892.839	21074
892.962	20952
893.085	20998
893.207	20876
893.33	21001
893.452	20845
893.575	20963
893.697	20876
893.819	20994
893.941	21184
894.064	21195
894.186	20929
894.308	20853
894.43	21017
894.552	21192
894.674	21135
894.796	20929
894.918	20933
895.04	20994
895.161	21032
895.283	21062
895.405	20857
895.526	20842
895.648	20986
895.769	21009
895.891	20960
896.012	21024
896.134	20925
896.255	20979
896.376	20960
896.498	20925
896.619	20963
896.74	20849
896.861	21017
896.982	21176
897.103	21370
897.224	21199
897.345	21283
897.466	21230
897.587	21241
897.708	21313
897.828	21207
897.949	21142
898.07	21001
898.19	21017
898.311	21127
898.431	20941
898.552	21127
898.672	21089
898.792	21169
898.913	21066
899.033	21058
899.153	20857
899.273	20708
899.393	20929
899.513	20937
899.633	20857
899.753	20941
899.873	20769
899.993	20876
900.113	20750
900.232	20914
900.352	20720
900.472	20735
900.591	20571
900.711	20686
900.83	20640
900.95	20769
901.069	20678
901.189	20530
901.308	20290
901.427	20256
901.546	20210
901.665	20286
901.784	20142
901.904	19993
902.023	20008
902.141	19769
902.26	19814
902.379	19712
902.498	19742
902.617	19719
902.735	19719
902.854	19674
902.973	19605
903.091	19403
903.21	19324
903.328	19422
903.446	19297
903.565	19221
903.683	19221
903.801	19053
903.919	19114
904.038	19168
904.156	18916
904.274	19122
904.392	18909
904.51	18848
904.627	18916
904.745	18947
904.863	18966
904.981	18665
905.098	18661
905.216	18601
905.334	18692
905.451	18589
905.569	18597
905.686	18635
905.803	18608
905.921	18346
906.038	18563
906.155	18517
906.272	18346
906.389	18399
906.506	18152
906.623	18079
906.74	18197
906.857	18060
906.974	18098
907.091	18148
907.208	18228
907.324	18178
907.441	18007
907.557	17946
907.674	17897
907.79	17752
907.907	17855
908.023	17973
908.139	17901
908.256	17813
908.372	17794
908.488	17786
908.604	17627
908.72	17554
908.836	17592
908.952	17512
909.068	17619
909.184	17623
909.3	17528
909.415	17570
909.531	17703
909.647	17261
909.762	17277
909.878	17288
909.993	17269
910.108	17406
910.224	17208
910.339	17387
910.454	17288
910.57	17280
910.685	17075
910.8	17273
910.915	17220
911.03	16984
911.145	16972
911.259	16984
911.374	16858
911.489	16824
911.604	16759
911.718	16561
911.833	16664
911.947	16538
912.062	16459
912.176	16664
912.291	16641
912.405	16717
912.519	16839
912.633	16824
912.748	16736
912.862	16569
912.976	16474
913.09	16249
913.204	16386
913.318	16402
913.431	16527
913.545	16470
913.659	16382
913.772	16382
913.886	16261
914	16238
914.113	16314
914.226	16325
914.34	16333
914.453	16101
914.566	16234
914.68	16112
914.793	16055
914.906	15846
915.019	15842
915.132	15823
915.245	15800
915.358	15816
915.47	15884
915.583	15751
915.696	15816
915.809	15899
915.921	15861
916.034	15785
916.146	15667
916.259	15652
916.371	15819
916.483	15682
916.595	15644
916.708	15633
916.82	15671
916.932	15633
917.044	15534
917.156	15477
917.268	15416
917.38	15412
917.491	15488
917.603	15412
917.715	15435
917.826	15458
917.938	15359
918.049	15294
918.161	15340
918.272	15507
918.384	15492
918.495	15367
918.606	15218
918.717	15097
918.828	15291
918.939	15283
919.05	15058
919.161	15093
919.272	15001
919.383	14956
919.494	15260
919.604	15374
919.715	15173
919.826	15119
919.936	15097
920.047	15154
920.157	15058
920.267	15435
920.378	15154
920.488	15039
920.598	15378
920.708	15355
920.818	15230
920.928	15268
921.038	15462
921.148	15374
921.258	15047
921.368	14975
921.477	14762
921.587	14842
921.697	14705
921.806	14819
921.916	14621
922.025	14629
922.134	14526
922.244	14431
922.353	14484
922.462	14423
922.571	14298
922.68	14142
922.789	14088
922.898	14103
923.007	14065
923.116	14161
923.224	14161
923.333	14024
923.442	13951
923.55	13898
923.659	13917
923.767	14046
923.876	13909
923.984	13909
924.092	13833
924.201	13875
924.309	13860
924.417	13818
924.525	13814
924.633	13738
924.741	14492
924.849	13624
924.956	13681
925.064	13559
925.172	13457
925.279	13529
925.387	13563
925.494	13594
925.602	13605
925.709	13464
925.816	13411
925.924	13438
926.031	13540
926.138	13472
926.245	13487
926.352	13354
926.459	13487
926.566	13411
926.673	13301
926.779	13327
926.886	13171
926.993	13053
927.099	13050
927.206	12970
927.312	12970
927.419	13080
927.525	13027
927.631	13118
927.737	12920
927.843	12890
927.95	12741
928.056	12848
928.162	12901
928.267	12939
928.373	13540
928.479	12970
928.585	12726
928.69	12844
928.796	12920
928.901	12692
929.007	12593
929.112	12654
929.218	12730
929.323	12608
929.428	12551
929.533	12703
929.638	12536
929.743	12604
929.848	12547
929.953	12551
930.058	12353
930.163	12224
930.267	12251
930.372	12498
930.477	12258
930.581	12395
930.685	12292
930.79	12243
930.894	12095
930.998	12148
931.103	12197
931.207	11851
931.311	11790
931.415	11699
931.519	11547
931.623	11501
