Data from test_V78500241_680.txt Node
Date: Fri Mar 25 15:46:30 CST 2022
User: usil
Spectrometer: V785-0024
Trigger mode: 0
Integration Time (sec): 4.000000E-1
Scans to average: 1
Nonlinearity correction enabled: false
Boxcar width: 0
Storing dark spectrum: false
XAxis mode: Wavelengths
Number of Pixels in Spectrum: 1024
>>>>>Begin Spectral Data<<<<<
801.071	28177
801.214	28036
801.356	27854
801.499	27941
801.641	27755
801.783	27743
801.926	27861
802.068	27816
802.211	27606
802.353	27561
802.496	27450
802.638	27325
802.78	27378
802.923	27386
803.065	27222
803.208	27439
803.35	27500
803.492	27538
803.635	27496
803.777	27591
803.919	27709
804.061	27899
804.204	27622
804.346	27606
804.488	27462
804.63	27549
804.773	27526
804.915	27622
805.057	27591
805.199	27774
805.341	27618
805.483	27873
805.626	27842
805.768	27519
805.91	27778
806.052	27770
806.194	27755
806.336	27873
806.478	27728
806.62	27724
806.762	27953
806.904	28162
807.046	28234
807.188	28147
807.33	28093
807.472	28173
807.614	28063
807.756	28181
807.898	27941
808.04	27964
808.182	27907
808.324	28032
808.465	28090
808.607	28265
808.749	28318
808.891	28432
809.033	28679
809.174	28531
809.316	28356
809.458	28443
809.6	28478
809.741	28596
809.883	28478
810.025	28675
810.166	28592
810.308	28554
810.45	28626
810.591	28462
810.733	28382
810.875	28459
811.016	28371
811.158	28424
811.299	28504
811.441	28535
811.582	28527
811.724	28455
811.865	28436
812.007	28318
812.148	28390
812.29	28466
812.431	28656
812.573	28755
812.714	28869
812.855	28881
812.997	29033
813.138	29159
813.279	29159
813.421	28980
813.562	28911
813.703	28771
813.845	28550
813.986	28455
814.127	28192
814.268	28192
814.41	28074
814.551	28135
814.692	28059
814.833	28063
814.974	28131
815.115	28162
815.256	28017
815.397	28017
815.539	28013
815.68	27816
815.821	27873
815.962	27850
816.103	27972
816.244	27751
816.385	27747
816.526	27694
816.666	27538
816.807	27454
816.948	27492
817.089	27591
817.23	27523
817.371	27481
817.512	27488
817.653	27393
817.793	27306
817.934	27389
818.075	27386
818.216	27401
818.356	27325
818.497	27150
818.638	27108
818.778	27020
818.919	27218
819.06	27241
819.2	27252
819.341	27557
819.481	27420
819.622	27515
819.762	27789
819.903	27576
820.043	27698
820.184	27625
820.324	27477
820.465	27534
820.605	27450
820.746	27545
820.886	27272
821.026	27526
821.167	27462
821.307	27587
821.447	27450
821.588	27344
821.728	27245
821.868	27112
822.008	26823
822.149	26845
822.289	26891
822.429	26606
822.569	26568
822.709	26556
822.849	26446
822.99	26423
823.13	26431
823.27	26366
823.41	26195
823.55	26054
823.69	26267
823.83	26290
823.97	26081
824.11	26054
824.25	25970
824.389	25997
824.529	26164
824.669	26031
824.809	26100
824.949	26130
825.089	26153
825.228	26058
825.368	25936
825.508	25982
825.648	25921
825.787	25932
825.927	25833
826.067	25906
826.206	25947
826.346	26054
826.485	26020
826.625	25864
826.765	25940
826.904	25982
827.044	25540
827.183	25700
827.323	25563
827.462	25780
827.601	25590
827.741	25616
827.88	25704
828.02	25502
828.159	25552
828.298	25605
828.437	25708
828.577	25464
828.716	25655
828.855	25506
828.994	25251
829.134	25278
829.273	25422
829.412	25232
829.551	25335
829.69	25304
829.829	25514
829.968	25419
830.107	25278
830.246	25168
830.385	25228
830.524	25110
830.663	25012
830.802	24878
830.941	24947
831.08	24909
831.219	24970
831.357	24924
831.496	25107
831.635	24863
831.774	24878
831.913	24806
832.051	24817
832.19	24673
832.329	24582
832.467	24692
832.606	24604
832.744	24525
832.883	24669
833.022	24517
833.16	24593
833.299	24627
833.437	24635
833.576	24536
833.714	24589
833.852	24856
833.991	24783
834.129	24719
834.267	24722
834.406	24719
834.544	24642
834.682	24608
834.821	24661
834.959	24821
835.097	24585
835.235	24635
835.373	24760
835.511	24684
835.65	24498
835.788	24532
835.926	24353
836.064	24384
836.202	24289
836.34	24437
836.478	24635
836.615	24467
836.753	24369
836.891	24559
837.029	24429
837.167	24429
837.305	24350
837.443	24395
837.58	24315
837.718	24502
837.856	24388
837.993	24213
838.131	24239
838.269	24190
838.406	24197
838.544	24079
838.681	23920
838.819	24003
838.956	23726
839.094	23809
839.231	23863
839.369	23916
839.506	24258
839.643	23984
839.781	23729
839.918	23722
840.055	23756
840.193	23718
840.33	23657
840.467	23729
840.604	23707
840.742	23992
840.879	23657
841.016	23714
841.153	23535
841.29	23760
841.427	23661
841.564	23745
841.701	23657
841.838	23657
841.975	23604
842.112	23581
842.249	23619
842.385	23459
842.522	23604
842.659	23642
842.796	23383
842.933	23376
843.069	23288
843.206	23379
843.343	23353
843.479	23353
843.616	23421
843.752	23235
843.889	23239
844.025	23410
844.162	23337
844.298	23349
844.435	23170
844.571	23193
844.708	23334
844.844	23429
844.98	23353
845.117	23349
845.253	23044
845.389	23143
845.525	23254
845.661	23083
845.798	22927
845.934	22949
846.07	22953
846.206	22923
846.342	22953
846.478	22809
846.614	22733
846.75	22713
846.886	22649
847.022	22672
847.158	22774
847.294	22721
847.429	22603
847.565	22622
847.701	22892
847.837	22512
847.972	22360
848.108	22322
848.244	22440
848.379	22310
848.515	22284
848.65	22169
848.786	22219
848.921	22276
849.057	22344
849.192	22413
849.328	22272
849.463	22207
849.598	22287
849.734	22051
849.869	22078
850.004	22036
850.14	22086
850.275	21953
850.41	22082
850.545	22051
850.68	21835
850.815	22032
850.95	21915
851.085	22147
851.22	22128
851.355	22025
851.49	22162
851.625	21945
851.76	21922
851.895	21888
852.03	21922
852.165	21983
852.299	22074
852.434	22070
852.569	22036
852.703	21979
852.838	22048
852.973	22109
853.107	22101
853.242	22036
853.376	21793
853.511	21831
853.645	21743
853.78	21949
853.914	21968
854.048	21759
854.183	21793
854.317	21918
854.451	21972
854.585	21812
854.72	21838
854.854	21838
854.988	21751
855.122	21819
855.256	21690
855.39	21759
855.524	21964
855.658	21857
855.792	21797
855.926	21793
856.06	21850
856.194	21793
856.327	21854
856.461	21728
856.595	21671
856.729	21804
856.862	21964
856.996	21895
857.13	21941
857.263	22048
857.397	21930
857.53	21895
857.664	21937
857.797	21880
857.931	22002
858.064	21945
858.197	22059
858.331	21816
858.464	21713
858.597	21770
858.731	21838
858.864	21762
858.997	21698
859.13	21793
859.263	21892
859.396	21968
859.529	21793
859.662	21819
859.795	21762
859.928	21876
860.061	22017
860.194	21972
860.327	21892
860.46	21907
860.592	22006
860.725	22059
860.858	22006
860.99	21854
861.123	21895
861.256	21720
861.388	21892
861.521	22432
861.653	21720
861.786	21515
861.918	21724
862.05	21656
862.183	21865
862.315	21717
862.447	21831
862.58	21762
862.712	21591
862.844	21515
862.976	21542
863.108	21652
863.24	21911
863.372	21416
863.504	21580
863.636	21629
863.768	21675
863.9	21420
864.032	21538
864.164	21485
864.296	21485
864.428	21675
864.559	21622
864.691	21599
864.823	21629
864.954	21504
865.086	21523
865.217	21412
865.349	21420
865.48	21462
865.612	21408
865.743	21606
865.875	21485
866.006	21416
866.137	21466
866.269	21504
866.4	21355
866.531	21367
866.662	21420
866.793	21287
866.924	21306
867.055	21496
867.186	21378
867.317	21355
867.448	21340
867.579	21374
867.71	21245
867.841	21249
867.972	21370
868.103	21252
868.233	21374
868.364	21378
868.495	21424
868.625	21606
868.756	21637
868.886	21542
869.017	21466
869.147	21557
869.278	21648
869.408	21492
869.539	21595
869.669	21694
869.799	21641
869.929	21720
870.06	21694
870.19	21915
870.32	21873
870.45	21937
870.58	21964
870.71	22101
870.84	22124
870.97	22036
871.1	21979
871.23	22272
871.36	22147
871.489	22036
871.619	22215
871.749	22150
871.879	22246
872.008	22379
872.138	22204
872.267	22215
872.397	22101
872.526	21903
872.656	21949
872.785	22021
872.915	22226
873.044	22421
873.173	22268
873.303	22223
873.432	22253
873.561	22348
873.69	22230
873.819	22299
873.948	22356
874.077	22253
874.206	22131
874.335	22188
874.464	22303
874.593	22462
874.722	22455
874.851	22516
874.979	22466
875.108	22447
875.237	22360
875.365	22398
875.494	22470
875.623	22371
875.751	22417
875.88	22314
876.008	22542
876.136	22702
876.265	22847
876.393	23044
876.521	22976
876.65	22877
876.778	22786
876.906	22767
877.034	22782
877.162	22850
877.29	22691
877.418	22706
877.546	22866
877.674	22778
877.802	22687
877.93	22675
878.058	22634
878.185	22767
878.313	22694
878.441	22744
878.568	22622
878.696	22771
878.824	22778
878.951	22805
879.079	22953
879.206	23147
879.333	22968
879.461	22873
879.588	22877
879.715	22927
879.842	23029
879.97	22797
880.097	22542
880.224	22535
880.351	22565
880.478	22656
880.605	22519
880.732	22664
880.859	22755
880.986	22653
881.112	22599
881.239	22413
881.366	22280
881.493	22257
881.619	22268
881.746	22246
881.872	22177
881.999	22268
882.125	22029
882.252	22173
882.378	22291
882.505	22276
882.631	21979
882.757	21922
882.883	22048
883.01	21846
883.136	21846
883.262	21808
883.388	21679
883.514	21968
883.64	21842
883.766	21816
883.892	21629
884.018	21610
884.143	21937
884.269	21899
884.395	21507
884.52	21420
884.646	21450
884.772	21382
884.897	21416
885.023	21538
885.148	21637
885.274	21568
885.399	21701
885.524	21507
885.65	21564
885.775	21610
885.9	21435
886.025	21545
886.15	21675
886.275	21435
886.4	21424
886.525	21466
886.65	21416
886.775	21481
886.9	21759
887.025	21663
887.149	21462
887.274	21325
887.399	21249
887.523	21161
887.648	21180
887.773	21245
887.897	21336
888.021	21313
888.146	21192
888.27	21401
888.395	21321
888.519	21332
888.643	21359
888.767	21207
888.891	21081
889.015	21066
889.139	21081
889.263	21096
889.387	21142
889.511	21428
889.635	21211
889.759	21119
889.883	20910
890.006	21104
890.13	21116
890.254	20933
890.377	21028
890.501	20773
890.624	20682
890.748	20826
890.871	20708
890.995	20549
891.118	20678
891.241	20629
891.364	20457
891.488	20678
891.611	20629
891.734	20667
891.857	20701
891.98	20724
892.103	20655
892.226	20648
892.349	20693
892.471	20461
892.594	20537
892.717	20533
892.839	20461
892.962	20636
893.085	20606
893.207	20530
893.33	20385
893.452	20476
893.575	20511
893.697	20457
893.819	20682
893.941	20678
894.064	20594
894.186	20530
894.308	20412
894.43	20606
894.552	20659
894.674	20552
894.796	20358
894.918	20522
895.04	20461
895.161	20503
895.283	20598
895.405	20621
895.526	20484
895.648	20514
895.769	20484
895.891	20514
896.012	20575
896.134	20549
896.255	20556
896.376	20514
896.498	20507
896.619	20564
896.74	20549
896.861	20560
896.982	21013
897.103	20971
897.224	20693
897.345	20792
897.466	20686
897.587	20727
897.708	20925
897.828	20777
897.949	20640
898.07	20602
898.19	20701
898.311	20800
898.431	20640
898.552	20781
898.672	20830
898.792	20853
898.913	20807
899.033	20708
899.153	20594
899.273	20533
899.393	20480
899.513	20526
899.633	20514
899.753	20484
899.873	20351
899.993	20442
900.113	20461
900.232	20511
900.352	20301
900.472	20301
900.591	20320
900.711	20320
900.83	20195
900.95	20404
901.069	20404
901.189	20210
901.308	19970
901.427	19841
901.546	19803
901.665	19845
901.784	19868
901.904	19635
902.023	19708
902.141	19388
902.26	19346
902.379	19339
902.498	19377
902.617	19327
902.735	19419
902.854	19346
902.973	19320
903.091	18920
903.21	19114
903.328	18916
903.446	18886
903.565	18768
903.683	18890
903.801	18722
903.919	18760
904.038	18722
904.156	18532
904.274	18608
904.392	18627
904.51	18521
904.627	18479
904.745	18688
904.863	18597
904.981	18251
905.098	18251
905.216	18262
905.334	18319
905.451	18327
905.569	18273
905.686	18327
905.803	18144
905.921	18076
906.038	18076
906.155	17942
906.272	17931
906.389	18003
906.506	17790
906.623	17832
906.74	17745
906.857	17642
906.974	17745
907.091	17851
907.208	17836
907.324	17790
907.441	17661
907.557	17524
907.674	17509
907.79	17353
907.907	17383
908.023	17398
908.139	17474
908.256	17349
908.372	17334
908.488	17398
908.604	17181
908.72	17143
908.836	17185
908.952	17212
909.068	17204
909.184	17296
909.3	17136
909.415	17254
909.531	17330
909.647	16934
909.762	16896
909.878	16831
909.993	17010
910.108	16987
910.224	16797
910.339	16809
910.454	16801
910.57	16721
910.685	16538
910.8	16900
910.915	16793
911.03	16744
911.145	16565
911.259	16466
911.374	16508
911.489	16363
911.604	16428
911.718	16223
911.833	16169
911.947	16219
912.062	16090
912.176	16234
912.291	16219
912.405	16249
912.519	16333
912.633	16363
912.748	16299
912.862	16162
912.976	16017
913.09	15895
913.204	16051
913.318	16093
913.431	16071
913.545	16090
913.659	16071
913.772	16036
913.886	15892
914	15808
914.113	15899
914.226	15926
914.34	15876
914.453	15717
914.566	15804
914.68	15686
914.793	15587
914.906	15416
915.019	15458
915.132	15412
915.245	15420
915.358	15466
915.47	15477
915.583	15443
915.696	15473
915.809	15629
915.921	15545
916.034	15370
916.146	15329
916.259	15329
916.371	15374
916.483	15348
916.595	15249
916.708	15317
916.82	15321
916.932	15207
917.044	15192
917.156	15169
917.268	15051
917.38	15074
917.491	15097
917.603	15074
917.715	15066
917.826	15058
917.938	14998
918.049	14880
918.161	15047
918.272	15127
918.384	15066
918.495	14956
918.606	14781
918.717	14735
918.828	14830
918.939	14868
919.05	14796
919.161	14861
919.272	14625
919.383	14629
919.494	14815
919.604	15066
919.715	14788
919.826	14724
919.936	14819
920.047	14910
920.157	14800
920.267	14823
920.378	14785
920.488	14754
920.598	14902
920.708	15066
920.818	14933
920.928	14979
921.038	15028
921.148	15017
921.258	14777
921.368	14632
921.477	14560
921.587	14446
921.697	14332
921.806	14442
921.916	14343
922.025	14271
922.134	14218
922.244	14138
922.353	14229
922.462	14012
922.571	13970
922.68	13845
922.789	13822
922.898	13826
923.007	13791
923.116	13807
923.224	13826
923.333	13799
923.442	13658
923.55	13632
923.659	13715
923.767	13708
923.876	13518
923.984	13643
924.092	13422
924.201	13620
924.309	13476
924.417	13529
924.525	13400
924.633	13476
924.741	14454
924.849	13247
924.956	13457
925.064	13274
925.172	13194
925.279	13084
925.387	13168
925.494	13225
925.602	13244
925.709	13187
925.816	13050
925.924	13145
926.031	13122
926.138	13110
926.245	13122
926.352	13122
926.459	13084
926.566	13228
926.673	13057
926.779	12977
926.886	12943
926.993	12817
927.099	12738
927.206	12700
927.312	12631
927.419	12760
927.525	12772
927.631	12719
927.737	12574
927.843	12669
927.95	12509
928.056	12585
928.162	12627
928.267	12589
928.373	13247
928.479	12551
928.585	12376
928.69	12502
928.796	12509
928.901	12509
929.007	12266
929.112	12414
929.218	12391
929.323	12262
929.428	12353
929.533	12441
929.638	12186
929.743	12175
929.848	12235
929.953	12197
930.058	12186
930.163	11908
930.267	11996
930.372	12121
930.477	11897
930.581	12194
930.685	12011
930.79	11931
930.894	11870
930.998	11843
931.103	11984
931.207	11642
931.311	11535
931.415	11509
931.519	11208
931.623	11250
