Data from test_V78500241_3216.txt Node
Date: Fri Mar 25 16:04:04 CST 2022
User: usil
Spectrometer: V785-0024
Trigger mode: 0
Integration Time (sec): 4.000000E-1
Scans to average: 1
Nonlinearity correction enabled: false
Boxcar width: 0
Storing dark spectrum: false
XAxis mode: Wavelengths
Number of Pixels in Spectrum: 1024
>>>>>Begin Spectral Data<<<<<
801.071	28896
801.214	28869
801.356	28584
801.499	28569
801.641	28398
801.783	28557
801.926	28535
802.068	28508
802.211	28466
802.353	28337
802.496	28303
802.638	28116
802.78	28253
802.923	28013
803.065	28131
803.208	28116
803.35	28040
803.492	28363
803.635	28325
803.777	28154
803.919	28333
804.061	28653
804.204	28394
804.346	28443
804.488	28284
804.63	28314
804.773	28234
804.915	28466
805.057	28584
805.199	28462
805.341	28489
805.483	28584
805.626	28649
805.768	28417
805.91	28504
806.052	28626
806.194	28519
806.336	28645
806.478	28478
806.62	28508
806.762	28675
806.904	28938
807.046	29098
807.188	29056
807.33	29018
807.472	29075
807.614	28976
807.756	28980
807.898	28934
808.04	28805
808.182	28767
808.324	28873
808.465	28923
808.607	29220
808.749	29223
808.891	29398
809.033	29368
809.174	29311
809.316	29117
809.458	29307
809.6	29197
809.741	29414
809.883	29387
810.025	29474
810.166	29421
810.308	29463
810.45	29562
810.591	29326
810.733	29345
810.875	29216
811.016	29311
811.158	29147
811.299	29326
811.441	29493
811.582	29375
811.724	29417
811.865	29261
812.007	29269
812.148	29345
812.29	29296
812.431	29490
812.573	29687
812.714	29687
812.855	29935
812.997	29832
813.138	29889
813.279	29836
813.421	29885
813.562	29798
813.703	29604
813.845	29471
813.986	29200
814.127	29048
814.268	29064
814.41	29033
814.551	29044
814.692	29079
814.833	28919
814.974	28934
815.115	28915
815.256	28809
815.397	28740
815.539	28850
815.68	28812
815.821	28694
815.962	28767
816.103	28786
816.244	28729
816.385	28599
816.526	28455
816.666	28478
816.807	28306
816.948	28314
817.089	28447
817.23	28337
817.371	28200
817.512	28394
817.653	28310
817.793	28337
817.934	28382
818.075	28230
818.216	28265
818.356	28337
818.497	28257
818.638	27987
818.778	28097
818.919	28002
819.06	28162
819.2	28318
819.341	28299
819.481	28181
819.622	28489
819.762	28763
819.903	28717
820.043	28356
820.184	28440
820.324	28546
820.465	28584
820.605	28474
820.746	28322
820.886	28329
821.026	28493
821.167	28424
821.307	28443
821.447	28329
821.588	28230
821.728	28147
821.868	28070
822.008	27819
822.149	27850
822.289	27899
822.429	27439
822.569	27447
822.709	27435
822.849	27264
822.99	27279
823.13	27230
823.27	27310
823.41	27199
823.55	27081
823.69	27192
823.83	27108
823.97	27043
824.11	27009
824.25	26887
824.389	26944
824.529	27024
824.669	26899
824.809	27036
824.949	27013
825.089	27150
825.228	27013
825.368	26823
825.508	26811
825.648	26781
825.787	26937
825.927	26872
826.067	26830
826.206	26853
826.346	26960
826.485	26887
826.625	26914
826.765	26956
826.904	26948
827.044	26640
827.183	26552
827.323	26511
827.462	26613
827.601	26625
827.741	26511
827.88	26518
828.02	26355
828.159	26423
828.298	26575
828.437	26724
828.577	26404
828.716	26655
828.855	26526
828.994	26419
829.134	26244
829.273	26282
829.412	26195
829.551	26218
829.69	26298
829.829	26263
829.968	26488
830.107	26305
830.246	26347
830.385	26259
830.524	26062
830.663	26062
830.802	25997
830.941	25902
831.08	25925
831.219	25982
831.357	25940
831.496	26027
831.635	25898
831.774	25826
831.913	25731
832.051	25632
832.19	25765
832.329	25674
832.467	25506
832.606	25597
832.744	25552
832.883	25468
833.022	25556
833.16	25479
833.299	25620
833.437	25487
833.576	25578
833.714	25632
833.852	25632
833.991	25681
834.129	25605
834.267	25681
834.406	25529
834.544	25677
834.682	25658
834.821	25563
834.959	25780
835.097	25426
835.235	25624
835.373	25666
835.511	25514
835.65	25411
835.788	25407
835.926	25278
836.064	25198
836.202	25213
836.34	25483
836.478	25430
836.615	25548
836.753	25419
836.891	25464
837.029	25438
837.167	25278
837.305	25346
837.443	25354
837.58	25213
837.718	25335
837.856	25426
837.993	25080
838.131	25259
838.269	25156
838.406	25164
838.544	25004
838.681	24897
838.819	24943
838.956	24741
839.094	24772
839.231	24825
839.369	24970
839.506	25107
839.643	24992
839.781	24658
839.918	24570
840.055	24658
840.193	24715
840.33	24677
840.467	24623
840.604	24661
840.742	24981
840.879	24505
841.016	24570
841.153	24532
841.29	24810
841.427	24658
841.564	24589
841.701	24578
841.838	24528
841.975	24544
842.112	24433
842.249	24536
842.385	24460
842.522	24612
842.659	24464
842.796	24372
842.933	24407
843.069	24422
843.206	24410
843.343	24441
843.479	24361
843.616	24407
843.752	24144
843.889	24201
844.025	24243
844.162	24140
844.298	24308
844.435	24091
844.571	24213
844.708	24133
844.844	24311
844.98	24289
845.117	24384
845.253	24110
845.389	23984
845.525	24053
845.661	24034
845.798	23958
845.934	23912
846.07	23874
846.206	24038
846.342	24015
846.478	23828
846.614	23615
846.75	23516
846.886	23547
847.022	23794
847.158	23562
847.294	23642
847.429	23665
847.565	23589
847.701	23729
847.837	23433
847.972	23200
848.108	23440
848.244	23284
848.379	23303
848.515	23185
848.65	23102
848.786	23086
848.921	23178
849.057	23254
849.192	23364
849.328	23250
849.463	23250
849.598	23155
849.734	23102
849.869	23121
850.004	22934
850.14	22953
850.275	22877
850.41	22900
850.545	22847
850.68	22968
850.815	22946
850.95	23010
851.085	23060
851.22	23083
851.355	23014
851.49	22927
851.625	22854
851.76	22930
851.895	22816
852.03	22934
852.165	22942
852.299	22881
852.434	22953
852.569	22896
852.703	22805
852.838	23124
852.973	23098
853.107	23014
853.242	22862
853.376	22801
853.511	22748
853.645	22733
853.78	22934
853.914	22774
854.048	22843
854.183	22767
854.317	22801
854.451	23014
854.585	22755
854.72	22782
854.854	22710
854.988	22702
855.122	22729
855.256	22687
855.39	22752
855.524	22820
855.658	22782
855.792	22816
855.926	22873
856.06	22881
856.194	22771
856.327	22691
856.461	22717
856.595	22687
856.729	22831
856.862	22847
856.996	22881
857.13	22911
857.263	22919
857.397	22854
857.53	22744
857.664	22831
857.797	22866
857.931	22889
858.064	22911
858.197	22713
858.331	22831
858.464	22675
858.597	22702
858.731	22782
858.864	22710
858.997	22725
859.13	22736
859.263	22835
859.396	22778
859.529	22858
859.662	22744
859.795	22778
859.928	22755
860.061	22900
860.194	23041
860.327	22736
860.46	22957
860.592	22919
860.725	23006
860.858	22984
860.99	22793
861.123	22672
861.256	22752
861.388	22763
861.521	23501
861.653	22630
861.786	22683
861.918	22611
862.05	22744
862.183	22668
862.315	22675
862.447	22816
862.58	22698
862.712	22584
862.844	22405
862.976	22519
863.108	22634
863.24	22816
863.372	22436
863.504	22569
863.636	22417
863.768	22531
863.9	22466
864.032	22402
864.164	22535
864.296	22527
864.428	22561
864.559	22592
864.691	22459
864.823	22455
864.954	22337
865.086	22379
865.217	22276
865.349	22398
865.48	22287
865.612	22322
865.743	22478
865.875	22413
866.006	22402
866.137	22341
866.269	22405
866.4	22413
866.531	22310
866.662	22215
866.793	22398
866.924	22261
867.055	22344
867.186	22428
867.317	22234
867.448	22158
867.579	22329
867.71	22169
867.841	22207
867.972	22287
868.103	22337
868.233	22390
868.364	22257
868.495	22424
868.625	22527
868.756	22713
868.886	22455
869.017	22554
869.147	22527
869.278	22622
869.408	22516
869.539	22542
869.669	22634
869.799	22485
869.929	22641
870.06	22611
870.19	22885
870.32	22835
870.45	22877
870.58	22885
870.71	22923
870.84	23083
870.97	22881
871.1	22927
871.23	23113
871.36	23075
871.489	22987
871.619	23170
871.749	23166
871.879	23242
872.008	23292
872.138	23155
872.267	23231
872.397	22984
872.526	23003
872.656	23014
872.785	23010
872.915	23178
873.044	23227
873.173	23094
873.303	23258
873.432	23136
873.561	23170
873.69	23102
873.819	23143
873.948	23239
874.077	23136
874.206	23121
874.335	23140
874.464	23200
874.593	23429
874.722	23242
874.851	23387
874.979	23463
875.108	23368
875.237	23311
875.365	23265
875.494	23292
875.623	23417
875.751	23261
875.88	23406
876.008	23539
876.136	23482
876.265	23707
876.393	23870
876.521	23840
876.65	23821
876.778	23741
876.906	23661
877.034	23657
877.162	23783
877.29	23630
877.418	23691
877.546	23649
877.674	23642
877.802	23752
877.93	23707
878.058	23672
878.185	23551
878.313	23627
878.441	23615
878.568	23528
878.696	23600
878.824	23745
878.951	23836
879.079	23767
879.206	24007
879.333	23931
879.461	23710
879.588	23885
879.715	23901
879.842	23969
879.97	23745
880.097	23497
880.224	23490
880.351	23531
880.478	23539
880.605	23589
880.732	23516
880.859	23729
880.986	23543
881.112	23604
881.239	23383
881.366	23261
881.493	23181
881.619	23033
881.746	23105
881.872	23124
881.999	22991
882.125	22999
882.252	23178
882.378	22995
882.505	23174
882.631	22889
882.757	22786
882.883	22854
883.01	22801
883.136	22599
883.262	22554
883.388	22599
883.514	22801
883.64	22622
883.766	22645
883.892	22500
884.018	22493
884.143	22683
884.269	22588
884.395	22402
884.52	22234
884.646	22371
884.772	22352
884.897	22268
885.023	22535
885.148	22360
885.274	22523
885.399	22592
885.524	22462
885.65	22462
885.775	22573
885.9	22329
886.025	22413
886.15	22371
886.275	22318
886.4	22143
886.525	22272
886.65	22238
886.775	22303
886.9	22352
887.025	22733
887.149	22356
887.274	22112
887.399	22154
887.523	22086
887.648	22116
887.773	21983
887.897	22207
888.021	22112
888.146	22150
888.27	22150
888.395	22333
888.519	22162
888.643	22207
888.767	22238
888.891	21899
889.015	21934
889.139	22059
889.263	21968
889.387	22040
889.511	22158
889.635	22105
889.759	22055
889.883	21876
890.006	21915
890.13	22017
890.254	21937
890.377	21895
890.501	21686
890.624	21603
890.748	21766
890.871	21583
890.995	21572
891.118	21519
891.241	21458
891.364	21477
891.488	21633
891.611	21485
891.734	21553
891.857	21587
891.98	21568
892.103	21526
892.226	21610
892.349	21359
892.471	21260
892.594	21450
892.717	21466
892.839	21397
892.962	21386
893.085	21458
893.207	21428
893.33	21252
893.452	21382
893.575	21431
893.697	21386
893.819	21553
893.941	21580
894.064	21538
894.186	21256
894.308	21264
894.43	21447
894.552	21637
894.674	21313
894.796	21329
894.918	21302
895.04	21374
895.161	21492
895.283	21485
895.405	21176
895.526	21344
895.648	21351
895.769	21302
895.891	21382
896.012	21408
896.134	21523
896.255	21317
896.376	21367
896.498	21420
896.619	21496
896.74	21260
896.861	21329
896.982	21698
897.103	21751
897.224	21656
897.345	21545
897.466	21450
897.587	21511
897.708	21679
897.828	21580
897.949	21545
898.07	21287
898.19	21473
898.311	21606
898.431	21412
898.552	21515
898.672	21667
898.792	21561
898.913	21462
899.033	21450
899.153	21393
899.273	21214
899.393	21218
899.513	21245
899.633	21237
899.753	21298
899.873	21214
899.993	21188
900.113	21108
900.232	21211
900.352	21146
900.472	21055
900.591	21001
900.711	21131
900.83	20975
900.95	21211
901.069	21142
901.189	20971
901.308	20640
901.427	20587
901.546	20594
901.665	20499
901.784	20438
901.904	20552
902.023	20415
902.141	20180
902.26	19989
902.379	20221
902.498	20050
902.617	20130
902.735	20244
902.854	20058
902.973	19967
903.091	19734
903.21	19742
903.328	19734
903.446	19651
903.565	19597
903.683	19582
903.801	19510
903.919	19563
904.038	19434
904.156	19297
904.274	19426
904.392	19339
904.51	19301
904.627	19400
904.745	19377
904.863	19168
904.981	19171
905.098	18897
905.216	19031
905.334	19015
905.451	18985
905.569	18932
905.686	19046
905.803	18878
905.921	18677
906.038	18821
906.155	18810
906.272	18639
906.389	18681
906.506	18502
906.623	18559
906.74	18574
906.857	18418
906.974	18410
907.091	18551
907.208	18627
907.324	18551
907.441	18319
907.557	18144
907.674	18281
907.79	18148
907.907	18140
908.023	18232
908.139	18304
908.256	18102
908.372	18102
908.488	18022
908.604	17870
908.72	17977
908.836	18019
908.952	17935
909.068	18015
909.184	18022
909.3	17893
909.415	17950
909.531	17969
909.647	17794
909.762	17642
909.878	17592
909.993	17638
910.108	17509
910.224	17619
910.339	17592
910.454	17417
910.57	17471
910.685	17398
910.8	17646
910.915	17490
911.03	17402
911.145	17273
911.259	17136
911.374	17174
911.489	17121
911.604	17136
911.718	16938
911.833	16896
911.947	16809
912.062	16850
912.176	16984
912.291	16831
912.405	16896
912.519	17079
912.633	17079
912.748	17045
912.862	16927
912.976	16733
913.09	16675
913.204	16694
913.318	16706
913.431	16782
913.545	16824
913.659	16812
913.772	16702
913.886	16599
914	16462
914.113	16550
914.226	16641
914.34	16611
914.453	16390
914.566	16580
914.68	16459
914.793	16363
914.906	16234
915.019	16040
915.132	16032
915.245	16051
915.358	16234
915.47	16074
915.583	16185
915.696	16116
915.809	16211
915.921	16204
916.034	16051
916.146	15934
916.259	15964
916.371	16105
916.483	15987
916.595	15899
916.708	15892
916.82	15888
916.932	15842
917.044	15854
917.156	15778
917.268	15736
917.38	15728
917.491	15705
917.603	15709
917.715	15899
917.826	15724
917.938	15667
918.049	15511
918.161	15644
918.272	15789
918.384	15854
918.495	15641
918.606	15500
918.717	15389
918.828	15507
918.939	15545
919.05	15302
919.161	15435
919.272	15222
919.383	15252
919.494	15416
919.604	15663
919.715	15359
919.826	15260
919.936	15431
920.047	15526
920.157	15374
920.267	15507
920.378	15450
920.488	15367
920.598	15557
920.708	15682
920.818	15504
920.928	15485
921.038	15713
921.148	15637
921.258	15359
921.368	15313
921.477	15161
921.587	15127
921.697	14925
921.806	15077
921.916	14868
922.025	14811
922.134	14785
922.244	14720
922.353	14792
922.462	14651
922.571	14583
922.68	14389
922.789	14427
922.898	14351
923.007	14202
923.116	14298
923.224	14412
923.333	14358
923.442	14237
923.55	14172
923.659	14206
923.767	14320
923.876	14138
923.984	14244
924.092	14043
924.201	14092
924.309	14149
924.417	14024
924.525	13982
924.633	14031
924.741	14788
924.849	13849
924.956	13936
925.064	13814
925.172	13597
925.279	13738
925.387	13738
925.494	13734
925.602	13803
925.709	13795
925.816	13636
925.924	13727
926.031	13776
926.138	13685
926.245	13605
926.352	13578
926.459	13811
926.566	13674
926.673	13559
926.779	13438
926.886	13407
926.993	13369
927.099	13263
927.206	13217
927.312	13282
927.419	13259
927.525	13240
927.631	13362
927.737	13209
927.843	13259
927.95	12996
928.056	13141
928.162	13084
928.267	13183
928.373	13670
928.479	13057
928.585	12928
928.69	13061
928.796	13114
928.901	12928
929.007	12795
929.112	12970
929.218	12833
929.323	12848
929.428	12814
929.533	12894
929.638	12795
929.743	12722
929.848	12776
929.953	12726
930.058	12547
930.163	12490
930.267	12517
930.372	12627
930.477	12369
930.581	12642
930.685	12547
930.79	12410
930.894	12388
930.998	12315
931.103	12441
931.207	12095
931.311	12068
931.415	11965
931.519	11737
931.623	11657
