Data from test_V78500241_2140.txt Node
Date: Fri Mar 25 15:56:37 CST 2022
User: usil
Spectrometer: V785-0024
Trigger mode: 0
Integration Time (sec): 4.000000E-1
Scans to average: 1
Nonlinearity correction enabled: false
Boxcar width: 0
Storing dark spectrum: false
XAxis mode: Wavelengths
Number of Pixels in Spectrum: 1024
>>>>>Begin Spectral Data<<<<<
801.071	29102
801.214	29048
801.356	28854
801.499	28694
801.641	28630
801.783	28736
801.926	28653
802.068	28603
802.211	28588
802.353	28596
802.496	28337
802.638	28348
802.78	28234
802.923	28211
803.065	28261
803.208	28158
803.35	28375
803.492	28337
803.635	28432
803.777	28356
803.919	28615
804.061	28816
804.204	28630
804.346	28478
804.488	28489
804.63	28592
804.773	28500
804.915	28649
805.057	28710
805.199	28493
805.341	28725
805.483	28599
805.626	28778
805.768	28519
805.91	28812
806.052	28645
806.194	28767
806.336	28812
806.478	28763
806.62	28694
806.762	28858
806.904	28999
807.046	29212
807.188	29113
807.33	29269
807.472	29337
807.614	29151
807.756	29250
807.898	29022
808.04	28968
808.182	28877
808.324	29086
808.465	29216
808.607	29288
808.749	29383
808.891	29486
809.033	29600
809.174	29672
809.316	29478
809.458	29379
809.6	29364
809.741	29615
809.883	29642
810.025	29695
810.166	29828
810.308	29680
810.45	29672
810.591	29604
810.733	29512
810.875	29421
811.016	29368
811.158	29330
811.299	29596
811.441	29672
811.582	29646
811.724	29486
811.865	29535
812.007	29345
812.148	29375
812.29	29478
812.431	29642
812.573	29786
812.714	29920
812.855	29904
812.997	30155
813.138	30194
813.279	30106
813.421	30053
813.562	29745
813.703	29798
813.845	29570
813.986	29383
814.127	29326
814.268	29204
814.41	29318
814.551	29052
814.692	29212
814.833	29060
814.974	29064
815.115	29003
815.256	29014
815.397	29010
815.539	29048
815.68	28987
815.821	28854
815.962	28923
816.103	28869
816.244	28786
816.385	28965
816.526	28706
816.666	28535
816.807	28421
816.948	28603
817.089	28588
817.23	28485
817.371	28607
817.512	28637
817.653	28447
817.793	28348
817.934	28405
818.075	28512
818.216	28489
818.356	28318
818.497	28344
818.638	28318
818.778	28306
818.919	28242
819.06	28325
819.2	28306
819.341	28413
819.481	28516
819.622	28565
819.762	28774
819.903	28736
820.043	28580
820.184	28702
820.324	28626
820.465	28675
820.605	28763
820.746	28668
820.886	28443
821.026	28569
821.167	28634
821.307	28645
821.447	28519
821.588	28542
821.728	28314
821.868	28154
822.008	27869
822.149	27823
822.289	27831
822.429	27694
822.569	27686
822.709	27610
822.849	27500
822.99	27477
823.13	27500
823.27	27431
823.41	27370
823.55	27154
823.69	27195
823.83	27306
823.97	27199
824.11	27104
824.25	27058
824.389	27093
824.529	27211
824.669	27028
824.809	27055
824.949	27135
825.089	27245
825.228	27203
825.368	27028
825.508	26842
825.648	26929
825.787	26948
825.927	27142
826.067	27020
826.206	27062
826.346	26944
826.485	27226
826.625	27100
826.765	27214
826.904	27005
827.044	26830
827.183	26765
827.323	26735
827.462	26743
827.601	26815
827.741	26678
827.88	26834
828.02	26617
828.159	26644
828.298	26705
828.437	26842
828.577	26625
828.716	26826
828.855	26484
828.994	26415
829.134	26400
829.273	26438
829.412	26385
829.551	26233
829.69	26461
829.829	26427
829.968	26434
830.107	26556
830.246	26248
830.385	26172
830.524	26347
830.663	26233
830.802	26088
830.941	25963
831.08	25841
831.219	26084
831.357	26073
831.496	26088
831.635	26058
831.774	25947
831.913	25887
832.051	25765
832.19	25784
832.329	25864
832.467	25704
832.606	25571
832.744	25548
832.883	25647
833.022	25571
833.16	25651
833.299	25734
833.437	25761
833.576	25811
833.714	25750
833.852	25685
833.991	25788
834.129	25765
834.267	25685
834.406	25746
834.544	25864
834.682	25719
834.821	25772
834.959	25864
835.097	25674
835.235	25723
835.373	25738
835.511	25613
835.65	25639
835.788	25666
835.926	25384
836.064	25392
836.202	25396
836.34	25616
836.478	25666
836.615	25556
836.753	25518
836.891	25597
837.029	25575
837.167	25388
837.305	25537
837.443	25495
837.58	25510
837.718	25472
837.856	25362
837.993	25289
838.131	25327
838.269	25168
838.406	25377
838.544	25221
838.681	25053
838.819	25000
838.956	24875
839.094	24886
839.231	24859
839.369	25091
839.506	25247
839.643	24989
839.781	24757
839.918	24837
840.055	24795
840.193	24829
840.33	24768
840.467	24939
840.604	24905
840.742	25069
840.879	24681
841.016	24741
841.153	24502
841.29	24852
841.427	24654
841.564	24673
841.701	24681
841.838	24741
841.975	24658
842.112	24700
842.249	24551
842.385	24376
842.522	24760
842.659	24517
842.796	24505
842.933	24437
843.069	24391
843.206	24513
843.343	24585
843.479	24551
843.616	24612
843.752	24281
843.889	24289
844.025	24471
844.162	24300
844.298	24380
844.435	24235
844.571	24201
844.708	24114
844.844	24422
844.98	24509
845.117	24273
845.253	24133
845.389	24232
845.525	24144
845.661	24079
845.798	24026
845.934	23969
846.07	24034
846.206	24018
846.342	24186
846.478	23931
846.614	23828
846.75	23630
846.886	23608
847.022	23752
847.158	23649
847.294	23638
847.429	23756
847.565	23680
847.701	23961
847.837	23467
847.972	23478
848.108	23501
848.244	23558
848.379	23379
848.515	23239
848.65	23330
848.786	23391
848.921	23280
849.057	23474
849.192	23410
849.328	23444
849.463	23330
849.598	23250
849.734	23334
849.869	23117
850.004	23143
850.14	23159
850.275	23006
850.41	22987
850.545	22934
850.68	23052
850.815	22984
850.95	23128
851.085	23235
851.22	23227
851.355	23189
851.49	22942
851.625	22999
851.76	23174
851.895	22923
852.03	23018
852.165	23029
852.299	23037
852.434	23075
852.569	23166
852.703	23132
852.838	23098
852.973	23216
853.107	23121
853.242	22972
853.376	22862
853.511	22911
853.645	22809
853.78	22972
853.914	22930
854.048	22968
854.183	22839
854.317	22881
854.451	23189
854.585	22938
854.72	22824
854.854	22885
854.988	22820
855.122	22942
855.256	22668
855.39	22873
855.524	22862
855.658	22946
855.792	22805
855.926	22839
856.06	22915
856.194	22934
856.327	22767
856.461	22854
856.595	22923
856.729	22942
856.862	22957
856.996	22953
857.13	22930
857.263	22930
857.397	23048
857.53	22919
857.664	22911
857.797	22862
857.931	22976
858.064	22930
858.197	23006
858.331	22934
858.464	22809
858.597	22767
858.731	22782
858.864	22854
858.997	22873
859.13	22900
859.263	22812
859.396	22938
859.529	22980
859.662	22862
859.795	22691
859.928	22987
860.061	22980
860.194	23102
860.327	22930
860.46	22881
860.592	23025
860.725	23124
860.858	23025
860.99	22923
861.123	22763
861.256	22790
861.388	22793
861.521	23687
861.653	22740
861.786	22611
861.918	22782
862.05	22660
862.183	22793
862.315	22790
862.447	22999
862.58	22717
862.712	22596
862.844	22588
862.976	22691
863.108	22778
863.24	23083
863.372	22611
863.504	22500
863.636	22611
863.768	22596
863.9	22660
864.032	22561
864.164	22546
864.296	22641
864.428	22630
864.559	22717
864.691	22683
864.823	22622
864.954	22508
865.086	22527
865.217	22436
865.349	22417
865.48	22466
865.612	22554
865.743	22493
865.875	22535
866.006	22512
866.137	22485
866.269	22405
866.4	22386
866.531	22363
866.662	22318
866.793	22428
866.924	22318
867.055	22402
867.186	22424
867.317	22337
867.448	22360
867.579	22417
867.71	22226
867.841	22291
867.972	22421
868.103	22344
868.233	22424
868.364	22356
868.495	22417
868.625	22622
868.756	22725
868.886	22592
869.017	22710
869.147	22733
869.278	22824
869.408	22546
869.539	22679
869.669	22653
869.799	22645
869.929	22763
870.06	22713
870.19	22965
870.32	22968
870.45	23003
870.58	22957
870.71	23086
870.84	23025
870.97	23075
871.1	22965
871.23	23189
871.36	23170
871.489	23288
871.619	23094
871.749	23330
871.879	23258
872.008	23406
872.138	23098
872.267	23200
872.397	23086
872.526	22919
872.656	22900
872.785	23109
872.915	23223
873.044	23322
873.173	23178
873.303	23402
873.432	23345
873.561	23341
873.69	23303
873.819	23258
873.948	23292
874.077	23212
874.206	23033
874.335	23208
874.464	23273
874.593	23368
874.722	23467
874.851	23558
874.979	23444
875.108	23524
875.237	23387
875.365	23330
875.494	23398
875.623	23577
875.751	23455
875.88	23379
876.008	23486
876.136	23596
876.265	23923
876.393	23965
876.521	23961
876.65	23904
876.778	23885
876.906	23779
877.034	23676
877.162	23733
877.29	23680
877.418	23707
877.546	23824
877.674	23566
877.802	23767
877.93	23805
878.058	23741
878.185	23646
878.313	23843
878.441	23771
878.568	23627
878.696	23691
878.824	23661
878.951	23851
879.079	23901
879.206	24060
879.333	23920
879.461	23771
879.588	23885
879.715	24076
879.842	24182
879.97	23756
880.097	23554
880.224	23535
880.351	23570
880.478	23547
880.605	23520
880.732	23638
880.859	23824
880.986	23459
881.112	23535
881.239	23425
881.366	23349
881.493	23193
881.619	23090
881.746	23227
881.872	23094
881.999	23151
882.125	23121
882.252	23140
882.378	23166
882.505	23311
882.631	23102
882.757	22774
882.883	23003
883.01	22877
883.136	22797
883.262	22816
883.388	22721
883.514	22866
883.64	22748
883.766	22668
883.892	22538
884.018	22656
884.143	22820
884.269	22793
884.395	22493
884.52	22478
884.646	22386
884.772	22470
884.897	22459
885.023	22417
885.148	22622
885.274	22565
885.399	22470
885.524	22409
885.65	22447
885.775	22459
885.9	22436
886.025	22550
886.15	22455
886.275	22455
886.4	22344
886.525	22386
886.65	22367
886.775	22405
886.9	22481
887.025	22607
887.149	22356
887.274	22261
887.399	22169
887.523	22348
887.648	22158
887.773	22150
887.897	22379
888.021	22344
888.146	22055
888.27	22257
888.395	22185
888.519	22070
888.643	22230
888.767	22192
888.891	22181
889.015	22021
889.139	22101
889.263	21998
889.387	22055
889.511	21994
889.635	22196
889.759	21983
889.883	21956
890.006	21983
890.13	22131
890.254	22055
890.377	21861
890.501	21732
890.624	21690
890.748	21652
890.871	21641
890.995	21572
891.118	21321
891.241	21534
891.364	21511
891.488	21614
891.611	21534
891.734	21473
891.857	21629
891.98	21534
892.103	21660
892.226	21549
892.349	21454
892.471	21283
892.594	21488
892.717	21519
892.839	21344
892.962	21389
893.085	21507
893.207	21428
893.33	21291
893.452	21386
893.575	21439
893.697	21207
893.819	21557
893.941	21603
894.064	21507
894.186	21424
894.308	21317
894.43	21545
894.552	21591
894.674	21412
894.796	21355
894.918	21389
895.04	21348
895.161	21439
895.283	21412
895.405	21370
895.526	21428
895.648	21370
895.769	21450
895.891	21321
896.012	21481
896.134	21443
896.255	21367
896.376	21226
896.498	21310
896.619	21332
896.74	21462
896.861	21397
896.982	21675
897.103	21808
897.224	21720
897.345	21686
897.466	21637
897.587	21618
897.708	21850
897.828	21682
897.949	21545
898.07	21492
898.19	21378
898.311	21549
898.431	21488
898.552	21576
898.672	21675
898.792	21648
898.913	21534
899.033	21408
899.153	21313
899.273	21192
899.393	21325
899.513	21287
899.633	21389
899.753	21275
899.873	21275
899.993	21302
900.113	21165
900.232	21389
900.352	21222
900.472	21135
900.591	21028
900.711	21005
900.83	21089
900.95	21161
901.069	21108
901.189	20853
901.308	20636
901.427	20571
901.546	20674
901.665	20636
901.784	20541
901.904	20537
902.023	20393
902.141	20237
902.26	20225
902.379	20298
902.498	20134
902.617	20008
902.735	20115
902.854	20081
902.973	19940
903.091	19833
903.21	19883
903.328	19879
903.446	19689
903.565	19582
903.683	19567
903.801	19506
903.919	19563
904.038	19468
904.156	19304
904.274	19529
904.392	19343
904.51	19373
904.627	19285
904.745	19354
904.863	19369
904.981	19183
905.098	19072
905.216	19076
905.334	18985
905.451	19053
905.569	19046
905.686	19008
905.803	18996
905.921	18825
906.038	18951
906.155	18852
906.272	18631
906.389	18715
906.506	18582
906.623	18555
906.74	18502
906.857	18486
906.974	18563
907.091	18486
907.208	18551
907.324	18654
907.441	18365
907.557	18254
907.674	18277
907.79	18167
907.907	18136
908.023	18258
908.139	18277
908.256	18190
908.372	18091
908.488	18038
908.604	18030
908.72	17855
908.836	17920
908.952	17923
909.068	17920
909.184	18114
909.3	17927
909.415	17912
909.531	17927
909.647	17672
909.762	17699
909.878	17592
909.993	17646
910.108	17634
910.224	17543
910.339	17581
910.454	17429
910.57	17421
910.685	17311
910.8	17585
910.915	17539
911.03	17376
911.145	17345
911.259	17185
911.374	17170
911.489	17029
911.604	17147
911.718	17033
911.833	17048
911.947	16839
912.062	16786
912.176	16984
912.291	16938
912.405	16984
912.519	17162
912.633	17094
912.748	17014
912.862	16896
912.976	16713
913.09	16660
913.204	16653
913.318	16759
913.431	16881
913.545	16744
913.659	16831
913.772	16736
913.886	16558
914	16554
914.113	16592
914.226	16687
914.34	16546
914.453	16459
914.566	16558
914.68	16428
914.793	16379
914.906	16166
915.019	16013
915.132	15956
915.245	16086
915.358	16120
915.47	16112
915.583	16071
915.696	16002
915.809	16131
915.921	16207
916.034	16040
916.146	16074
916.259	15956
916.371	16158
916.483	16017
916.595	15846
916.708	15945
916.82	15876
916.932	15899
917.044	15835
917.156	15816
917.268	15736
917.38	15759
917.491	15743
917.603	15675
917.715	15857
917.826	15797
917.938	15599
918.049	15542
918.161	15667
918.272	15743
918.384	15797
918.495	15682
918.606	15473
918.717	15351
918.828	15538
918.939	15564
919.05	15351
919.161	15526
919.272	15264
919.383	15447
919.494	15481
919.604	15671
919.715	15401
919.826	15378
919.936	15374
920.047	15504
920.157	15317
920.267	15671
920.378	15443
920.488	15462
920.598	15557
920.708	15720
920.818	15591
920.928	15553
921.038	15743
921.148	15682
921.258	15374
921.368	15294
921.477	15093
921.587	15104
921.697	14971
921.806	15020
921.916	15047
922.025	14788
922.134	14762
922.244	14815
922.353	14883
922.462	14731
922.571	14640
922.68	14427
922.789	14408
922.898	14442
923.007	14355
923.116	14545
923.224	14473
923.333	14355
923.442	14290
923.55	14244
923.659	14343
923.767	14320
923.876	14221
923.984	14248
924.092	14183
924.201	14084
924.309	14103
924.417	14073
924.525	14046
924.633	14024
924.741	14800
924.849	13898
924.956	14024
925.064	13917
925.172	13734
925.279	13864
925.387	13894
925.494	13791
925.602	13925
925.709	13799
925.816	13674
925.924	13784
926.031	13784
926.138	13742
926.245	13765
926.352	13605
926.459	13818
926.566	13811
926.673	13719
926.779	13518
926.886	13548
926.993	13358
927.099	13415
927.206	13293
927.312	13426
927.419	13335
927.525	13251
927.631	13324
927.737	13228
927.843	13122
927.95	13046
928.056	13183
928.162	13266
928.267	13183
928.373	13788
928.479	13198
928.585	13012
928.69	13072
928.796	13023
928.901	12993
929.007	12821
929.112	13023
929.218	12970
929.323	12939
929.428	12829
929.533	12954
929.638	12821
929.743	12783
929.848	12863
929.953	12776
930.058	12741
930.163	12517
930.267	12536
930.372	12707
930.477	12407
930.581	12677
930.685	12604
930.79	12346
930.894	12403
930.998	12350
931.103	12471
931.207	12148
931.311	12041
931.415	11920
931.519	11767
931.623	11748
