Data from test_V78500241_248.txt Node
Date: Fri Mar 25 15:43:31 CST 2022
User: usil
Spectrometer: V785-0024
Trigger mode: 0
Integration Time (sec): 4.000000E-1
Scans to average: 1
Nonlinearity correction enabled: false
Boxcar width: 0
Storing dark spectrum: false
XAxis mode: Wavelengths
Number of Pixels in Spectrum: 1024
>>>>>Begin Spectral Data<<<<<
801.071	29657
801.214	29630
801.356	29474
801.499	29547
801.641	29353
801.783	29383
801.926	29227
802.068	29273
802.211	29307
802.353	29280
802.496	29037
802.638	29071
802.78	28869
802.923	28984
803.065	28866
803.208	28938
803.35	29033
803.492	28965
803.635	29284
803.777	29159
803.919	29208
804.061	29619
804.204	29197
804.346	29014
804.488	28968
804.63	29143
804.773	29037
804.915	29105
805.057	29204
805.199	28991
805.341	29269
805.483	29311
805.626	29322
805.768	29128
805.91	29288
806.052	29212
806.194	29166
806.336	29448
806.478	29303
806.62	29315
806.762	29436
806.904	29562
807.046	29821
807.188	29809
807.33	29653
807.472	29600
807.614	29493
807.756	29501
807.898	29608
808.04	29459
808.182	29497
808.324	29524
808.465	29474
808.607	29577
808.749	29851
808.891	29893
809.033	30136
809.174	29862
809.316	29805
809.458	29908
809.6	29786
809.741	29984
809.883	29809
810.025	30281
810.166	30243
810.308	30060
810.45	30022
810.591	30106
810.733	29882
810.875	29901
811.016	29668
811.158	29718
811.299	30034
811.441	30102
811.582	30117
811.724	29832
811.865	29946
812.007	29817
812.148	29935
812.29	29798
812.431	29984
812.573	30060
812.714	30254
812.855	30391
812.997	30494
813.138	30563
813.279	30498
813.421	30346
813.562	30296
813.703	30114
813.845	29977
813.986	29802
814.127	29524
814.268	29482
814.41	29520
814.551	29566
814.692	29634
814.833	29539
814.974	29452
815.115	29467
815.256	29444
815.397	29235
815.539	29402
815.68	29269
815.821	29239
815.962	29235
816.103	29307
816.244	29269
816.385	29193
816.526	28987
816.666	28809
816.807	28702
816.948	28828
817.089	28740
817.23	28653
817.371	28668
817.512	28653
817.653	28634
817.793	28462
817.934	28698
818.075	28622
818.216	28717
818.356	28793
818.497	28504
818.638	28375
818.778	28268
818.919	28565
819.06	28455
819.2	28599
819.341	28683
819.481	28531
819.622	28797
819.762	28862
819.903	28980
820.043	28668
820.184	28767
820.324	28782
820.465	28854
820.605	28771
820.746	28790
820.886	28573
821.026	28694
821.167	28687
821.307	28835
821.447	28611
821.588	28516
821.728	28409
821.868	28265
822.008	28097
822.149	28139
822.289	27987
822.429	27694
822.569	27599
822.709	27713
822.849	27561
822.99	27450
823.13	27542
823.27	27625
823.41	27435
823.55	27192
823.69	27367
823.83	27264
823.97	27199
824.11	27142
824.25	27252
824.389	27112
824.529	27252
824.669	27119
824.809	27256
824.949	27332
825.089	27279
825.228	27131
825.368	26929
825.508	27009
825.648	26937
825.787	26979
825.927	26986
826.067	27131
826.206	26895
826.346	27020
826.485	27226
826.625	26948
826.765	27074
826.904	27028
827.044	26815
827.183	26819
827.323	26682
827.462	26632
827.601	26739
827.741	26648
827.88	26651
828.02	26651
828.159	26598
828.298	26689
828.437	26693
828.577	26541
828.716	26727
828.855	26560
828.994	26336
829.134	26415
829.273	26298
829.412	26355
829.551	26343
829.69	26343
829.829	26427
829.968	26275
830.107	26301
830.246	26377
830.385	26362
830.524	26244
830.663	26077
830.802	26020
830.941	25951
831.08	25852
831.219	25997
831.357	26016
831.496	26027
831.635	25959
831.774	25719
831.913	25761
832.051	25746
832.19	25689
832.329	25616
832.467	25628
832.606	25578
832.744	25594
832.883	25540
833.022	25540
833.16	25594
833.299	25647
833.437	25559
833.576	25613
833.714	25708
833.852	25635
833.991	25685
834.129	25696
834.267	25544
834.406	25525
834.544	25567
834.682	25518
834.821	25445
834.959	25757
835.097	25441
835.235	25556
835.373	25571
835.511	25457
835.65	25377
835.788	25350
835.926	25274
836.064	25080
836.202	25308
836.34	25388
836.478	25491
836.615	25373
836.753	25400
836.891	25396
837.029	25521
837.167	25445
837.305	25278
837.443	25194
837.58	25259
837.718	25422
837.856	25335
837.993	25023
838.131	25217
838.269	25050
838.406	25114
838.544	24863
838.681	24882
838.819	24760
838.956	24696
839.094	24669
839.231	24642
839.369	24779
839.506	25034
839.643	24760
839.781	24623
839.918	24555
840.055	24448
840.193	24540
840.33	24410
840.467	24551
840.604	24418
840.742	24924
840.879	24388
841.016	24395
841.153	24502
841.29	24597
841.427	24426
841.564	24467
841.701	24418
841.838	24388
841.975	24361
842.112	24285
842.249	24330
842.385	24201
842.522	24479
842.659	24285
842.796	24178
842.933	24133
843.069	24091
843.206	24213
843.343	24155
843.479	24209
843.616	24095
843.752	23992
843.889	23885
844.025	24148
844.162	23958
844.298	24041
844.435	23954
844.571	23840
844.708	24003
844.844	24102
844.98	24072
845.117	24034
845.253	24041
845.389	23805
845.525	23859
845.661	23790
845.798	23714
845.934	23695
846.07	23505
846.206	23581
846.342	23794
846.478	23630
846.614	23463
846.75	23315
846.886	23337
847.022	23356
847.158	23345
847.294	23356
847.429	23315
847.565	23178
847.701	23356
847.837	23014
847.972	22968
848.108	23239
848.244	23117
848.379	22987
848.515	23014
848.65	22915
848.786	22877
848.921	22911
849.057	23162
849.192	22999
849.328	22900
849.463	22976
849.598	22755
849.734	22923
849.869	22831
850.004	22664
850.14	22713
850.275	22660
850.41	22634
850.545	22622
850.68	22630
850.815	22672
850.95	22607
851.085	22797
851.22	22850
851.355	22740
851.49	22698
851.625	22516
851.76	22561
851.895	22565
852.03	22508
852.165	22645
852.299	22717
852.434	22740
852.569	22790
852.703	22641
852.838	22782
852.973	22778
853.107	22656
853.242	22508
853.376	22447
853.511	22280
853.645	22489
853.78	22466
853.914	22459
854.048	22314
854.183	22379
854.317	22424
854.451	22675
854.585	22417
854.72	22428
854.854	22451
854.988	22295
855.122	22500
855.256	22280
855.39	22413
855.524	22466
855.658	22390
855.792	22382
855.926	22421
856.06	22455
856.194	22542
856.327	22375
856.461	22341
856.595	22303
856.729	22440
856.862	22550
856.996	22538
857.13	22611
857.263	22592
857.397	22504
857.53	22371
857.664	22451
857.797	22500
857.931	22573
858.064	22500
858.197	22493
858.331	22386
858.464	22344
858.597	22268
858.731	22390
858.864	22375
858.997	22341
859.13	22303
859.263	22360
859.396	22527
859.529	22371
859.662	22405
859.795	22371
859.928	22405
860.061	22474
860.194	22588
860.327	22447
860.46	22280
860.592	22447
860.725	22580
860.858	22432
860.99	22398
861.123	22284
861.256	22185
861.388	22341
861.521	23094
861.653	22173
861.786	22124
861.918	22257
862.05	22306
862.183	22253
862.315	22474
862.447	22390
862.58	22337
862.712	22204
862.844	22116
862.976	22204
863.108	22116
863.24	22618
863.372	22006
863.504	22055
863.636	22051
863.768	22139
863.9	22090
864.032	22032
864.164	22048
864.296	22105
864.428	22059
864.559	22124
864.691	22192
864.823	22074
864.954	22055
865.086	21964
865.217	21918
865.349	21953
865.48	21895
865.612	22006
865.743	22013
865.875	21998
866.006	21812
866.137	21915
866.269	21941
866.4	21812
866.531	21934
866.662	21800
866.793	21911
866.924	21846
867.055	21964
867.186	21838
867.317	21854
867.448	21861
867.579	21762
867.71	21789
867.841	21835
867.972	21964
868.103	21846
868.233	21816
868.364	21755
868.495	21911
868.625	22086
868.756	22219
868.886	21998
869.017	22002
869.147	22249
869.278	22154
869.408	22154
869.539	22074
869.669	22173
869.799	22029
869.929	22291
870.06	22154
870.19	22337
870.32	22188
870.45	22344
870.58	22493
870.71	22672
870.84	22557
870.97	22516
871.1	22367
871.23	22733
871.36	22797
871.489	22573
871.619	22626
871.749	22660
871.879	22679
872.008	22835
872.138	22767
872.267	22710
872.397	22527
872.526	22527
872.656	22481
872.785	22363
872.915	22713
873.044	22771
873.173	22710
873.303	22725
873.432	22793
873.561	22824
873.69	22786
873.819	22615
873.948	22721
874.077	22675
874.206	22828
874.335	22748
874.464	22858
874.593	22923
874.722	22736
874.851	22942
874.979	22930
875.108	23048
875.237	22904
875.365	22915
875.494	22915
875.623	23044
875.751	22949
875.88	22911
876.008	23037
876.136	23109
876.265	23368
876.393	23368
876.521	23318
876.65	23345
876.778	23189
876.906	23337
877.034	23181
877.162	23273
877.29	23292
877.418	23398
877.546	23372
877.674	23349
877.802	23235
877.93	23277
878.058	23181
878.185	23121
878.313	23258
878.441	23162
878.568	23029
878.696	23189
878.824	23326
878.951	23277
879.079	23387
879.206	23570
879.333	23402
879.461	23246
879.588	23284
879.715	23436
879.842	23376
879.97	23364
880.097	23029
880.224	22934
880.351	23090
880.478	22972
880.605	22942
880.732	23075
880.859	23330
880.986	23102
881.112	23128
881.239	22968
881.366	22854
881.493	22869
881.619	22660
881.746	22706
881.872	22561
881.999	22603
882.125	22634
882.252	22740
882.378	22748
882.505	22687
882.631	22379
882.757	22284
882.883	22455
883.01	22398
883.136	22379
883.262	22211
883.388	22200
883.514	22371
883.64	22379
883.766	22333
883.892	22097
884.018	22230
884.143	22253
884.269	22409
884.395	22124
884.52	22021
884.646	22105
884.772	21865
884.897	21797
885.023	22006
885.148	22063
885.274	22154
885.399	22116
885.524	22010
885.65	21975
885.775	21987
885.9	21888
886.025	22109
886.15	21930
886.275	21937
886.4	21880
886.525	21911
886.65	21827
886.775	22006
886.9	22109
887.025	22219
887.149	21941
887.274	21682
887.399	21736
887.523	21774
887.648	21781
887.773	21610
887.897	21861
888.021	21667
888.146	21667
888.27	21812
888.395	21679
888.519	21694
888.643	21709
888.767	21709
888.891	21667
889.015	21576
889.139	21561
889.263	21496
889.387	21618
889.511	21671
889.635	21675
889.759	21408
889.883	21439
890.006	21496
890.13	21545
890.254	21523
890.377	21408
890.501	21195
890.624	21218
890.748	21264
890.871	21154
890.995	20990
891.118	20998
891.241	21230
891.364	21066
891.488	21199
891.611	20963
891.734	21157
891.857	21039
891.98	21047
892.103	20933
892.226	21055
892.349	20986
892.471	20902
892.594	20754
892.717	21009
892.839	20796
892.962	20944
893.085	21017
893.207	20914
893.33	20883
893.452	20849
893.575	20979
893.697	20872
893.819	20963
893.941	21268
894.064	20967
894.186	20918
894.308	20872
894.43	21020
894.552	21123
894.674	20937
894.796	20777
894.918	20819
895.04	20918
895.161	21017
895.283	20887
895.405	20944
895.526	20868
895.648	20960
895.769	20891
895.891	20902
896.012	21074
896.134	20887
896.255	21062
896.376	20895
896.498	21005
896.619	21180
896.74	20998
896.861	21028
896.982	21287
897.103	21241
897.224	21291
897.345	21066
897.466	21112
897.587	21055
897.708	21272
897.828	21138
897.949	21070
898.07	20994
898.19	21093
898.311	21169
898.431	21096
898.552	20960
898.672	21165
898.792	21089
898.913	21150
899.033	20986
899.153	20800
899.273	20724
899.393	20902
899.513	20815
899.633	20765
899.753	20792
899.873	20735
899.993	20769
900.113	20686
900.232	20762
900.352	20621
900.472	20556
900.591	20454
900.711	20636
900.83	20537
900.95	20724
901.069	20667
901.189	20568
901.308	20176
901.427	20088
901.546	20214
901.665	20259
901.784	20206
901.904	19997
902.023	19890
902.141	19620
902.26	19719
902.379	19780
902.498	19685
902.617	19533
902.735	19696
902.854	19609
902.973	19594
903.091	19297
903.21	19232
903.328	19236
903.446	19266
903.565	19168
903.683	19091
903.801	19031
903.919	19175
904.038	19088
904.156	18894
904.274	18977
904.392	18825
904.51	18749
904.627	18840
904.745	18962
904.863	19000
904.981	18635
905.098	18574
905.216	18460
905.334	18544
905.451	18559
905.569	18399
905.686	18540
905.803	18445
905.921	18357
906.038	18399
906.155	18277
906.272	18216
906.389	18235
906.506	18095
906.623	18144
906.74	18079
906.857	17882
906.974	17912
907.091	18121
907.208	18110
907.324	18015
907.441	17901
907.557	17836
907.674	17752
907.79	17707
907.907	17684
908.023	17771
908.139	17726
908.256	17649
908.372	17577
908.488	17448
908.604	17379
908.72	17516
908.836	17509
908.952	17322
909.068	17471
909.184	17566
909.3	17406
909.415	17490
909.531	17406
909.647	17083
909.762	17189
909.878	17048
909.993	17200
910.108	17071
910.224	17105
910.339	17010
910.454	16908
910.57	17029
910.685	16869
910.8	17048
910.915	17086
911.03	16858
911.145	16664
911.259	16687
911.374	16611
911.489	16592
911.604	16516
911.718	16291
911.833	16466
911.947	16306
912.062	16280
912.176	16565
912.291	16428
912.405	16409
912.519	16607
912.633	16626
912.748	16485
912.862	16261
912.976	16253
913.09	16173
913.204	16173
913.318	16249
913.431	16272
913.545	16318
913.659	16257
913.772	16200
913.886	16063
914	15994
914.113	16025
914.226	16105
914.34	16169
914.453	15869
914.566	16067
914.68	15949
914.793	15892
914.906	15622
915.019	15572
915.132	15568
915.245	15614
915.358	15629
915.47	15648
915.583	15606
915.696	15557
915.809	15660
915.921	15705
916.034	15500
916.146	15492
916.259	15530
916.371	15511
916.483	15629
916.595	15538
916.708	15511
916.82	15424
916.932	15485
917.044	15359
917.156	15294
917.268	15176
917.38	15264
917.491	15214
917.603	15199
917.715	15241
917.826	15302
917.938	15165
918.049	15047
918.161	15123
918.272	15348
918.384	15195
918.495	15100
918.606	15020
918.717	14910
918.828	15089
918.939	14895
919.05	14864
919.161	14975
919.272	14849
919.383	14811
919.494	15070
919.604	15188
919.715	14982
919.826	14727
919.936	14918
920.047	14845
920.157	14842
920.267	15104
920.378	14918
920.488	14849
920.598	15013
920.708	15184
920.818	15005
920.928	15093
921.038	15237
921.148	15077
921.258	14826
921.368	14754
921.477	14632
921.587	14610
921.697	14560
921.806	14670
921.916	14454
922.025	14332
922.134	14248
922.244	14252
922.353	14305
922.462	14157
922.571	14008
922.68	13944
922.789	13849
922.898	13928
923.007	13826
923.116	13856
923.224	13780
923.333	13852
923.442	13753
923.55	13719
923.659	13643
923.767	13750
923.876	13689
923.984	13750
924.092	13636
924.201	13693
924.309	13544
924.417	13658
924.525	13502
924.633	13514
924.741	14214
924.849	13415
924.956	13453
925.064	13358
925.172	13274
925.279	13270
925.387	13301
925.494	13335
925.602	13373
925.709	13304
925.816	13126
925.924	13247
926.031	13350
926.138	13228
926.245	13270
926.352	13107
926.459	13285
926.566	13285
926.673	13164
926.779	13019
926.886	12951
926.993	12924
927.099	12787
927.206	12772
927.312	12764
927.419	12833
927.525	12734
927.631	12833
927.737	12684
927.843	12650
927.95	12540
928.056	12612
928.162	12540
928.267	12688
928.373	13232
928.479	12745
928.585	12509
928.69	12604
928.796	12635
928.901	12517
929.007	12361
929.112	12502
929.218	12486
929.323	12353
929.428	12311
929.533	12464
929.638	12300
929.743	12262
929.848	12300
929.953	12384
930.058	12197
930.163	12072
930.267	12034
930.372	12144
930.477	11977
930.581	12167
930.685	12030
930.79	11851
930.894	11965
930.998	12003
931.103	11992
931.207	11688
931.311	11611
931.415	11433
931.519	11292
931.623	11208
