Data from test_V78500241_2954.txt Node
Date: Fri Mar 25 16:02:15 CST 2022
User: usil
Spectrometer: V785-0024
Trigger mode: 0
Integration Time (sec): 4.000000E-1
Scans to average: 1
Nonlinearity correction enabled: false
Boxcar width: 0
Storing dark spectrum: false
XAxis mode: Wavelengths
Number of Pixels in Spectrum: 1024
>>>>>Begin Spectral Data<<<<<
801.071	28755
801.214	28763
801.356	28557
801.499	28375
801.641	28466
801.783	28394
801.926	28432
802.068	28432
802.211	28287
802.353	28249
802.496	28211
802.638	28063
802.78	28021
802.923	27991
803.065	27823
803.208	28139
803.35	28177
803.492	28272
803.635	28401
803.777	28192
803.919	28291
804.061	28694
804.204	28428
804.346	28143
804.488	28074
804.63	28249
804.773	28249
804.915	28318
805.057	28512
805.199	28284
805.341	28299
805.483	28466
805.626	28550
805.768	28516
805.91	28618
806.052	28440
806.194	28565
806.336	28580
806.478	28603
806.62	28535
806.762	28573
806.904	28721
807.046	29033
807.188	28774
807.33	28816
807.472	29060
807.614	28915
807.756	29029
807.898	28847
808.04	28809
808.182	28740
808.324	28972
808.465	28767
808.607	29117
808.749	29098
808.891	29395
809.033	29269
809.174	29414
809.316	29147
809.458	29166
809.6	29155
809.741	29258
809.883	29311
810.025	29592
810.166	29493
810.308	29547
810.45	29395
810.591	29509
810.733	29288
810.875	29303
811.016	29113
811.158	29044
811.299	29235
811.441	29444
811.582	29459
811.724	29174
811.865	29178
812.007	29083
812.148	29254
812.29	29242
812.431	29421
812.573	29646
812.714	29733
812.855	29729
812.997	29821
813.138	29996
813.279	29710
813.421	29847
813.562	29737
813.703	29558
813.845	29478
813.986	29227
814.127	29044
814.268	28957
814.41	28915
814.551	28911
814.692	29044
814.833	28942
814.974	29003
815.115	28965
815.256	28824
815.397	28710
815.539	28862
815.68	28778
815.821	28702
815.962	28668
816.103	28816
816.244	28607
816.385	28455
816.526	28508
816.666	28284
816.807	28344
816.948	28386
817.089	28223
817.23	28268
817.371	28272
817.512	28352
817.653	28246
817.793	28166
817.934	28303
818.075	28329
818.216	28234
818.356	28265
818.497	28173
818.638	28074
818.778	28017
818.919	27914
819.06	27998
819.2	28090
819.341	28276
819.481	28284
819.622	28474
819.762	28672
819.903	28500
820.043	28424
820.184	28375
820.324	28432
820.465	28459
820.605	28401
820.746	28379
820.886	28158
821.026	28409
821.167	28284
821.307	28375
821.447	28303
821.588	28207
821.728	28036
821.868	27926
822.008	27781
822.149	27766
822.289	27625
822.429	27644
822.569	27500
822.709	27351
822.849	27382
822.99	27245
823.13	27241
823.27	27203
823.41	27192
823.55	27020
823.69	27020
823.83	27039
823.97	27005
824.11	26899
824.25	26883
824.389	26845
824.529	26914
824.669	26762
824.809	27066
824.949	26990
825.089	26948
825.228	26963
825.368	26807
825.508	26731
825.648	26708
825.787	26743
825.927	26796
826.067	26663
826.206	26773
826.346	26834
826.485	26823
826.625	26743
826.765	26823
826.904	26773
827.044	26488
827.183	26644
827.323	26499
827.462	26613
827.601	26530
827.741	26400
827.88	26408
828.02	26400
828.159	26488
828.298	26549
828.437	26571
828.577	26427
828.716	26575
828.855	26465
828.994	26183
829.134	26107
829.273	26225
829.412	26115
829.551	26054
829.69	26252
829.829	26187
829.968	26237
830.107	26263
830.246	26149
830.385	26161
830.524	26077
830.663	26001
830.802	25837
830.941	25738
831.08	25776
831.219	25795
831.357	25932
831.496	26077
831.635	25879
831.774	25750
831.913	25658
832.051	25487
832.19	25693
832.329	25715
832.467	25563
832.606	25381
832.744	25445
832.883	25457
833.022	25521
833.16	25324
833.299	25575
833.437	25464
833.576	25510
833.714	25460
833.852	25575
833.991	25616
834.129	25586
834.267	25563
834.406	25472
834.544	25438
834.682	25506
834.821	25460
834.959	25799
835.097	25468
835.235	25563
835.373	25605
835.511	25537
835.65	25263
835.788	25301
835.926	25320
836.064	25137
836.202	25232
836.34	25304
836.478	25434
836.615	25312
836.753	25419
836.891	25419
837.029	25343
837.167	25183
837.305	25259
837.443	25194
837.58	25190
837.718	25297
837.856	25152
837.993	25141
838.131	25175
838.269	24989
838.406	25122
838.544	24905
838.681	24802
838.819	24894
838.956	24806
839.094	24703
839.231	24738
839.369	24783
839.506	25050
839.643	24852
839.781	24509
839.918	24536
840.055	24692
840.193	24540
840.33	24467
840.467	24448
840.604	24563
840.742	24840
840.879	24361
841.016	24441
841.153	24372
841.29	24661
841.427	24509
841.564	24490
841.701	24582
841.838	24582
841.975	24467
842.112	24464
842.249	24334
842.385	24467
842.522	24547
842.659	24376
842.796	24384
842.933	24228
843.069	24228
843.206	24308
843.343	24304
843.479	24235
843.616	24281
843.752	24041
843.889	24144
844.025	24213
844.162	24079
844.298	24121
844.435	24083
844.571	24041
844.708	24068
844.844	24201
844.98	24243
845.117	24243
845.253	24060
845.389	23992
845.525	24057
845.661	23916
845.798	23958
845.934	23836
846.07	23832
846.206	23866
846.342	23874
846.478	23794
846.614	23592
846.75	23547
846.886	23448
847.022	23463
847.158	23474
847.294	23642
847.429	23649
847.565	23581
847.701	23828
847.837	23235
847.972	23273
848.108	23414
848.244	23398
848.379	23193
848.515	23083
848.65	23155
848.786	23117
848.921	23185
849.057	23246
849.192	23250
849.328	23185
849.463	23037
849.598	23098
849.734	23220
849.869	23014
850.004	23018
850.14	22854
850.275	22877
850.41	22786
850.545	22923
850.68	22968
850.815	22896
850.95	22946
851.085	22972
851.22	23056
851.355	22984
851.49	22930
851.625	22752
851.76	22923
851.895	22847
852.03	22828
852.165	22866
852.299	22908
852.434	22908
852.569	22908
852.703	22782
852.838	22949
852.973	23006
853.107	22987
853.242	22927
853.376	22786
853.511	22584
853.645	22649
853.78	22778
853.914	22771
854.048	22702
854.183	22812
854.317	22672
854.451	22793
854.585	22588
854.72	22774
854.854	22592
854.988	22679
855.122	22702
855.256	22660
855.39	22790
855.524	22778
855.658	22786
855.792	22721
855.926	22767
856.06	22801
856.194	22774
856.327	22577
856.461	22675
856.595	22660
856.729	22649
856.862	22984
856.996	22698
857.13	22687
857.263	22790
857.397	22869
857.53	22759
857.664	22713
857.797	22850
857.931	22904
858.064	22782
858.197	22790
858.331	22740
858.464	22694
858.597	22618
858.731	22656
858.864	22618
858.997	22618
859.13	22843
859.263	22736
859.396	22805
859.529	22637
859.662	22748
859.795	22755
859.928	22778
860.061	22790
860.194	23010
860.327	22748
860.46	22740
860.592	22778
860.725	22904
860.858	22854
860.99	22843
861.123	22615
861.256	22702
861.388	22725
861.521	23554
861.653	22504
861.786	22447
861.918	22592
862.05	22615
862.183	22459
862.315	22664
862.447	22596
862.58	22630
862.712	22421
862.844	22333
862.976	22588
863.108	22405
863.24	22904
863.372	22405
863.504	22382
863.636	22493
863.768	22402
863.9	22466
864.032	22188
864.164	22363
864.296	22379
864.428	22512
864.559	22531
864.691	22363
864.823	22421
864.954	22440
865.086	22405
865.217	22272
865.349	22154
865.48	22253
865.612	22325
865.743	22489
865.875	22268
866.006	22185
866.137	22329
866.269	22242
866.4	22276
866.531	22249
866.662	22166
866.793	22261
866.924	22188
867.055	22051
867.186	22303
867.317	22234
867.448	22188
867.579	22223
867.71	22090
867.841	22128
867.972	22169
868.103	22147
868.233	22276
868.364	22268
868.495	22459
868.625	22348
868.756	22531
868.886	22348
869.017	22310
869.147	22580
869.278	22493
869.408	22413
869.539	22493
869.669	22497
869.799	22523
869.929	22527
870.06	22478
870.19	22755
870.32	22687
870.45	22885
870.58	22911
870.71	23018
870.84	22938
870.97	22782
871.1	22881
871.23	22980
871.36	22995
871.489	23052
871.619	22999
871.749	23140
871.879	23128
872.008	23083
872.138	23147
872.267	23102
872.397	22809
872.526	22953
872.656	22820
872.785	22896
872.915	23181
873.044	23113
873.173	23003
873.303	23143
873.432	23140
873.561	23121
873.69	23109
873.819	22961
873.948	23071
874.077	23143
874.206	23006
874.335	23121
874.464	23086
874.593	23299
874.722	23208
874.851	23307
874.979	23303
875.108	23372
875.237	23147
875.365	23090
875.494	23242
875.623	23315
875.751	23368
875.88	23402
876.008	23433
876.136	23448
876.265	23585
876.393	23760
876.521	23760
876.65	23821
876.778	23604
876.906	23604
877.034	23665
877.162	23478
877.29	23497
877.418	23653
877.546	23570
877.674	23539
877.802	23581
877.93	23566
878.058	23665
878.185	23520
878.313	23421
878.441	23516
878.568	23391
878.696	23558
878.824	23691
878.951	23707
879.079	23771
879.206	23813
879.333	23878
879.461	23653
879.588	23733
879.715	23836
879.842	23935
879.97	23695
880.097	23326
880.224	23391
880.351	23455
880.478	23478
880.605	23315
880.732	23372
880.859	23699
880.986	23566
881.112	23402
881.239	23322
881.366	23242
881.493	23102
881.619	23079
881.746	23098
881.872	23079
881.999	22927
882.125	22919
882.252	22900
882.378	22980
882.505	23079
882.631	22873
882.757	22664
882.883	22793
883.01	22679
883.136	22713
883.262	22512
883.388	22538
883.514	22649
883.64	22698
883.766	22580
883.892	22405
884.018	22459
884.143	22725
884.269	22675
884.395	22344
884.52	22284
884.646	22409
884.772	22280
884.897	22306
885.023	22284
885.148	22329
885.274	22497
885.399	22432
885.524	22215
885.65	22215
885.775	22261
885.9	22280
886.025	22409
886.15	22394
886.275	22306
886.4	22207
886.525	22234
886.65	22261
886.775	22169
886.9	22394
887.025	22527
887.149	22272
887.274	22120
887.399	22070
887.523	22090
887.648	21964
887.773	21994
887.897	22192
888.021	22207
888.146	21930
888.27	22093
888.395	22093
888.519	21964
888.643	22147
888.767	22093
888.891	21991
889.015	21831
889.139	21835
889.263	21865
889.387	21907
889.511	22082
889.635	22093
889.759	21827
889.883	21865
890.006	21850
890.13	21949
890.254	21793
890.377	21739
890.501	21637
890.624	21622
890.748	21542
890.871	21488
890.995	21408
891.118	21370
891.241	21481
891.364	21393
891.488	21530
891.611	21401
891.734	21332
891.857	21431
891.98	21405
892.103	21466
892.226	21412
892.349	21355
892.471	21214
892.594	21306
892.717	21378
892.839	21272
892.962	21389
893.085	21291
893.207	21256
893.33	21112
893.452	21154
893.575	21268
893.697	21195
893.819	21450
893.941	21450
894.064	21264
894.186	21169
894.308	21058
894.43	21272
894.552	21405
894.674	21420
894.796	21226
894.918	21203
895.04	21192
895.161	21450
895.283	21351
895.405	21142
895.526	21188
895.648	21051
895.769	21256
895.891	21260
896.012	21340
896.134	21272
896.255	21283
896.376	21226
896.498	21195
896.619	21249
896.74	21268
896.861	21291
896.982	21458
897.103	21698
897.224	21473
897.345	21500
897.466	21386
897.587	21526
897.708	21568
897.828	21447
897.949	21359
898.07	21306
898.19	21367
898.311	21496
898.431	21367
898.552	21405
898.672	21530
898.792	21504
898.913	21367
899.033	21367
899.153	21287
899.273	21157
899.393	21222
899.513	21275
899.633	21180
899.753	21313
899.873	21066
899.993	21199
900.113	21119
900.232	21226
900.352	21173
900.472	21066
900.591	20853
900.711	20975
900.83	20933
900.95	21055
901.069	21009
901.189	20834
901.308	20545
901.427	20465
901.546	20526
901.665	20522
901.784	20514
901.904	20332
902.023	20282
902.141	20107
902.26	19951
902.379	20142
902.498	19944
902.617	19932
902.735	20069
902.854	19955
902.973	19928
903.091	19753
903.21	19655
903.328	19658
903.446	19544
903.565	19552
903.683	19411
903.801	19407
903.919	19392
904.038	19483
904.156	19171
904.274	19274
904.392	19160
904.51	19156
904.627	19183
904.745	19316
904.863	19244
904.981	19027
905.098	18989
905.216	18916
905.334	18867
905.451	19004
905.569	18932
905.686	18924
905.803	18798
905.921	18684
906.038	18859
906.155	18795
906.272	18566
906.389	18551
906.506	18422
906.623	18445
906.74	18361
906.857	18403
906.974	18338
907.091	18513
907.208	18513
907.324	18467
907.441	18426
907.557	18178
907.674	18133
907.79	18064
907.907	18041
908.023	18106
908.139	18155
908.256	18053
908.372	17935
908.488	17889
908.604	17882
908.72	17775
908.836	17813
908.952	17809
909.068	17893
909.184	17893
909.3	17790
909.415	17840
909.531	17813
909.647	17604
909.762	17486
909.878	17486
909.993	17459
910.108	17478
910.224	17493
910.339	17490
910.454	17463
910.57	17307
910.685	17178
910.8	17455
910.915	17493
911.03	17303
911.145	17109
911.259	17136
911.374	17022
911.489	16976
911.604	16885
911.718	16938
911.833	16835
911.947	16733
912.062	16744
912.176	16805
912.291	16904
912.405	16786
912.519	17045
912.633	17102
912.748	16824
912.862	16831
912.976	16698
913.09	16519
913.204	16596
913.318	16615
913.431	16759
913.545	16831
913.659	16641
913.772	16531
913.886	16409
914	16432
914.113	16466
914.226	16516
914.34	16512
914.453	16295
914.566	16409
914.68	16436
914.793	16379
914.906	16040
915.019	16051
915.132	16063
915.245	15972
915.358	16032
915.47	15975
915.583	16010
915.696	15991
915.809	16166
915.921	16090
916.034	15918
916.146	15941
916.259	15854
916.371	15937
916.483	15960
916.595	15869
916.708	15793
916.82	15926
916.932	15709
917.044	15739
917.156	15812
917.268	15610
917.38	15663
917.491	15568
917.603	15625
917.715	15751
917.826	15686
917.938	15515
918.049	15500
918.161	15515
918.272	15724
918.384	15580
918.495	15610
918.606	15397
918.717	15329
918.828	15397
918.939	15359
919.05	15237
919.161	15355
919.272	15173
919.383	15283
919.494	15443
919.604	15485
919.715	15332
919.826	15211
919.936	15252
920.047	15370
920.157	15378
920.267	15466
920.378	15192
920.488	15245
920.598	15454
920.708	15576
920.818	15428
920.928	15507
921.038	15587
921.148	15549
921.258	15260
921.368	15173
921.477	15081
921.587	15047
921.697	14963
921.806	15017
921.916	14937
922.025	14781
922.134	14693
922.244	14659
922.353	14663
922.462	14499
922.571	14446
922.68	14298
922.789	14199
922.898	14290
923.007	14278
923.116	14339
923.224	14358
923.333	14290
923.442	14157
923.55	14214
923.659	14130
923.767	14180
923.876	13989
923.984	14069
924.092	13982
924.201	14107
924.309	14005
924.417	14123
924.525	13947
924.633	14046
924.741	14674
924.849	13666
924.956	13830
925.064	13788
925.172	13582
925.279	13658
925.387	13674
925.494	13723
925.602	13727
925.709	13753
925.816	13609
925.924	13605
926.031	13757
926.138	13521
926.245	13613
926.352	13521
926.459	13605
926.566	13708
926.673	13544
926.779	13327
926.886	13449
926.993	13232
927.099	13156
927.206	13156
927.312	13156
927.419	13221
927.525	13255
927.631	13232
927.737	13152
927.843	13008
927.95	12935
928.056	13004
928.162	13046
928.267	13034
928.373	13772
928.479	13072
928.585	12848
928.69	13000
928.796	12954
928.901	12856
929.007	12791
929.112	12928
929.218	12795
929.323	12734
929.428	12726
929.533	12783
929.638	12673
929.743	12776
929.848	12730
929.953	12662
930.058	12642
930.163	12372
930.267	12467
930.372	12585
930.477	12342
930.581	12620
930.685	12418
930.79	12296
930.894	12296
930.998	12232
931.103	12357
931.207	12034
931.311	11988
931.415	11889
931.519	11638
931.623	11638
