Data from test_V78500241_3328.txt Node
Date: Fri Mar 25 16:04:51 CST 2022
User: usil
Spectrometer: V785-0024
Trigger mode: 0
Integration Time (sec): 4.000000E-1
Scans to average: 1
Nonlinearity correction enabled: false
Boxcar width: 0
Storing dark spectrum: false
XAxis mode: Wavelengths
Number of Pixels in Spectrum: 1024
>>>>>Begin Spectral Data<<<<<
801.071	28793
801.214	28797
801.356	28611
801.499	28550
801.641	28287
801.783	28417
801.926	28367
802.068	28272
802.211	28459
802.353	28306
802.496	28116
802.638	28147
802.78	28078
802.923	28067
803.065	28044
803.208	28147
803.35	28097
803.492	28154
803.635	28291
803.777	28188
803.919	28310
804.061	28809
804.204	28485
804.346	28303
804.488	28177
804.63	28371
804.773	28219
804.915	28257
805.057	28424
805.199	28341
805.341	28386
805.483	28504
805.626	28516
805.768	28284
805.91	28478
806.052	28607
806.194	28443
806.336	28508
806.478	28546
806.62	28459
806.762	28599
806.904	28854
807.046	29006
807.188	28904
807.33	28927
807.472	29113
807.614	28774
807.756	28976
807.898	28919
808.04	28740
808.182	28820
808.324	28869
808.465	28828
808.607	29052
808.749	29303
808.891	29311
809.033	29337
809.174	29322
809.316	29398
809.458	29235
809.6	29159
809.741	29197
809.883	29383
810.025	29512
810.166	29467
810.308	29478
810.45	29417
810.591	29440
810.733	29273
810.875	29075
811.016	29220
811.158	29075
811.299	29189
811.441	29356
811.582	29516
811.724	29136
811.865	29079
812.007	29200
812.148	29318
812.29	29280
812.431	29155
812.573	29608
812.714	29661
812.855	29756
812.997	29824
813.138	29927
813.279	29870
813.421	29657
813.562	29611
813.703	29573
813.845	29375
813.986	29121
814.127	29079
814.268	29003
814.41	29003
814.551	29098
814.692	29147
814.833	28752
814.974	28843
815.115	28999
815.256	28869
815.397	28858
815.539	28752
815.68	28881
815.821	28725
815.962	28885
816.103	28668
816.244	28538
816.385	28481
816.526	28432
816.666	28257
816.807	28459
816.948	28063
817.089	28481
817.23	28348
817.371	28284
817.512	28261
817.653	28325
817.793	28226
817.934	28291
818.075	28181
818.216	28367
818.356	28333
818.497	28139
818.638	27873
818.778	28070
818.919	28097
819.06	28029
819.2	28135
819.341	28223
819.481	28185
819.622	28413
819.762	28603
819.903	28451
820.043	28519
820.184	28314
820.324	28322
820.465	28409
820.605	28295
820.746	28344
820.886	28310
821.026	28284
821.167	28329
821.307	28440
821.447	28280
821.588	28147
821.728	28082
821.868	27930
822.008	27732
822.149	27705
822.289	27766
822.429	27526
822.569	27549
822.709	27367
822.849	27241
822.99	27344
823.13	27165
823.27	27116
823.41	27055
823.55	27001
823.69	27081
823.83	27047
823.97	27017
824.11	26807
824.25	26834
824.389	26876
824.529	27028
824.669	26952
824.809	27058
824.949	26910
825.089	26963
825.228	26914
825.368	26712
825.508	26682
825.648	26891
825.787	26838
825.927	26765
826.067	26769
826.206	26663
826.346	26765
826.485	26883
826.625	26724
826.765	26830
826.904	26743
827.044	26655
827.183	26552
827.323	26457
827.462	26579
827.601	26495
827.741	26594
827.88	26480
828.02	26434
828.159	26393
828.298	26655
828.437	26518
828.577	26469
828.716	26632
828.855	26412
828.994	26172
829.134	26157
829.273	26282
829.412	26206
829.551	26161
829.69	26153
829.829	26157
829.968	26218
830.107	26305
830.246	26138
830.385	26233
830.524	26111
830.663	25925
830.802	25966
830.941	25814
831.08	25727
831.219	25814
831.357	25925
831.496	26161
831.635	25738
831.774	25746
831.913	25757
832.051	25655
832.19	25712
832.329	25537
832.467	25415
832.606	25320
832.744	25548
832.883	25426
833.022	25422
833.16	25521
833.299	25529
833.437	25449
833.576	25651
833.714	25620
833.852	25537
833.991	25624
834.129	25620
834.267	25742
834.406	25582
834.544	25613
834.682	25658
834.821	25457
834.959	25780
835.097	25472
835.235	25651
835.373	25571
835.511	25590
835.65	25316
835.788	25221
835.926	25308
836.064	25213
836.202	25179
836.34	25388
836.478	25556
836.615	25335
836.753	25396
836.891	25331
837.029	25422
837.167	25350
837.305	25202
837.443	25308
837.58	25183
837.718	25301
837.856	25175
837.993	25099
838.131	25190
838.269	24947
838.406	25114
838.544	25107
838.681	24795
838.819	24722
838.956	24700
839.094	24890
839.231	24760
839.369	24817
839.506	25107
839.643	24882
839.781	24817
839.918	24604
840.055	24635
840.193	24627
840.33	24566
840.467	24578
840.604	24722
840.742	24848
840.879	24395
841.016	24467
841.153	24380
841.29	24692
841.427	24623
841.564	24544
841.701	24490
841.838	24441
841.975	24357
842.112	24426
842.249	24353
842.385	24346
842.522	24582
842.659	24502
842.796	24266
842.933	24239
843.069	24289
843.206	24304
843.343	24429
843.479	24277
843.616	24251
843.752	24011
843.889	24076
844.025	24148
844.162	24098
844.298	24273
844.435	24163
844.571	24038
844.708	24216
844.844	24110
844.98	24289
845.117	24087
845.253	24117
845.389	23946
845.525	24038
845.661	23874
845.798	23855
845.934	23882
846.07	23821
846.206	23923
846.342	23980
846.478	23847
846.614	23505
846.75	23505
846.886	23577
847.022	23676
847.158	23615
847.294	23459
847.429	23482
847.565	23482
847.701	23836
847.837	23356
847.972	23364
848.108	23280
848.244	23284
848.379	23227
848.515	23261
848.65	23086
848.786	23147
848.921	23018
849.057	23239
849.192	23159
849.328	23258
849.463	23250
849.598	23044
849.734	23090
849.869	23029
850.004	22866
850.14	22908
850.275	22847
850.41	22850
850.545	22828
850.68	22740
850.815	22862
850.95	22908
851.085	23048
851.22	22991
851.355	22999
851.49	22892
851.625	22839
851.76	22843
851.895	22786
852.03	22854
852.165	22862
852.299	23056
852.434	23044
852.569	22972
852.703	22877
852.838	22923
852.973	23014
853.107	23033
853.242	22782
853.376	22759
853.511	22611
853.645	22717
853.78	22847
853.914	22771
854.048	22736
854.183	22767
854.317	22755
854.451	22957
854.585	22683
854.72	22641
854.854	22824
854.988	22706
855.122	22729
855.256	22615
855.39	22733
855.524	22782
855.658	22767
855.792	22656
855.926	22691
856.06	22869
856.194	22843
856.327	22698
856.461	22679
856.595	22706
856.729	22748
856.862	22877
856.996	22843
857.13	22782
857.263	22873
857.397	22691
857.53	22763
857.664	22733
857.797	22755
857.931	22778
858.064	22710
858.197	22797
858.331	22645
858.464	22634
858.597	22577
858.731	22675
858.864	22725
858.997	22778
859.13	22713
859.263	22797
859.396	22683
859.529	22615
859.662	22641
859.795	22542
859.928	22683
860.061	22942
860.194	22908
860.327	22839
860.46	22683
860.592	22869
860.725	22850
860.858	22831
860.99	22778
861.123	22592
861.256	22603
861.388	22797
861.521	23322
861.653	22668
861.786	22489
861.918	22599
862.05	22672
862.183	22596
862.315	22630
862.447	22736
862.58	22653
862.712	22443
862.844	22504
862.976	22489
863.108	22497
863.24	22915
863.372	22447
863.504	22481
863.636	22432
863.768	22569
863.9	22455
864.032	22352
864.164	22325
864.296	22455
864.428	22497
864.559	22550
864.691	22440
864.823	22386
864.954	22375
865.086	22367
865.217	22299
865.349	22181
865.48	22337
865.612	22310
865.743	22451
865.875	22318
866.006	22344
866.137	22303
866.269	22341
866.4	22162
866.531	22223
866.662	22196
866.793	22257
866.924	22196
867.055	22196
867.186	22177
867.317	22211
867.448	22219
867.579	22253
867.71	22162
867.841	22181
867.972	22246
868.103	22223
868.233	22303
868.364	22124
868.495	22291
868.625	22375
868.756	22565
868.886	22436
869.017	22375
869.147	22451
869.278	22588
869.408	22474
869.539	22519
869.669	22428
869.799	22382
869.929	22637
870.06	22535
870.19	22938
870.32	22672
870.45	22694
870.58	22790
870.71	22980
870.84	23041
870.97	22725
871.1	22949
871.23	23048
871.36	22965
871.489	22873
871.619	23018
871.749	23052
871.879	23121
872.008	23212
872.138	23193
872.267	22984
872.397	23014
872.526	22828
872.656	22828
872.785	22911
872.915	23022
873.044	23102
873.173	23200
873.303	23242
873.432	23121
873.561	23231
873.69	23136
873.819	23014
873.948	23109
874.077	23025
874.206	23086
874.335	23098
874.464	23235
874.593	23227
874.722	23288
874.851	23356
874.979	23360
875.108	23376
875.237	23132
875.365	23162
875.494	23273
875.623	23368
875.751	23246
875.88	23414
876.008	23486
876.136	23429
876.265	23634
876.393	23935
876.521	23752
876.65	23764
876.778	23676
876.906	23646
877.034	23585
877.162	23646
877.29	23642
877.418	23695
877.546	23687
877.674	23558
877.802	23737
877.93	23611
878.058	23608
878.185	23528
878.313	23577
878.441	23638
878.568	23383
878.696	23558
878.824	23661
878.951	23687
879.079	23802
879.206	23851
879.333	23790
879.461	23661
879.588	23729
879.715	23847
879.842	23980
879.97	23638
880.097	23433
880.224	23520
880.351	23459
880.478	23455
880.605	23349
880.732	23520
880.859	23608
880.986	23395
881.112	23402
881.239	23315
881.366	23166
881.493	23067
881.619	23018
881.746	23094
881.872	23006
881.999	22965
882.125	22980
882.252	22938
882.378	22999
882.505	23181
882.631	22835
882.757	22653
882.883	22793
883.01	22653
883.136	22599
883.262	22546
883.388	22500
883.514	22607
883.64	22691
883.766	22512
883.892	22462
884.018	22466
884.143	22538
884.269	22653
884.395	22318
884.52	22169
884.646	22310
884.772	22226
884.897	22192
885.023	22280
885.148	22413
885.274	22417
885.399	22398
885.524	22276
885.65	22291
885.775	22360
885.9	22246
886.025	22470
886.15	22356
886.275	22253
886.4	22204
886.525	22265
886.65	22196
886.775	22150
886.9	22447
887.025	22398
887.149	22238
887.274	22010
887.399	21922
887.523	22101
887.648	22109
887.773	21960
887.897	22173
888.021	22112
888.146	22025
888.27	22090
888.395	22147
888.519	22158
888.643	22093
888.767	22029
888.891	21979
889.015	21930
889.139	21873
889.263	21827
889.387	21968
889.511	21979
889.635	21956
889.759	21812
889.883	21892
890.006	21956
890.13	21983
890.254	21743
890.377	21808
890.501	21701
890.624	21603
890.748	21720
890.871	21428
890.995	21332
891.118	21405
891.241	21291
891.364	21386
891.488	21382
891.611	21439
891.734	21458
891.857	21382
891.98	21355
892.103	21397
892.226	21382
892.349	21249
892.471	21146
892.594	21241
892.717	21287
892.839	21252
892.962	21207
893.085	21321
893.207	21317
893.33	21252
893.452	21157
893.575	21245
893.697	21287
893.819	21428
893.941	21454
894.064	21496
894.186	21188
894.308	21241
894.43	21340
894.552	21344
894.674	21401
894.796	21135
894.918	21329
895.04	21279
895.161	21268
895.283	21272
895.405	21116
895.526	21237
895.648	21154
895.769	21218
895.891	21317
896.012	21370
896.134	21154
896.255	21291
896.376	21203
896.498	21264
896.619	21268
896.74	21245
896.861	21226
896.982	21625
897.103	21671
897.224	21580
897.345	21454
897.466	21332
897.587	21355
897.708	21568
897.828	21481
897.949	21401
898.07	21157
898.19	21511
898.311	21519
898.431	21363
898.552	21428
898.672	21488
898.792	21561
898.913	21492
899.033	21336
899.153	21321
899.273	21138
899.393	21142
899.513	21218
899.633	21001
899.753	21146
899.873	21100
899.993	21249
900.113	21077
900.232	21176
900.352	21055
900.472	21100
900.591	20883
900.711	20971
900.83	20918
900.95	21017
901.069	21066
901.189	20785
901.308	20651
901.427	20415
901.546	20541
901.665	20568
901.784	20560
901.904	20393
902.023	20309
902.141	20084
902.26	19986
902.379	20202
902.498	20024
902.617	19986
902.735	19898
902.854	19932
902.973	20027
903.091	19708
903.21	19708
903.328	19788
903.446	19521
903.565	19460
903.683	19441
903.801	19419
903.919	19373
904.038	19441
904.156	19259
904.274	19396
904.392	19187
904.51	19175
904.627	19335
904.745	19236
904.863	19244
904.981	19027
905.098	18932
905.216	18905
905.334	18973
905.451	18932
905.569	18920
905.686	18996
905.803	18894
905.921	18585
906.038	18825
906.155	18760
906.272	18620
906.389	18631
906.506	18475
906.623	18521
906.74	18433
906.857	18357
906.974	18289
907.091	18555
907.208	18528
907.324	18475
907.441	18254
907.557	18167
907.674	18190
907.79	18117
907.907	18129
908.023	18190
908.139	18239
908.256	18007
908.372	17958
908.488	18038
908.604	17863
908.72	17813
908.836	17878
908.952	17813
909.068	17836
909.184	17908
909.3	17920
909.415	17832
909.531	17874
909.647	17570
909.762	17585
909.878	17429
909.993	17543
910.108	17562
910.224	17634
910.339	17474
910.454	17383
910.57	17402
910.685	17273
910.8	17570
910.915	17463
911.03	17372
911.145	17113
911.259	17151
911.374	17189
911.489	17045
911.604	16999
911.718	16793
911.833	16854
911.947	16733
912.062	16691
912.176	16923
912.291	16892
912.405	16911
912.519	17052
912.633	17132
912.748	16938
912.862	16809
912.976	16649
913.09	16550
913.204	16668
913.318	16740
913.431	16767
913.545	16752
913.659	16778
913.772	16740
913.886	16508
914	16325
914.113	16554
914.226	16672
914.34	16519
914.453	16314
914.566	16554
914.68	16470
914.793	16238
914.906	16185
915.019	16059
915.132	15983
915.245	15994
915.358	16036
915.47	16090
915.583	15979
915.696	16105
915.809	16177
915.921	16150
916.034	15975
916.146	15861
916.259	15930
916.371	15979
916.483	16040
916.595	15812
916.708	15823
916.82	15884
916.932	15827
917.044	15819
917.156	15880
917.268	15656
917.38	15667
917.491	15587
917.603	15705
917.715	15667
917.826	15819
917.938	15660
918.049	15488
918.161	15660
918.272	15709
918.384	15701
918.495	15473
918.606	15378
918.717	15374
918.828	15473
918.939	15462
919.05	15287
919.161	15321
919.272	15275
919.383	15275
919.494	15473
919.604	15477
919.715	15351
919.826	15317
919.936	15222
920.047	15351
920.157	15340
920.267	15549
920.378	15298
920.488	15287
920.598	15545
920.708	15675
920.818	15542
920.928	15515
921.038	15580
921.148	15534
921.258	15256
921.368	15184
921.477	15001
921.587	15051
921.697	14918
921.806	15017
921.916	14937
922.025	14838
922.134	14758
922.244	14632
922.353	14678
922.462	14522
922.571	14530
922.68	14313
922.789	14278
922.898	14355
923.007	14206
923.116	14332
923.224	14256
923.333	14339
923.442	14206
923.55	14161
923.659	14149
923.767	14134
923.876	14092
923.984	14199
924.092	14081
924.201	14107
924.309	14024
924.417	14035
924.525	14008
924.633	13970
924.741	14868
924.849	13750
924.956	13803
925.064	13769
925.172	13620
925.279	13689
925.387	13723
925.494	13723
925.602	13811
925.709	13757
925.816	13590
925.924	13677
926.031	13734
926.138	13636
926.245	13655
926.352	13552
926.459	13685
926.566	13772
926.673	13605
926.779	13430
926.886	13392
926.993	13312
927.099	13145
927.206	13160
927.312	13133
927.419	13198
927.525	13221
927.631	13232
927.737	13107
927.843	13061
927.95	12901
928.056	13103
928.162	13057
928.267	13110
928.373	13666
928.479	13091
928.585	12894
928.69	13019
928.796	13000
928.901	12958
929.007	12745
929.112	12768
929.218	12875
929.323	12821
929.428	12768
929.533	12817
929.638	12566
929.743	12658
929.848	12662
929.953	12662
930.058	12585
930.163	12399
930.267	12502
930.372	12544
930.477	12376
930.581	12650
930.685	12521
930.79	12213
930.894	12384
930.998	12281
931.103	12426
931.207	12019
931.311	11988
931.415	11901
931.519	11707
931.623	11676
