Data from test_V78500241_3197.txt Node
Date: Fri Mar 25 16:03:56 CST 2022
User: usil
Spectrometer: V785-0024
Trigger mode: 0
Integration Time (sec): 4.000000E-1
Scans to average: 1
Nonlinearity correction enabled: false
Boxcar width: 0
Storing dark spectrum: false
XAxis mode: Wavelengths
Number of Pixels in Spectrum: 1024
>>>>>Begin Spectral Data<<<<<
801.071	28569
801.214	28409
801.356	28356
801.499	28265
801.641	28135
801.783	28154
801.926	28242
802.068	28090
802.211	27953
802.353	28090
802.496	27964
802.638	27888
802.78	27827
802.923	27888
803.065	27736
803.208	27736
803.35	27816
803.492	27937
803.635	28040
803.777	27903
803.919	28048
804.061	28443
804.204	28158
804.346	27994
804.488	27949
804.63	27934
804.773	28029
804.915	28238
805.057	28405
805.199	27956
805.341	28284
805.483	28196
805.626	28143
805.768	28223
805.91	28310
806.052	28303
806.194	28162
806.336	28474
806.478	28181
806.62	28230
806.762	28398
806.904	28622
807.046	28900
807.188	28755
807.33	28729
807.472	28839
807.614	28531
807.756	28546
807.898	28481
808.04	28641
808.182	28367
808.324	28489
808.465	28554
808.607	28729
808.749	28877
808.891	28900
809.033	28968
809.174	28873
809.316	28999
809.458	28980
809.6	28744
809.741	28904
809.883	28881
810.025	29185
810.166	29151
810.308	29258
810.45	29159
810.591	29098
810.733	28999
810.875	28888
811.016	28930
811.158	28828
811.299	28999
811.441	29094
811.582	29033
811.724	28919
811.865	28755
812.007	28980
812.148	28934
812.29	29025
812.431	29060
812.573	29315
812.714	29368
812.855	29395
812.997	29474
813.138	29680
813.279	29429
813.421	29505
813.562	29383
813.703	29208
813.845	29128
813.986	28942
814.127	28729
814.268	28797
814.41	28679
814.551	28607
814.692	28634
814.833	28637
814.974	28599
815.115	28679
815.256	28618
815.397	28531
815.539	28470
815.68	28405
815.821	28417
815.962	28424
816.103	28481
816.244	28341
816.385	28363
816.526	28211
816.666	28181
816.807	27956
816.948	28055
817.089	28112
817.23	28032
817.371	28067
817.512	27930
817.653	27911
817.793	27884
817.934	27987
818.075	27994
818.216	27941
818.356	27778
818.497	27865
818.638	27629
818.778	27652
818.919	27679
819.06	27808
819.2	27918
819.341	28059
819.481	27937
819.622	28013
819.762	28363
819.903	28162
820.043	28147
820.184	28097
820.324	28162
820.465	28215
820.605	28101
820.746	28109
820.886	27975
821.026	28036
821.167	28006
821.307	28086
821.447	27968
821.588	27838
821.728	27835
821.868	27561
822.008	27302
822.149	27488
822.289	27336
822.429	27157
822.569	27104
822.709	27165
822.849	26910
822.99	26971
823.13	26906
823.27	26842
823.41	26758
823.55	26625
823.69	26769
823.83	26762
823.97	26785
824.11	26629
824.25	26594
824.389	26526
824.529	26743
824.669	26682
824.809	26754
824.949	26674
825.089	26697
825.228	26727
825.368	26617
825.508	26461
825.648	26453
825.787	26613
825.927	26564
826.067	26511
826.206	26507
826.346	26461
826.485	26507
826.625	26423
826.765	26583
826.904	26495
827.044	26305
827.183	26259
827.323	26267
827.462	26191
827.601	26347
827.741	26183
827.88	26237
828.02	26054
828.159	26278
828.298	26370
828.437	26336
828.577	26008
828.716	26355
828.855	26142
828.994	25879
829.134	25955
829.273	25894
829.412	25837
829.551	25951
829.69	25887
829.829	26069
829.968	25936
830.107	25959
830.246	26035
830.385	25963
830.524	25772
830.663	25719
830.802	25620
830.941	25632
831.08	25434
831.219	25632
831.357	25578
831.496	25635
831.635	25586
831.774	25301
831.913	25449
832.051	25282
832.19	25274
832.329	25358
832.467	25244
832.606	25175
832.744	25099
832.883	25164
833.022	25133
833.16	25304
833.299	25148
833.437	25266
833.576	25324
833.714	25225
833.852	25225
833.991	25457
834.129	25187
834.267	25354
834.406	25327
834.544	25202
834.682	25266
834.821	25141
834.959	25407
835.097	25168
835.235	25278
835.373	25278
835.511	25122
835.65	24996
835.788	25027
835.926	25038
836.064	24958
836.202	24924
836.34	25080
836.478	25255
836.615	25091
836.753	24916
836.891	25221
837.029	25061
837.167	24932
837.305	24977
837.443	24981
837.58	24875
837.718	24837
837.856	24825
837.993	24844
838.131	24901
838.269	24692
838.406	24707
838.544	24658
838.681	24475
838.819	24532
838.956	24418
839.094	24464
839.231	24494
839.369	24566
839.506	24620
839.643	24585
839.781	24460
839.918	24270
840.055	24399
840.193	24262
840.33	24251
840.467	24258
840.604	24418
840.742	24509
840.879	24026
841.016	24213
841.153	24178
841.29	24350
841.427	24220
841.564	24243
841.701	24174
841.838	24296
841.975	24262
842.112	24186
842.249	24049
842.385	24049
842.522	24289
842.659	24072
842.796	24068
842.933	24030
843.069	23931
843.206	24026
843.343	24079
843.479	23980
843.616	23980
843.752	23733
843.889	23771
844.025	23893
844.162	23790
844.298	23878
844.435	23809
844.571	23767
844.708	23737
844.844	24022
844.98	23931
845.117	24030
845.253	23745
845.389	23729
845.525	23783
845.661	23783
845.798	23543
845.934	23547
846.07	23520
846.206	23566
846.342	23562
846.478	23619
846.614	23376
846.75	23193
846.886	23197
847.022	23239
847.158	23296
847.294	23246
847.429	23231
847.565	23121
847.701	23558
847.837	23143
847.972	23022
848.108	22938
848.244	23052
848.379	22847
848.515	22877
848.65	22816
848.786	22820
848.921	22877
849.057	22896
849.192	22957
849.328	22896
849.463	22877
849.598	22786
849.734	22672
849.869	22801
850.004	22668
850.14	22512
850.275	22599
850.41	22402
850.545	22615
850.68	22546
850.815	22599
850.95	22440
851.085	22660
851.22	22733
851.355	22691
851.49	22538
851.625	22637
851.76	22561
851.895	22516
852.03	22550
852.165	22512
852.299	22656
852.434	22634
852.569	22500
852.703	22687
852.838	22653
852.973	22790
853.107	22793
853.242	22565
853.376	22474
853.511	22169
853.645	22341
853.78	22531
853.914	22527
854.048	22413
854.183	22356
854.317	22512
854.451	22557
854.585	22428
854.72	22398
854.854	22561
854.988	22386
855.122	22447
855.256	22188
855.39	22303
855.524	22527
855.658	22413
855.792	22413
855.926	22341
856.06	22474
856.194	22474
856.327	22523
856.461	22379
856.595	22421
856.729	22424
856.862	22565
856.996	22417
857.13	22527
857.263	22656
857.397	22470
857.53	22432
857.664	22344
857.797	22470
857.931	22557
858.064	22424
858.197	22470
858.331	22417
858.464	22402
858.597	22333
858.731	22318
858.864	22344
858.997	22367
859.13	22447
859.263	22432
859.396	22470
859.529	22402
859.662	22402
859.795	22341
859.928	22413
860.061	22561
860.194	22523
860.327	22413
860.46	22443
860.592	22546
860.725	22577
860.858	22573
860.99	22470
861.123	22363
861.256	22455
861.388	22344
861.521	23117
861.653	22242
861.786	22215
861.918	22230
862.05	22253
862.183	22310
862.315	22371
862.447	22519
862.58	22375
862.712	22131
862.844	22101
862.976	22200
863.108	22303
863.24	22561
863.372	22150
863.504	22177
863.636	22177
863.768	22185
863.9	22246
864.032	22010
864.164	22166
864.296	22135
864.428	22223
864.559	22124
864.691	22215
864.823	22249
864.954	22063
865.086	22173
865.217	22105
865.349	21816
865.48	21895
865.612	22105
865.743	22143
865.875	21979
866.006	21960
866.137	22029
866.269	21907
866.4	21991
866.531	21991
866.662	21930
866.793	22006
866.924	21865
867.055	22063
867.186	22040
867.317	21907
867.448	21922
867.579	21918
867.71	21915
867.841	21884
867.972	21808
868.103	21937
868.233	21907
868.364	21949
868.495	22044
868.625	22196
868.756	22325
868.886	22051
869.017	22215
869.147	22352
869.278	22272
869.408	22158
869.539	22116
869.669	22295
869.799	22272
869.929	22234
870.06	22234
870.19	22577
870.32	22531
870.45	22466
870.58	22535
870.71	22710
870.84	22721
870.97	22584
871.1	22550
871.23	22793
871.36	22725
871.489	22778
871.619	22755
871.749	22710
871.879	22679
872.008	22949
872.138	22976
872.267	22702
872.397	22683
872.526	22672
872.656	22637
872.785	22565
872.915	22736
873.044	22927
873.173	22736
873.303	22812
873.432	22881
873.561	22847
873.69	22881
873.819	22877
873.948	22908
874.077	22915
874.206	22854
874.335	22752
874.464	22869
874.593	23067
874.722	23075
874.851	23044
874.979	23060
875.108	23178
875.237	22885
875.365	22866
875.494	22930
875.623	23216
875.751	23067
875.88	23022
876.008	23079
876.136	23326
876.265	23474
876.393	23474
876.521	23448
876.65	23570
876.778	23459
876.906	23402
877.034	23402
877.162	23429
877.29	23277
877.418	23417
877.546	23337
877.674	23391
877.802	23311
877.93	23474
878.058	23303
878.185	23235
878.313	23383
878.441	23360
878.568	23216
878.696	23303
878.824	23509
878.951	23440
879.079	23554
879.206	23684
879.333	23452
879.461	23326
879.588	23360
879.715	23585
879.842	23433
879.97	23433
880.097	23220
880.224	23159
880.351	23166
880.478	23204
880.605	23067
880.732	23258
880.859	23391
880.986	23041
881.112	23254
881.239	23151
881.366	23029
881.493	22812
881.619	22755
881.746	22923
881.872	22900
881.999	22820
882.125	22790
882.252	22797
882.378	22721
882.505	22809
882.631	22565
882.757	22519
882.883	22489
883.01	22489
883.136	22360
883.262	22280
883.388	22200
883.514	22481
883.64	22325
883.766	22386
883.892	22139
884.018	22242
884.143	22421
884.269	22417
884.395	22112
884.52	21994
884.646	22032
884.772	22059
884.897	21983
885.023	22097
885.148	22063
885.274	22382
885.399	22101
885.524	22021
885.65	21994
885.775	22002
885.9	21953
886.025	22226
886.15	22059
886.275	21941
886.4	21911
886.525	22017
886.65	21915
886.775	21911
886.9	22150
887.025	22059
887.149	22090
887.274	21850
887.399	21812
887.523	21865
887.648	21797
887.773	21747
887.897	21876
888.021	21781
888.146	21728
888.27	21884
888.395	21850
888.519	21876
888.643	21774
888.767	21838
888.891	21690
889.015	21622
889.139	21644
889.263	21610
889.387	21568
889.511	21789
889.635	21713
889.759	21660
889.883	21595
890.006	21591
890.13	21644
890.254	21450
890.377	21526
890.501	21370
890.624	21367
890.748	21389
890.871	21222
890.995	21100
891.118	21138
891.241	21268
891.364	21154
891.488	21241
891.611	21195
891.734	21058
891.857	21226
891.98	21230
892.103	21287
892.226	21188
892.349	21127
892.471	21013
892.594	21154
892.717	21066
892.839	21108
892.962	21047
893.085	21032
893.207	20990
893.33	21028
893.452	21058
893.575	21108
893.697	21032
893.819	21074
893.941	21241
894.064	21241
894.186	21017
894.308	21024
894.43	21165
894.552	21116
894.674	21241
894.796	20986
894.918	21001
895.04	21085
895.161	21070
895.283	21188
895.405	20906
895.526	21020
895.648	21032
895.769	21127
895.891	20967
896.012	21077
896.134	21176
896.255	21009
896.376	20979
896.498	20929
896.619	21108
896.74	21058
896.861	21119
896.982	21382
897.103	21439
897.224	21302
897.345	21252
897.466	21279
897.587	21252
897.708	21348
897.828	21439
897.949	21332
898.07	21062
898.19	21214
898.311	21332
898.431	21275
898.552	21332
898.672	21226
898.792	21207
898.913	21283
899.033	21146
899.153	20963
899.273	20933
899.393	20952
899.513	20956
899.633	21039
899.753	20918
899.873	20857
899.993	20963
900.113	20845
900.232	20948
900.352	20910
900.472	20929
900.591	20697
900.711	20750
900.83	20739
900.95	20826
901.069	20845
901.189	20613
901.308	20431
901.427	20374
901.546	20377
901.665	20309
901.784	20317
901.904	20214
902.023	20195
902.141	19913
902.26	19784
902.379	19974
902.498	19921
902.617	19879
902.735	19879
902.854	19833
902.973	19769
903.091	19453
903.21	19453
903.328	19495
903.446	19483
903.565	19213
903.683	19225
903.801	19194
903.919	19297
904.038	19168
904.156	19103
904.274	19168
904.392	19114
904.51	18993
904.627	18875
904.745	19084
904.863	19088
904.981	18928
905.098	18681
905.216	18749
905.334	18730
905.451	18684
905.569	18753
905.686	18772
905.803	18722
905.921	18445
906.038	18608
906.155	18574
906.272	18399
906.389	18350
906.506	18235
906.623	18171
906.74	18311
906.857	18072
906.974	18125
907.091	18319
907.208	18388
907.324	18178
907.441	18136
907.557	18003
907.674	18019
907.79	17824
907.907	17961
908.023	17901
908.139	17999
908.256	17935
908.372	17821
908.488	17843
908.604	17691
908.72	17623
908.836	17657
908.952	17741
909.068	17722
909.184	17718
909.3	17760
909.415	17764
909.531	17581
909.647	17463
909.762	17322
909.878	17292
909.993	17410
910.108	17258
910.224	17277
910.339	17254
910.454	17185
910.57	17212
910.685	17174
910.8	17315
910.915	17334
911.03	17220
911.145	16965
911.259	16938
911.374	16858
911.489	16858
911.604	16790
911.718	16672
911.833	16641
911.947	16630
912.062	16580
912.176	16668
912.291	16721
912.405	16736
912.519	16938
912.633	16831
912.748	16744
912.862	16641
912.976	16451
913.09	16398
913.204	16436
913.318	16417
913.431	16599
913.545	16573
913.659	16573
913.772	16417
913.886	16280
914	16196
914.113	16428
914.226	16386
914.34	16344
914.453	16291
914.566	16310
914.68	16223
914.793	16204
914.906	15918
915.019	15945
915.132	15816
915.245	15854
915.358	15930
915.47	15804
915.583	15861
915.696	15865
915.809	15918
915.921	15930
916.034	15804
916.146	15698
916.259	15747
916.371	15766
916.483	15759
916.595	15709
916.708	15774
916.82	15682
916.932	15686
917.044	15698
917.156	15580
917.268	15523
917.38	15606
917.491	15416
917.603	15473
917.715	15496
917.826	15526
917.938	15363
918.049	15321
918.161	15344
918.272	15564
918.384	15542
918.495	15416
918.606	15203
918.717	15241
918.828	15264
918.939	15169
919.05	15013
919.161	15135
919.272	14933
919.383	15070
919.494	15203
919.604	15386
919.715	15218
919.826	15085
919.936	15119
920.047	15222
920.157	15192
920.267	15389
920.378	15169
920.488	15150
920.598	15408
920.708	15458
920.818	15245
920.928	15245
921.038	15424
921.148	15447
921.258	15104
921.368	15055
921.477	14956
921.587	14872
921.697	14716
921.806	15020
921.916	14754
922.025	14651
922.134	14579
922.244	14469
922.353	14457
922.462	14507
922.571	14343
922.68	14191
922.789	14214
922.898	14183
923.007	14077
923.116	14168
923.224	14084
923.333	14176
923.442	14035
923.55	13928
923.659	14020
923.767	14119
923.876	13875
923.984	14043
924.092	13856
924.201	13959
924.309	13909
924.417	13951
924.525	13753
924.633	13803
924.741	14640
924.849	13472
924.956	13811
925.064	13666
925.172	13563
925.279	13639
925.387	13571
925.494	13533
925.602	13605
925.709	13582
925.816	13499
925.924	13483
926.031	13643
926.138	13495
926.245	13616
926.352	13388
926.459	13529
926.566	13499
926.673	13415
926.779	13209
926.886	13266
926.993	13103
927.099	13080
927.206	13141
927.312	12973
927.419	13190
927.525	13023
927.631	13069
927.737	12920
927.843	12920
927.95	12882
928.056	12894
928.162	12989
928.267	13019
928.373	13407
928.479	12985
928.585	12700
928.69	12939
928.796	12920
928.901	12764
929.007	12620
929.112	12772
929.218	12764
929.323	12726
929.428	12574
929.533	12738
929.638	12506
929.743	12578
929.848	12639
929.953	12582
930.058	12445
930.163	12353
930.267	12289
930.372	12384
930.477	12190
930.581	12471
930.685	12315
930.79	12148
930.894	12186
930.998	12163
931.103	12205
931.207	11916
931.311	11843
931.415	11821
931.519	11547
931.623	11524
