Data from test_V78500241_2827.txt Node
Date: Fri Mar 25 16:01:23 CST 2022
User: usil
Spectrometer: V785-0024
Trigger mode: 0
Integration Time (sec): 4.000000E-1
Scans to average: 1
Nonlinearity correction enabled: false
Boxcar width: 0
Storing dark spectrum: false
XAxis mode: Wavelengths
Number of Pixels in Spectrum: 1024
>>>>>Begin Spectral Data<<<<<
801.071	29105
801.214	29044
801.356	28847
801.499	28706
801.641	28653
801.783	28691
801.926	28702
802.068	28649
802.211	28649
802.353	28641
802.496	28493
802.638	28360
802.78	28325
802.923	28352
803.065	28394
803.208	28265
803.35	28409
803.492	28603
803.635	28535
803.777	28428
803.919	28615
804.061	28839
804.204	28656
804.346	28641
804.488	28561
804.63	28653
804.773	28557
804.915	28660
805.057	28854
805.199	28713
805.341	28679
805.483	28816
805.626	28664
805.768	28679
805.91	28923
806.052	28888
806.194	28649
806.336	29090
806.478	28668
806.62	28816
806.762	28896
806.904	29132
807.046	29318
807.188	29299
807.33	29330
807.472	29227
807.614	29136
807.756	29227
807.898	29102
808.04	29025
808.182	29227
808.324	29140
808.465	29250
808.607	29440
808.749	29581
808.891	29501
809.033	29680
809.174	29497
809.316	29486
809.458	29630
809.6	29531
809.741	29573
809.883	29566
810.025	29862
810.166	29737
810.308	29847
810.45	29687
810.591	29783
810.733	29642
810.875	29627
811.016	29383
811.158	29387
811.299	29748
811.441	29668
811.582	29695
811.724	29509
811.865	29421
812.007	29509
812.148	29566
812.29	29478
812.431	29718
812.573	29882
812.714	29996
812.855	29973
812.997	30117
813.138	30273
813.279	30102
813.421	30106
813.562	29923
813.703	29882
813.845	29794
813.986	29562
814.127	29516
814.268	29326
814.41	29220
814.551	29117
814.692	29193
814.833	29231
814.974	29265
815.115	29185
815.256	29121
815.397	29044
815.539	29181
815.68	29090
815.821	29018
815.962	29083
816.103	29052
816.244	29105
816.385	28968
816.526	28877
816.666	28630
816.807	28542
816.948	28626
817.089	28683
817.23	28497
817.371	28504
817.512	28424
817.653	28615
817.793	28698
817.934	28428
818.075	28721
818.216	28630
818.356	28535
818.497	28561
818.638	28325
818.778	28432
818.919	28375
819.06	28310
819.2	28459
819.341	28664
819.481	28512
819.622	28736
819.762	28866
819.903	28862
820.043	28835
820.184	28736
820.324	28569
820.465	28778
820.605	28637
820.746	28698
820.886	28645
821.026	28694
821.167	28755
821.307	28694
821.447	28584
821.588	28596
821.728	28341
821.868	28192
822.008	28185
822.149	28166
822.289	28200
822.429	27850
822.569	27774
822.709	27812
822.849	27526
822.99	27610
823.13	27675
823.27	27431
823.41	27355
823.55	27477
823.69	27424
823.83	27568
823.97	27424
824.11	27298
824.25	27203
824.389	27207
824.529	27275
824.669	27230
824.809	27348
824.949	27321
825.089	27393
825.228	27272
825.368	27119
825.508	27184
825.648	26937
825.787	26975
825.927	27173
826.067	27043
826.206	27123
826.346	27119
826.485	27173
826.625	27188
826.765	27157
826.904	27192
827.044	26883
827.183	26891
827.323	26811
827.462	26899
827.601	26739
827.741	26940
827.88	26921
828.02	26769
828.159	26880
828.298	26811
828.437	26891
828.577	26864
828.716	27047
828.855	26705
828.994	26507
829.134	26453
829.273	26686
829.412	26499
829.551	26522
829.69	26522
829.829	26613
829.968	26621
830.107	26613
830.246	26507
830.385	26499
830.524	26503
830.663	26172
830.802	26248
830.941	26130
831.08	26081
831.219	26244
831.357	26256
831.496	26381
831.635	26077
831.774	26199
831.913	25921
832.051	25795
832.19	25974
832.329	26016
832.467	25906
832.606	25860
832.744	25784
832.883	25704
833.022	25761
833.16	25841
833.299	25852
833.437	25795
833.576	25887
833.714	25989
833.852	25947
833.991	25944
834.129	26039
834.267	26008
834.406	25818
834.544	25966
834.682	25860
834.821	25845
834.959	26046
835.097	25807
835.235	25814
835.373	25898
835.511	25822
835.65	25738
835.788	25578
835.926	25552
836.064	25464
836.202	25339
836.34	25704
836.478	25689
836.615	25651
836.753	25628
836.891	25727
837.029	25696
837.167	25578
837.305	25609
837.443	25441
837.58	25430
837.718	25601
837.856	25510
837.993	25449
838.131	25430
838.269	25411
838.406	25407
838.544	25499
838.681	25236
838.819	25183
838.956	24897
839.094	24905
839.231	24951
839.369	25114
839.506	25400
839.643	25148
839.781	25046
839.918	24882
840.055	24996
840.193	24890
840.33	24817
840.467	24977
840.604	24829
840.742	25118
840.879	24688
841.016	24837
841.153	24722
841.29	24810
841.427	24821
841.564	24772
841.701	24935
841.838	24871
841.975	24753
842.112	24856
842.249	24730
842.385	24635
842.522	24802
842.659	24722
842.796	24460
842.933	24612
843.069	24612
843.206	24513
843.343	24734
843.479	24551
843.616	24479
843.752	24471
843.889	24445
844.025	24540
844.162	24376
844.298	24490
844.435	24445
844.571	24251
844.708	24228
844.844	24452
844.98	24490
845.117	24422
845.253	24369
845.389	24308
845.525	24327
845.661	24216
845.798	24034
845.934	24186
846.07	24209
846.206	24243
846.342	24216
846.478	24152
846.614	23977
846.75	23809
846.886	23851
847.022	23946
847.158	23977
847.294	23840
847.429	23878
847.565	23745
847.701	24114
847.837	23604
847.972	23554
848.108	23634
848.244	23653
848.379	23512
848.515	23478
848.65	23436
848.786	23524
848.921	23414
849.057	23497
849.192	23554
849.328	23505
849.463	23372
849.598	23239
849.734	23433
849.869	23235
850.004	23208
850.14	23159
850.275	23166
850.41	23090
850.545	23102
850.68	23197
850.815	23193
850.95	23197
851.085	23345
851.22	23341
851.355	23102
851.49	23109
851.625	23105
851.76	23178
851.895	23052
852.03	23029
852.165	23044
852.299	23159
852.434	23178
852.569	23132
852.703	23140
852.838	23147
852.973	23318
853.107	23189
853.242	22961
853.376	23086
853.511	22858
853.645	22991
853.78	23117
853.914	22930
854.048	22961
854.183	23006
854.317	22980
854.451	23140
854.585	23109
854.72	22991
854.854	23105
854.988	22892
855.122	22961
855.256	22961
855.39	22900
855.524	23041
855.658	22991
855.792	22995
855.926	23033
856.06	23159
856.194	23170
856.327	22984
856.461	22949
856.595	22984
856.729	23048
856.862	23044
856.996	22961
857.13	22999
857.263	23185
857.397	23162
857.53	22911
857.664	22946
857.797	23086
857.931	23075
858.064	23098
858.197	23056
858.331	22919
858.464	22915
858.597	22816
858.731	23124
858.864	22953
858.997	22942
859.13	23185
859.263	22934
859.396	23006
859.529	23029
859.662	22972
859.795	22900
859.928	23010
860.061	23109
860.194	23159
860.327	23086
860.46	23052
860.592	23056
860.725	23189
860.858	23147
860.99	23056
861.123	22961
861.256	22915
861.388	23044
861.521	23619
861.653	22820
861.786	22729
861.918	22839
862.05	22805
862.183	22991
862.315	22949
862.447	22938
862.58	22972
862.712	22675
862.844	22618
862.976	22831
863.108	22896
863.24	23003
863.372	22698
863.504	22653
863.636	22603
863.768	22694
863.9	22759
864.032	22474
864.164	22596
864.296	22752
864.428	22847
864.559	22740
864.691	22740
864.823	22679
864.954	22626
865.086	22668
865.217	22630
865.349	22588
865.48	22531
865.612	22569
865.743	22717
865.875	22512
866.006	22493
866.137	22500
866.269	22668
866.4	22588
866.531	22504
866.662	22421
866.793	22428
866.924	22497
867.055	22577
867.186	22615
867.317	22413
867.448	22432
867.579	22527
867.71	22424
867.841	22421
867.972	22451
868.103	22432
868.233	22508
868.364	22443
868.495	22672
868.625	22630
868.756	22717
868.886	22763
869.017	22736
869.147	22824
869.278	22831
869.408	22710
869.539	22744
869.669	22812
869.799	22771
869.929	22839
870.06	22869
870.19	23067
870.32	22991
870.45	23132
870.58	23181
870.71	23239
870.84	23174
870.97	23113
871.1	23155
871.23	23391
871.36	23353
871.489	23200
871.619	23364
871.749	23307
871.879	23349
872.008	23474
872.138	23292
872.267	23379
872.397	23185
872.526	23151
872.656	23200
872.785	23174
872.915	23296
873.044	23433
873.173	23379
873.303	23280
873.432	23391
873.561	23376
873.69	23269
873.819	23364
873.948	23501
874.077	23326
874.206	23315
874.335	23356
874.464	23387
874.593	23577
874.722	23558
874.851	23543
874.979	23509
875.108	23630
875.237	23512
875.365	23383
875.494	23452
875.623	23520
875.751	23444
875.88	23638
876.008	23680
876.136	23653
876.265	23885
876.393	23996
876.521	24007
876.65	23988
876.778	23969
876.906	23889
877.034	23798
877.162	23824
877.29	23855
877.418	23920
877.546	23935
877.674	23843
877.802	23764
877.93	23912
878.058	23935
878.185	23779
878.313	23923
878.441	23893
878.568	23562
878.696	23771
878.824	23908
878.951	23958
879.079	24068
879.206	24178
879.333	24038
879.461	23878
879.588	24034
879.715	24007
879.842	24247
879.97	23958
880.097	23699
880.224	23707
880.351	23779
880.478	23687
880.605	23608
880.732	23570
880.859	23927
880.986	23714
881.112	23707
881.239	23570
881.366	23421
881.493	23417
881.619	23231
881.746	23292
881.872	23223
881.999	23132
882.125	23166
882.252	23383
882.378	23117
882.505	23178
882.631	23155
882.757	22904
882.883	23029
883.01	22873
883.136	22873
883.262	22694
883.388	22885
883.514	22904
883.64	22892
883.766	22805
883.892	22706
884.018	22744
884.143	22847
884.269	23003
884.395	22592
884.52	22519
884.646	22546
884.772	22481
884.897	22470
885.023	22569
885.148	22645
885.274	22763
885.399	22622
885.524	22432
885.65	22626
885.775	22561
885.9	22664
886.025	22607
886.15	22660
886.275	22478
886.4	22314
886.525	22523
886.65	22394
886.775	22459
886.9	22618
887.025	22675
887.149	22504
887.274	22405
887.399	22268
887.523	22325
887.648	22329
887.773	22219
887.897	22272
888.021	22363
888.146	22246
888.27	22356
888.395	22375
888.519	22367
888.643	22382
888.767	22230
888.891	22177
889.015	22101
889.139	22181
889.263	22063
889.387	22139
889.511	22246
889.635	22192
889.759	22082
889.883	22036
890.006	22154
890.13	22147
890.254	22105
890.377	22010
890.501	21831
890.624	21816
890.748	21865
890.871	21622
890.995	21644
891.118	21622
891.241	21835
891.364	21652
891.488	21713
891.611	21576
891.734	21652
891.857	21682
891.98	21599
892.103	21629
892.226	21648
892.349	21625
892.471	21599
892.594	21587
892.717	21614
892.839	21534
892.962	21538
893.085	21675
893.207	21637
893.33	21405
893.452	21466
893.575	21610
893.697	21439
893.819	21682
893.941	21591
894.064	21610
894.186	21492
894.308	21469
894.43	21526
894.552	21515
894.674	21549
894.796	21424
894.918	21393
895.04	21408
895.161	21466
895.283	21526
895.405	21534
895.526	21431
895.648	21492
895.769	21591
895.891	21526
896.012	21576
896.134	21530
896.255	21545
896.376	21530
896.498	21511
896.619	21507
896.74	21458
896.861	21591
896.982	21743
897.103	21934
897.224	21667
897.345	21698
897.466	21633
897.587	21709
897.708	21823
897.828	21751
897.949	21538
898.07	21488
898.19	21641
898.311	21774
898.431	21656
898.552	21648
898.672	21663
898.792	21747
898.913	21660
899.033	21374
899.153	21443
899.273	21359
899.393	21439
899.513	21317
899.633	21511
899.753	21363
899.873	21306
899.993	21374
900.113	21252
900.232	21408
900.352	21367
900.472	21142
900.591	21237
900.711	21173
900.83	21150
900.95	21150
901.069	21245
901.189	20921
901.308	20815
901.427	20609
901.546	20819
901.665	20758
901.784	20674
901.904	20655
902.023	20594
902.141	20351
902.26	20259
902.379	20427
902.498	20172
902.617	20187
902.735	20221
902.854	20107
902.973	20214
903.091	19932
903.21	19936
903.328	19841
903.446	19788
903.565	19750
903.683	19582
903.801	19449
903.919	19658
904.038	19552
904.156	19324
904.274	19506
904.392	19324
904.51	19438
904.627	19422
904.745	19335
904.863	19480
904.981	19274
905.098	19084
905.216	19145
905.334	19122
905.451	19107
905.569	18993
905.686	18916
905.803	19015
905.921	18871
906.038	18966
906.155	18954
906.272	18738
906.389	18696
906.506	18639
906.623	18738
906.74	18547
906.857	18528
906.974	18498
907.091	18566
907.208	18665
907.324	18517
907.441	18483
907.557	18475
907.674	18270
907.79	18342
907.907	18194
908.023	18319
908.139	18350
908.256	18232
908.372	18068
908.488	18174
908.604	18121
908.72	18022
908.836	18064
908.952	18068
909.068	17996
909.184	18079
909.3	17961
909.415	18057
909.531	17992
909.647	17882
909.762	17760
909.878	17859
909.993	17695
910.108	17627
910.224	17695
910.339	17695
910.454	17573
910.57	17444
910.685	17471
910.8	17676
910.915	17646
911.03	17512
911.145	17436
911.259	17318
911.374	17242
911.489	17246
911.604	17204
911.718	17018
911.833	17033
911.947	16961
912.062	16934
912.176	16930
912.291	17003
912.405	17060
912.519	17292
912.633	17189
912.748	17090
912.862	16991
912.976	16885
913.09	16740
913.204	16721
913.318	16839
913.431	16934
913.545	16896
913.659	16949
913.772	16847
913.886	16622
914	16752
914.113	16668
914.226	16752
914.34	16687
914.453	16489
914.566	16634
914.68	16588
914.793	16417
914.906	16310
915.019	16230
915.132	16147
915.245	16310
915.358	16299
915.47	16295
915.583	16169
915.696	16158
915.809	16322
915.921	16284
916.034	16124
916.146	16006
916.259	16044
916.371	16109
916.483	16101
916.595	16055
916.708	15964
916.82	15983
916.932	15903
917.044	15861
917.156	15808
917.268	15831
917.38	15838
917.491	15690
917.603	15755
917.715	15797
917.826	15907
917.938	15743
918.049	15709
918.161	15698
918.272	15854
918.384	15884
918.495	15720
918.606	15606
918.717	15443
918.828	15564
918.939	15591
919.05	15378
919.161	15530
919.272	15389
919.383	15378
919.494	15553
919.604	15641
919.715	15458
919.826	15389
919.936	15507
920.047	15530
920.157	15443
920.267	15755
920.378	15599
920.488	15473
920.598	15679
920.708	15831
920.818	15507
920.928	15625
921.038	15679
921.148	15618
921.258	15447
921.368	15272
921.477	15203
921.587	15165
921.697	15001
921.806	15275
921.916	15051
922.025	14895
922.134	14861
922.244	14800
922.353	14785
922.462	14648
922.571	14545
922.68	14476
922.789	14552
922.898	14518
923.007	14393
923.116	14400
923.224	14427
923.333	14457
923.442	14343
923.55	14324
923.659	14191
923.767	14278
923.876	14244
923.984	14286
924.092	14225
924.201	14153
924.309	14180
924.417	14149
924.525	14050
924.633	14130
924.741	15020
924.849	13830
924.956	14050
925.064	13875
925.172	13753
925.279	13852
925.387	13849
925.494	13852
925.602	13974
925.709	13936
925.816	13704
925.924	13643
926.031	13818
926.138	13727
926.245	13746
926.352	13723
926.459	13780
926.566	13780
926.673	13548
926.779	13495
926.886	13563
926.993	13343
927.099	13415
927.206	13324
927.312	13335
927.419	13362
927.525	13392
927.631	13297
927.737	13282
927.843	13194
927.95	13118
928.056	13175
928.162	13129
928.267	13232
928.373	13689
928.479	13156
928.585	12989
928.69	13031
928.796	13171
928.901	13053
929.007	12882
929.112	12897
929.218	12985
929.323	12981
929.428	12871
929.533	13046
929.638	12844
929.743	12844
929.848	12776
929.953	12829
930.058	12662
930.163	12441
930.267	12547
930.372	12620
930.477	12525
930.581	12722
930.685	12574
930.79	12464
930.894	12346
930.998	12342
931.103	12601
931.207	12133
931.311	12129
931.415	12064
931.519	11809
931.623	11786
