Data from test_V78500241_1538.txt Node
Date: Fri Mar 25 15:52:27 CST 2022
User: usil
Spectrometer: V785-0024
Trigger mode: 0
Integration Time (sec): 4.000000E-1
Scans to average: 1
Nonlinearity correction enabled: false
Boxcar width: 0
Storing dark spectrum: false
XAxis mode: Wavelengths
Number of Pixels in Spectrum: 1024
>>>>>Begin Spectral Data<<<<<
801.071	28382
801.214	28356
801.356	27914
801.499	28082
801.641	27827
801.783	27850
801.926	27846
802.068	27770
802.211	27873
802.353	27690
802.496	27591
802.638	27435
802.78	27481
802.923	27408
803.065	27279
803.208	27424
803.35	27519
803.492	27583
803.635	27698
803.777	27644
803.919	27686
804.061	27941
804.204	27808
804.346	27732
804.488	27701
804.63	27743
804.773	27679
804.915	27679
805.057	27724
805.199	27709
805.341	27785
805.483	27838
805.626	27888
805.768	27713
805.91	27728
806.052	27827
806.194	27880
806.336	28067
806.478	27880
806.62	27808
806.762	28013
806.904	28230
807.046	28322
807.188	28565
807.33	28158
807.472	28394
807.614	28211
807.756	28196
807.898	28090
808.04	28070
808.182	28109
808.324	28112
808.465	28173
808.607	28337
808.749	28630
808.891	28531
809.033	28637
809.174	28630
809.316	28455
809.458	28497
809.6	28538
809.741	28660
809.883	28618
810.025	28839
810.166	28774
810.308	28843
810.45	28786
810.591	28740
810.733	28675
810.875	28516
811.016	28485
811.158	28428
811.299	28527
811.441	28691
811.582	28607
811.724	28599
811.865	28512
812.007	28443
812.148	28485
812.29	28607
812.431	28679
812.573	28809
812.714	28915
812.855	28980
812.997	29105
813.138	29334
813.279	29258
813.421	29018
813.562	29018
813.703	28782
813.845	28672
813.986	28538
814.127	28253
814.268	28219
814.41	28265
814.551	28314
814.692	28192
814.833	28131
814.974	28215
815.115	28265
815.256	28067
815.397	28013
815.539	28109
815.68	28044
815.821	27953
815.962	28070
816.103	28048
816.244	27960
816.385	27873
816.526	27823
816.666	27667
816.807	27576
816.948	27587
817.089	27561
817.23	27583
817.371	27568
817.512	27526
817.653	27618
817.793	27306
817.934	27583
818.075	27511
818.216	27435
818.356	27450
818.497	27363
818.638	27218
818.778	27287
818.919	27222
819.06	27367
819.2	27359
819.341	27401
819.481	27412
819.622	27690
819.762	27945
819.903	27698
820.043	27694
820.184	27679
820.324	27542
820.465	27759
820.605	27705
820.746	27557
820.886	27321
821.026	27549
821.167	27485
821.307	27610
821.447	27591
821.588	27469
821.728	27127
821.868	27028
822.008	27032
822.149	26937
822.289	26921
822.429	26872
822.569	26564
822.709	26689
822.849	26568
822.99	26533
823.13	26484
823.27	26343
823.41	26366
823.55	26153
823.69	26389
823.83	26362
823.97	26199
824.11	26065
824.25	26161
824.389	26081
824.529	26149
824.669	26176
824.809	26339
824.949	26210
825.089	26320
825.228	26278
825.368	25993
825.508	26069
825.648	25966
825.787	26058
825.927	25989
826.067	26012
826.206	26024
826.346	25986
826.485	25978
826.625	26005
826.765	26122
826.904	26043
827.044	25761
827.183	25757
827.323	25666
827.462	25955
827.601	25776
827.741	25750
827.88	25605
828.02	25594
828.159	25738
828.298	25647
828.437	25860
828.577	25757
828.716	25944
828.855	25685
828.994	25449
829.134	25331
829.273	25460
829.412	25297
829.551	25346
829.69	25247
829.829	25472
829.968	25556
830.107	25502
830.246	25369
830.385	25225
830.524	25472
830.663	25126
830.802	25156
830.941	25053
831.08	24894
831.219	25107
831.357	25145
831.496	25194
831.635	25027
831.774	24973
831.913	24958
832.051	24741
832.19	24810
832.329	24939
832.467	24696
832.606	24722
832.744	24707
832.883	24559
833.022	24559
833.16	24623
833.299	24802
833.437	24677
833.576	24772
833.714	24654
833.852	24745
833.991	24848
834.129	24806
834.267	24814
834.406	24848
834.544	24764
834.682	24768
834.821	24772
834.959	24897
835.097	24635
835.235	24806
835.373	24665
835.511	24753
835.65	24741
835.788	24620
835.926	24437
836.064	24350
836.202	24429
836.34	24597
836.478	24734
836.615	24513
836.753	24635
836.891	24700
837.029	24620
837.167	24502
837.305	24494
837.443	24566
837.58	24216
837.718	24585
837.856	24471
837.993	24289
838.131	24311
838.269	24270
838.406	24304
838.544	24281
838.681	23996
838.819	23992
838.956	23843
839.094	23923
839.231	23927
839.369	24030
839.506	24292
839.643	24239
839.781	23817
839.918	23840
840.055	23828
840.193	23882
840.33	23729
840.467	23824
840.604	23904
840.742	24060
840.879	23619
841.016	23703
841.153	23619
841.29	23741
841.427	23756
841.564	23809
841.701	23733
841.838	23741
841.975	23722
842.112	23748
842.249	23573
842.385	23535
842.522	23703
842.659	23646
842.796	23520
842.933	23497
843.069	23516
843.206	23421
843.343	23554
843.479	23478
843.616	23368
843.752	23315
843.889	23227
844.025	23573
844.162	23273
844.298	23402
844.435	23254
844.571	23223
844.708	23349
844.844	23467
844.98	23429
845.117	23322
845.253	23132
845.389	23083
845.525	23178
845.661	23033
845.798	22976
845.934	23113
846.07	22999
846.206	23174
846.342	23189
846.478	23060
846.614	22942
846.75	22721
846.886	22637
847.022	22828
847.158	22908
847.294	22706
847.429	22809
847.565	22752
847.701	22995
847.837	22634
847.972	22516
848.108	22596
848.244	22561
848.379	22402
848.515	22352
848.65	22421
848.786	22360
848.921	22333
849.057	22356
849.192	22527
849.328	22398
849.463	22352
849.598	22265
849.734	22333
849.869	22291
850.004	22147
850.14	22188
850.275	22188
850.41	22150
850.545	22044
850.68	22131
850.815	22112
850.95	22242
851.085	22356
851.22	22105
851.355	22131
851.49	22135
851.625	22063
851.76	22131
851.895	22120
852.03	22147
852.165	22166
852.299	22280
852.434	22162
852.569	22086
852.703	21968
852.838	22169
852.973	22185
853.107	22246
853.242	22097
853.376	21964
853.511	21873
853.645	21930
853.78	22078
853.914	22032
854.048	21793
854.183	21926
854.317	21922
854.451	22143
854.585	21972
854.72	22044
854.854	22040
854.988	21903
855.122	21941
855.256	21835
855.39	21835
855.524	21998
855.658	22036
855.792	21991
855.926	21949
856.06	22021
856.194	21987
856.327	21926
856.461	21949
856.595	21770
856.729	21911
856.862	22051
856.996	22002
857.13	21865
857.263	22078
857.397	22124
857.53	21915
857.664	22105
857.797	22078
857.931	22055
858.064	21979
858.197	22139
858.331	21895
858.464	21854
858.597	21823
858.731	22002
858.864	21930
858.997	21838
859.13	21941
859.263	21979
859.396	22013
859.529	21854
859.662	21922
859.795	21934
859.928	21907
860.061	22135
860.194	22109
860.327	22040
860.46	21937
860.592	22013
860.725	22055
860.858	22135
860.99	22048
861.123	21892
861.256	21846
861.388	21968
861.521	22459
861.653	21915
861.786	21736
861.918	21762
862.05	21979
862.183	21876
862.315	21857
862.447	21888
862.58	21876
862.712	21709
862.844	21656
862.976	21743
863.108	21789
863.24	22143
863.372	21648
863.504	21675
863.636	21766
863.768	21633
863.9	21682
864.032	21667
864.164	21557
864.296	21717
864.428	21701
864.559	21705
864.691	21663
864.823	21625
864.954	21606
865.086	21595
865.217	21526
865.349	21389
865.48	21610
865.612	21500
865.743	21625
865.875	21542
866.006	21572
866.137	21610
866.269	21675
866.4	21458
866.531	21477
866.662	21386
866.793	21473
866.924	21519
867.055	21629
867.186	21469
867.317	21466
867.448	21443
867.579	21374
867.71	21397
867.841	21405
867.972	21488
868.103	21450
868.233	21553
868.364	21363
868.495	21466
868.625	21724
868.756	21785
868.886	21610
869.017	21751
869.147	21743
869.278	21831
869.408	21812
869.539	21766
869.669	21720
869.799	21755
869.929	21907
870.06	21857
870.19	21930
870.32	21934
870.45	22109
870.58	22162
870.71	22192
870.84	22207
870.97	22139
871.1	22276
871.23	22211
871.36	22341
871.489	22135
871.619	22314
871.749	22402
871.879	22238
872.008	22432
872.138	22276
872.267	22291
872.397	22116
872.526	22154
872.656	22177
872.785	22025
872.915	22333
873.044	22382
873.173	22341
873.303	22405
873.432	22413
873.561	22474
873.69	22398
873.819	22299
873.948	22306
874.077	22421
874.206	22234
874.335	22265
874.464	22341
874.593	22596
874.722	22417
874.851	22599
874.979	22557
875.108	22622
875.237	22508
875.365	22523
875.494	22554
875.623	22622
875.751	22500
875.88	22577
876.008	22744
876.136	22782
876.265	22938
876.393	23037
876.521	23041
876.65	22957
876.778	22934
876.906	22816
877.034	22896
877.162	22908
877.29	22820
877.418	22984
877.546	22927
877.674	22869
877.802	22828
877.93	22877
878.058	22733
878.185	22782
878.313	22961
878.441	22854
878.568	22767
878.696	22816
878.824	22885
878.951	23033
879.079	23022
879.206	23200
879.333	23041
879.461	22968
879.588	23037
879.715	22995
879.842	23136
879.97	22915
880.097	22755
880.224	22752
880.351	22683
880.478	22725
880.605	22774
880.732	22744
880.859	22965
880.986	22565
881.112	22801
881.239	22599
881.366	22417
881.493	22398
881.619	22405
881.746	22428
881.872	22440
881.999	22242
882.125	22181
882.252	22367
882.378	22287
882.505	22322
882.631	22112
882.757	22051
882.883	22086
883.01	21975
883.136	22006
883.262	21835
883.388	21857
883.514	22021
883.64	22029
883.766	21823
883.892	21679
884.018	21709
884.143	21895
884.269	22093
884.395	21648
884.52	21545
884.646	21644
884.772	21504
884.897	21435
885.023	21606
885.148	21671
885.274	21774
885.399	21759
885.524	21591
885.65	21671
885.775	21622
885.9	21610
886.025	21709
886.15	21701
886.275	21572
886.4	21496
886.525	21656
886.65	21466
886.775	21507
886.9	21762
887.025	21892
887.149	21507
887.274	21424
887.399	21382
887.523	21344
887.648	21420
887.773	21325
887.897	21477
888.021	21408
888.146	21374
888.27	21450
888.395	21473
888.519	21511
888.643	21313
888.767	21435
888.891	21294
889.015	21203
889.139	21279
889.263	21203
889.387	21272
889.511	21272
889.635	21195
889.759	21123
889.883	21093
890.006	21199
890.13	21249
890.254	21104
890.377	21066
890.501	20895
890.624	20883
890.748	20880
890.871	20811
890.995	20598
891.118	20640
891.241	20735
891.364	20727
891.488	20781
891.611	20769
891.734	20667
891.857	20754
891.98	20727
892.103	20758
892.226	20765
892.349	20651
892.471	20473
892.594	20644
892.717	20765
892.839	20579
892.962	20594
893.085	20651
893.207	20609
893.33	20571
893.452	20545
893.575	20613
893.697	20617
893.819	20720
893.941	20800
894.064	20826
894.186	20533
894.308	20590
894.43	20769
894.552	20857
894.674	20750
894.796	20488
894.918	20575
895.04	20579
895.161	20705
895.283	20750
895.405	20480
895.526	20549
895.648	20590
895.769	20632
895.891	20590
896.012	20659
896.134	20674
896.255	20594
896.376	20594
896.498	20648
896.619	20674
896.74	20629
896.861	20648
896.982	20872
897.103	21150
897.224	20826
897.345	20880
897.466	20758
897.587	20701
897.708	20929
897.828	20853
897.949	20785
898.07	20629
898.19	20830
898.311	20830
898.431	20785
898.552	20807
898.672	20773
898.792	20845
898.913	20895
899.033	20674
899.153	20636
899.273	20454
899.393	20648
899.513	20541
899.633	20648
899.753	20689
899.873	20476
899.993	20507
900.113	20583
900.232	20545
900.352	20404
900.472	20396
900.591	20404
900.711	20336
900.83	20313
900.95	20377
901.069	20374
901.189	20309
901.308	19856
901.427	19807
901.546	19894
901.665	19989
901.784	19921
901.904	19788
902.023	19620
902.141	19510
902.26	19533
902.379	19514
902.498	19430
902.617	19354
902.735	19510
902.854	19244
902.973	19320
903.091	19019
903.21	19084
903.328	19217
903.446	18958
903.565	18886
903.683	18863
903.801	18787
903.919	18821
904.038	18783
904.156	18726
904.274	18821
904.392	18642
904.51	18734
904.627	18585
904.745	18753
904.863	18703
904.981	18517
905.098	18380
905.216	18323
905.334	18300
905.451	18247
905.569	18376
905.686	18292
905.803	18281
905.921	18117
906.038	18045
906.155	18117
906.272	17992
906.389	17961
906.506	17870
906.623	17790
906.74	17794
906.857	17676
906.974	17756
907.091	17935
907.208	17920
907.324	17813
907.441	17756
907.557	17642
907.674	17634
907.79	17433
907.907	17478
908.023	17539
908.139	17535
908.256	17398
908.372	17417
908.488	17444
908.604	17288
908.72	17341
908.836	17261
908.952	17242
909.068	17330
909.184	17341
909.3	17227
909.415	17220
909.531	17288
909.647	17079
909.762	16942
909.878	16930
909.993	16942
910.108	16976
910.224	16908
910.339	16774
910.454	16862
910.57	16763
910.685	16763
910.8	16976
910.915	16797
911.03	16835
911.145	16561
911.259	16634
911.374	16634
911.489	16493
911.604	16413
911.718	16287
911.833	16291
911.947	16169
912.062	16147
912.176	16238
912.291	16356
912.405	16337
912.519	16512
912.633	16519
912.748	16371
912.862	16135
912.976	16158
913.09	16013
913.204	16021
913.318	16097
913.431	16200
913.545	16150
913.659	16112
913.772	16025
913.886	15903
914	15800
914.113	15850
914.226	16055
914.34	15922
914.453	15736
914.566	15972
914.68	15694
914.793	15694
914.906	15637
915.019	15458
915.132	15367
915.245	15538
915.358	15500
915.47	15530
915.583	15492
915.696	15462
915.809	15606
915.921	15679
916.034	15408
916.146	15374
916.259	15401
916.371	15405
916.483	15416
916.595	15363
916.708	15393
916.82	15329
916.932	15298
917.044	15275
917.156	15195
917.268	15241
917.38	15154
917.491	15112
917.603	15222
917.715	15218
917.826	15287
917.938	15017
918.049	15005
918.161	15085
918.272	15195
918.384	15188
918.495	15066
918.606	14910
918.717	14735
918.828	14891
918.939	14971
919.05	14754
919.161	14857
919.272	14815
919.383	14735
919.494	14918
919.604	15058
919.715	14929
919.826	14819
919.936	14800
920.047	14891
920.157	14785
920.267	15074
920.378	14918
920.488	14842
920.598	14956
920.708	15138
920.818	14967
920.928	14982
921.038	15020
921.148	14994
921.258	14792
921.368	14708
921.477	14526
921.587	14541
921.697	14492
921.806	14632
921.916	14396
922.025	14229
922.134	14233
922.244	14263
922.353	14271
922.462	14100
922.571	14012
922.68	13879
922.789	13811
922.898	13811
923.007	13871
923.116	13913
923.224	13833
923.333	13799
923.442	13666
923.55	13750
923.659	13750
923.767	13750
923.876	13620
923.984	13746
924.092	13521
924.201	13693
924.309	13662
924.417	13563
924.525	13575
924.633	13464
924.741	14347
924.849	13358
924.956	13571
925.064	13209
925.172	13278
925.279	13156
925.387	13145
925.494	13179
925.602	13316
925.709	13255
925.816	13095
925.924	13228
926.031	13213
926.138	13232
926.245	13187
926.352	13053
926.459	13221
926.566	13259
926.673	13179
926.779	12985
926.886	12993
926.993	12882
927.099	12871
927.206	12722
927.312	12814
927.419	12791
927.525	12798
927.631	12795
927.737	12787
927.843	12570
927.95	12525
928.056	12616
928.162	12639
928.267	12635
928.373	13289
928.479	12711
928.585	12448
928.69	12517
928.796	12639
928.901	12445
929.007	12350
929.112	12486
929.218	12448
929.323	12418
929.428	12270
929.533	12486
929.638	12270
929.743	12300
929.848	12300
929.953	12163
930.058	12178
930.163	12038
930.267	11950
930.372	12087
930.477	11931
930.581	12251
930.685	12057
930.79	11828
930.894	11908
930.998	11912
931.103	12072
931.207	11592
931.311	11562
931.415	11520
931.519	11353
931.623	11223
