Data from test_V78500241_1311.txt Node
Date: Fri Mar 25 15:50:53 CST 2022
User: usil
Spectrometer: V785-0024
Trigger mode: 0
Integration Time (sec): 4.000000E-1
Scans to average: 1
Nonlinearity correction enabled: false
Boxcar width: 0
Storing dark spectrum: false
XAxis mode: Wavelengths
Number of Pixels in Spectrum: 1024
>>>>>Begin Spectral Data<<<<<
801.071	28634
801.214	28375
801.356	28238
801.499	28226
801.641	27987
801.783	27987
801.926	27975
802.068	27964
802.211	28010
802.353	27975
802.496	27656
802.638	27793
802.78	27679
802.923	27682
803.065	27583
803.208	27660
803.35	27660
803.492	27835
803.635	27793
803.777	27941
803.919	27941
804.061	28344
804.204	28017
804.346	27823
804.488	27819
804.63	27903
804.773	27831
804.915	27983
805.057	27975
805.199	27857
805.341	28147
805.483	28093
805.626	28188
805.768	27975
805.91	28112
806.052	28093
806.194	28013
806.336	28356
806.478	28185
806.62	28215
806.762	28204
806.904	28417
807.046	28656
807.188	28485
807.33	28683
807.472	28592
807.614	28573
807.756	28421
807.898	28577
808.04	28249
808.182	28318
808.324	28386
808.465	28325
808.607	28554
808.749	28706
808.891	28885
809.033	29014
809.174	28755
809.316	28744
809.458	28896
809.6	28771
809.741	28885
809.883	28953
810.025	29083
810.166	29132
810.308	29052
810.45	29109
810.591	29079
810.733	28774
810.875	28866
811.016	28542
811.158	28618
811.299	28790
811.441	28881
811.582	29071
811.724	28771
811.865	28679
812.007	28767
812.148	28972
812.29	28797
812.431	28854
812.573	29067
812.714	29197
812.855	29356
812.997	29444
813.138	29596
813.279	29398
813.421	29273
813.562	29360
813.703	29113
813.845	29044
813.986	28835
814.127	28592
814.268	28447
814.41	28561
814.551	28481
814.692	28535
814.833	28322
814.974	28356
815.115	28611
815.256	28386
815.397	28280
815.539	28375
815.68	28306
815.821	28207
815.962	28478
816.103	28230
816.244	28082
816.385	28101
816.526	28109
816.666	27895
816.807	27732
816.948	27857
817.089	27960
817.23	27846
817.371	27861
817.512	27720
817.653	27732
817.793	27728
817.934	27823
818.075	27922
818.216	27835
818.356	27720
818.497	27633
818.638	27496
818.778	27603
818.919	27564
819.06	27861
819.2	27625
819.341	27808
819.481	27781
819.622	28013
819.762	28010
819.903	28093
820.043	28025
820.184	27911
820.324	27964
820.465	27884
820.605	27975
820.746	27701
820.886	27766
821.026	27873
821.167	27899
821.307	27956
821.447	27793
821.588	27648
821.728	27606
821.868	27420
822.008	27294
822.149	27245
822.289	27275
822.429	27142
822.569	26891
822.709	27013
822.849	26739
822.99	26940
823.13	26769
823.27	26758
823.41	26659
823.55	26606
823.69	26465
823.83	26705
823.97	26511
824.11	26488
824.25	26446
824.389	26374
824.529	26526
824.669	26400
824.809	26461
824.949	26461
825.089	26461
825.228	26492
825.368	26252
825.508	26336
825.648	26453
825.787	26320
825.927	26522
826.067	26210
826.206	26408
826.346	26328
826.485	26328
826.625	26374
826.765	26328
826.904	26438
827.044	26081
827.183	26069
827.323	25936
827.462	26012
827.601	26111
827.741	26016
827.88	26058
828.02	25849
828.159	25986
828.298	25970
828.437	26107
828.577	26008
828.716	26126
828.855	25966
828.994	25757
829.134	25776
829.273	25788
829.412	25708
829.551	25780
829.69	25788
829.829	25841
829.968	25841
830.107	25712
830.246	25811
830.385	25548
830.524	25662
830.663	25571
830.802	25350
830.941	25282
831.08	25118
831.219	25422
831.357	25343
831.496	25590
831.635	25362
831.774	25175
831.913	25183
832.051	25236
832.19	25084
832.329	25107
832.467	25053
832.606	24951
832.744	24932
832.883	25103
833.022	25038
833.16	24981
833.299	25099
833.437	24916
833.576	24977
833.714	24973
833.852	25099
833.991	25050
834.129	25228
834.267	25240
834.406	24973
834.544	24985
834.682	25114
834.821	25004
834.959	25236
835.097	25008
835.235	25015
835.373	25012
835.511	25042
835.65	24821
835.788	24886
835.926	24711
836.064	24658
836.202	24654
836.34	24901
836.478	24871
836.615	24856
836.753	24878
836.891	24878
837.029	24825
837.167	24711
837.305	24886
837.443	24837
837.58	24772
837.718	24810
837.856	24734
837.993	24646
838.131	24669
838.269	24661
838.406	24574
838.544	24684
838.681	24330
838.819	24338
838.956	24182
839.094	24076
839.231	24186
839.369	24372
839.506	24513
839.643	24338
839.781	24235
839.918	24034
840.055	24129
840.193	24148
840.33	24201
840.467	23920
840.604	24163
840.742	24292
840.879	24026
841.016	23977
841.153	24018
841.29	24194
841.427	24011
841.564	24041
841.701	24026
841.838	24045
841.975	23988
842.112	24087
842.249	23992
842.385	23901
842.522	24018
842.659	23992
842.796	23923
842.933	23855
843.069	23752
843.206	23668
843.343	23942
843.479	23992
843.616	23920
843.752	23627
843.889	23577
844.025	23748
844.162	23680
844.298	23722
844.435	23585
844.571	23516
844.708	23695
844.844	23718
844.98	23691
845.117	23745
845.253	23562
845.389	23455
845.525	23467
845.661	23474
845.798	23223
845.934	23398
846.07	23315
846.206	23356
846.342	23524
846.478	23372
846.614	23239
846.75	23044
846.886	23037
847.022	23132
847.158	23052
847.294	22984
847.429	23136
847.565	23121
847.701	23273
847.837	22755
847.972	22771
848.108	22900
848.244	22862
848.379	22786
848.515	22603
848.65	22660
848.786	22736
848.921	22634
849.057	22854
849.192	22653
849.328	22717
849.463	22660
849.598	22516
849.734	22542
849.869	22531
850.004	22413
850.14	22512
850.275	22428
850.41	22303
850.545	22314
850.68	22436
850.815	22455
850.95	22325
851.085	22603
851.22	22459
851.355	22375
851.49	22322
851.625	22360
851.76	22303
851.895	22272
852.03	22318
852.165	22360
852.299	22455
852.434	22527
852.569	22394
852.703	22402
852.838	22561
852.973	22546
853.107	22390
853.242	22363
853.376	22242
853.511	21991
853.645	22101
853.78	22379
853.914	22249
854.048	22204
854.183	22219
854.317	22234
854.451	22443
854.585	22112
854.72	22303
854.854	22367
854.988	22139
855.122	22306
855.256	22188
855.39	22196
855.524	22211
855.658	22253
855.792	22173
855.926	22257
856.06	22261
856.194	22242
856.327	22078
856.461	22082
856.595	22207
856.729	22284
856.862	22265
856.996	22166
857.13	22215
857.263	22291
857.397	22367
857.53	22352
857.664	22215
857.797	22325
857.931	22348
858.064	22371
858.197	22329
858.331	22185
858.464	22086
858.597	22067
858.731	22230
858.864	22249
858.997	22204
859.13	22257
859.263	22211
859.396	22314
859.529	22150
859.662	22246
859.795	22166
859.928	22196
860.061	22405
860.194	22459
860.327	22249
860.46	22299
860.592	22382
860.725	22280
860.858	22333
860.99	22181
861.123	22177
861.256	22093
861.388	22211
861.521	22961
861.653	22055
861.786	22021
861.918	22070
862.05	22124
862.183	22036
862.315	22200
862.447	22230
862.58	22143
862.712	21861
862.844	21937
862.976	22074
863.108	22048
863.24	22363
863.372	21949
863.504	21991
863.636	21975
863.768	22101
863.9	21945
864.032	21831
864.164	21819
864.296	22002
864.428	21998
864.559	21880
864.691	21918
864.823	21888
864.954	21797
865.086	21823
865.217	21869
865.349	21800
865.48	21892
865.612	21937
865.743	21850
865.875	21819
866.006	21819
866.137	21876
866.269	21747
866.4	21804
866.531	21774
866.662	21766
866.793	21732
866.924	21766
867.055	21766
867.186	21747
867.317	21819
867.448	21812
867.579	21603
867.71	21732
867.841	21641
867.972	21785
868.103	21755
868.233	21755
868.364	21732
868.495	21797
868.625	21869
868.756	22109
868.886	21888
869.017	21857
869.147	21991
869.278	22097
869.408	21991
869.539	21979
869.669	21945
869.799	22059
869.929	22082
870.06	22105
870.19	22291
870.32	22470
870.45	22276
870.58	22405
870.71	22379
870.84	22466
870.97	22318
871.1	22272
871.23	22489
871.36	22592
871.489	22485
871.619	22538
871.749	22577
871.879	22523
872.008	22725
872.138	22603
872.267	22687
872.397	22462
872.526	22485
872.656	22348
872.785	22436
872.915	22554
873.044	22557
873.173	22569
873.303	22637
873.432	22687
873.561	22675
873.69	22733
873.819	22554
873.948	22637
874.077	22641
874.206	22519
874.335	22554
874.464	22694
874.593	22786
874.722	22679
874.851	22850
874.979	22866
875.108	22854
875.237	22862
875.365	22675
875.494	22729
875.623	22843
875.751	22744
875.88	22805
876.008	22911
876.136	23071
876.265	22976
876.393	23315
876.521	23208
876.65	23220
876.778	23185
876.906	23178
877.034	23029
877.162	23136
877.29	23010
877.418	23185
877.546	23204
877.674	23178
877.802	23170
877.93	23151
878.058	23037
878.185	23014
878.313	23094
878.441	23109
878.568	23067
878.696	23162
878.824	23124
878.951	23117
879.079	23284
879.206	23383
879.333	23292
879.461	23162
879.588	23223
879.715	23277
879.842	23455
879.97	23208
880.097	22908
880.224	22911
880.351	23109
880.478	22991
880.605	22987
880.732	22938
880.859	23147
880.986	23006
881.112	22976
881.239	22877
881.366	22702
881.493	22717
881.619	22584
881.746	22592
881.872	22554
881.999	22459
882.125	22504
882.252	22603
882.378	22470
882.505	22691
882.631	22459
882.757	22284
882.883	22344
883.01	22306
883.136	22238
883.262	22013
883.388	21968
883.514	22234
883.64	22226
883.766	22143
883.892	21922
884.018	22032
884.143	22090
884.269	22181
884.395	21975
884.52	21812
884.646	21968
884.772	21812
884.897	21671
885.023	21850
885.148	21861
885.274	21956
885.399	21884
885.524	21915
885.65	21812
885.775	21876
885.9	21785
886.025	22025
886.15	21945
886.275	21827
886.4	21766
886.525	21850
886.65	21884
886.775	21793
886.9	21975
887.025	21956
887.149	21739
887.274	21713
887.399	21637
887.523	21538
887.648	21450
887.773	21412
887.897	21644
888.021	21652
888.146	21507
888.27	21644
888.395	21686
888.519	21679
888.643	21458
888.767	21648
888.891	21469
889.015	21405
889.139	21481
889.263	21317
889.387	21561
889.511	21545
889.635	21572
889.759	21416
889.883	21298
890.006	21439
890.13	21458
890.254	21424
890.377	21351
890.501	21199
890.624	21093
890.748	21074
890.871	20952
890.995	20918
891.118	21036
891.241	20960
891.364	20960
891.488	21036
891.611	20948
891.734	20967
891.857	20952
891.98	21001
892.103	20952
892.226	20960
892.349	20937
892.471	20746
892.594	20788
892.717	20944
892.839	20823
892.962	20960
893.085	20880
893.207	20804
893.33	20701
893.452	20773
893.575	20849
893.697	20750
893.819	20971
893.941	21142
894.064	20880
894.186	20739
894.308	20705
894.43	20929
894.552	20967
894.674	20929
894.796	20807
894.918	20773
895.04	20849
895.161	20990
895.283	20792
895.405	20819
895.526	20872
895.648	20914
895.769	20792
895.891	20750
896.012	21009
896.134	20986
896.255	20769
896.376	20838
896.498	20845
896.619	20933
896.74	20914
896.861	20994
896.982	21070
897.103	21291
897.224	21074
897.345	20956
897.466	20891
897.587	21024
897.708	21024
897.828	21062
897.949	21013
898.07	20861
898.19	21017
898.311	21123
898.431	21058
898.552	20963
898.672	21214
898.792	21070
898.913	20986
899.033	20952
899.153	20807
899.273	20743
899.393	20838
899.513	20849
899.633	20777
899.753	20899
899.873	20735
899.993	20746
900.113	20701
900.232	20868
900.352	20625
900.472	20632
900.591	20438
900.711	20507
900.83	20480
900.95	20602
901.069	20587
901.189	20446
901.308	20134
901.427	20016
901.546	20142
901.665	20176
901.784	20134
901.904	20035
902.023	19887
902.141	19666
902.26	19620
902.379	19776
902.498	19525
902.617	19651
902.735	19693
902.854	19556
902.973	19460
903.091	19327
903.21	19244
903.328	19129
903.446	19187
903.565	19099
903.683	19110
903.801	18966
903.919	18932
904.038	19065
904.156	18897
904.274	18837
904.392	18852
904.51	18772
904.627	18764
904.745	18871
904.863	18783
904.981	18620
905.098	18540
905.216	18494
905.334	18528
905.451	18597
905.569	18513
905.686	18547
905.803	18456
905.921	18357
906.038	18494
906.155	18361
906.272	18155
906.389	18174
906.506	18030
906.623	18076
906.74	18038
906.857	18011
906.974	17889
907.091	18034
907.208	18072
907.324	17984
907.441	17969
907.557	17859
907.674	17741
907.79	17604
907.907	17627
908.023	17764
908.139	17703
908.256	17813
908.372	17627
908.488	17592
908.604	17490
908.72	17440
908.836	17452
908.952	17387
909.068	17532
909.184	17573
909.3	17528
909.415	17425
909.531	17398
909.647	17220
909.762	17193
909.878	17098
909.993	17189
910.108	17140
910.224	17140
910.339	17113
910.454	16999
910.57	16987
910.685	16919
910.8	17174
910.915	17090
911.03	16949
911.145	16767
911.259	16763
911.374	16702
911.489	16752
911.604	16538
911.718	16504
911.833	16569
911.947	16310
912.062	16363
912.176	16535
912.291	16523
912.405	16424
912.519	16672
912.633	16645
912.748	16542
912.862	16421
912.976	16352
913.09	16223
913.204	16272
913.318	16322
913.431	16360
913.545	16303
913.659	16325
913.772	16200
913.886	16051
914	16029
914.113	16230
914.226	16196
914.34	16124
914.453	15918
914.566	16223
914.68	16063
914.793	15907
914.906	15793
915.019	15739
915.132	15580
915.245	15679
915.358	15705
915.47	15641
915.583	15679
915.696	15736
915.809	15827
915.921	15804
916.034	15587
916.146	15599
916.259	15507
916.371	15622
916.483	15671
916.595	15458
916.708	15428
916.82	15473
916.932	15519
917.044	15469
917.156	15363
917.268	15359
917.38	15237
917.491	15321
917.603	15237
917.715	15374
917.826	15321
917.938	15222
918.049	15097
918.161	15275
918.272	15401
918.384	15306
918.495	15222
918.606	15081
918.717	15024
918.828	15077
918.939	15135
919.05	15074
919.161	14921
919.272	14925
919.383	14933
919.494	15089
919.604	15222
919.715	15036
919.826	14967
919.936	15028
920.047	15176
920.157	15047
920.267	15154
920.378	15081
920.488	15043
920.598	15138
920.708	15264
920.818	15138
920.928	15097
921.038	15279
921.148	15207
921.258	14979
921.368	14819
921.477	14746
921.587	14830
921.697	14682
921.806	14625
921.916	14499
922.025	14434
922.134	14400
922.244	14339
922.353	14446
922.462	14298
922.571	14301
922.68	14005
922.789	13986
922.898	13978
923.007	13944
923.116	14096
923.224	13963
923.333	13925
923.442	13849
923.55	13864
923.659	13841
923.767	13864
923.876	13696
923.984	13898
924.092	13723
924.201	13776
924.309	13757
924.417	13883
924.525	13605
924.633	13723
924.741	14549
924.849	13457
924.956	13575
925.064	13544
925.172	13381
925.279	13464
925.387	13468
925.494	13403
925.602	13552
925.709	13377
925.816	13282
925.924	13350
926.031	13453
926.138	13301
926.245	13316
926.352	13217
926.459	13369
926.566	13400
926.673	13270
926.779	13095
926.886	12985
926.993	12993
927.099	13019
927.206	12920
927.312	12920
927.419	12958
927.525	12985
927.631	13015
927.737	12947
927.843	12772
927.95	12700
928.056	12711
928.162	12886
928.267	12817
928.373	13388
928.479	12875
928.585	12593
928.69	12760
928.796	12730
928.901	12646
929.007	12437
929.112	12604
929.218	12517
929.323	12479
929.428	12475
929.533	12620
929.638	12471
929.743	12319
929.848	12475
929.953	12327
930.058	12395
930.163	12213
930.267	12098
930.372	12369
930.477	12087
930.581	12300
930.685	12155
930.79	12083
930.894	12064
930.998	11958
931.103	12175
931.207	11798
931.311	11737
931.415	11608
931.519	11497
931.623	11307
