Data from test_V78500241_2151.txt Node
Date: Fri Mar 25 15:56:42 CST 2022
User: usil
Spectrometer: V785-0024
Trigger mode: 0
Integration Time (sec): 4.000000E-1
Scans to average: 1
Nonlinearity correction enabled: false
Boxcar width: 0
Storing dark spectrum: false
XAxis mode: Wavelengths
Number of Pixels in Spectrum: 1024
>>>>>Begin Spectral Data<<<<<
801.071	28694
801.214	28645
801.356	28466
801.499	28489
801.641	28428
801.783	28341
801.926	28360
802.068	28386
802.211	28219
802.353	28291
802.496	28105
802.638	28051
802.78	27979
802.923	27983
803.065	27842
803.208	27918
803.35	27918
803.492	28253
803.635	28284
803.777	28291
803.919	28341
804.061	28698
804.204	28367
804.346	28318
804.488	28249
804.63	28325
804.773	28188
804.915	28272
805.057	28481
805.199	28261
805.341	28443
805.483	28481
805.626	28322
805.768	28413
805.91	28348
806.052	28668
806.194	28508
806.336	28615
806.478	28481
806.62	28584
806.762	28626
806.904	28664
807.046	29044
807.188	28915
807.33	28812
807.472	28949
807.614	28938
807.756	28820
807.898	28744
808.04	28725
808.182	28615
808.324	28736
808.465	28778
808.607	29086
808.749	28938
808.891	29299
809.033	29406
809.174	29334
809.316	29132
809.458	29155
809.6	29064
809.741	29227
809.883	29113
810.025	29429
810.166	29345
810.308	29539
810.45	29444
810.591	29307
810.733	29235
810.875	29200
811.016	29064
811.158	29044
811.299	29121
811.441	29372
811.582	29311
811.724	29083
811.865	29159
812.007	29064
812.148	29170
812.29	29288
812.431	29315
812.573	29455
812.714	29551
812.855	29771
812.997	29764
813.138	29920
813.279	29950
813.421	29577
813.562	29627
813.703	29474
813.845	29421
813.986	29220
814.127	28984
814.268	28911
814.41	28942
814.551	28831
814.692	28965
814.833	28847
814.974	28839
815.115	28790
815.256	28755
815.397	28679
815.539	28656
815.68	28763
815.821	28721
815.962	28672
816.103	28584
816.244	28561
816.385	28504
816.526	28489
816.666	28207
816.807	28204
816.948	28318
817.089	28382
817.23	28272
817.371	28181
817.512	28204
817.653	28204
817.793	28013
817.934	28230
818.075	28230
818.216	28135
818.356	28090
818.497	28154
818.638	27949
818.778	28006
818.919	28040
819.06	28124
819.2	28131
819.341	28192
819.481	28181
819.622	28417
819.762	28653
819.903	28474
820.043	28306
820.184	28360
820.324	28272
820.465	28314
820.605	28211
820.746	28344
820.886	28177
821.026	28356
821.167	28223
821.307	28341
821.447	28093
821.588	27991
821.728	27953
821.868	27960
822.008	27720
822.149	27576
822.289	27667
822.429	27397
822.569	27427
822.709	27382
822.849	27249
822.99	27127
823.13	27089
823.27	27173
823.41	26880
823.55	26933
823.69	27032
823.83	26979
823.97	26842
824.11	26769
824.25	26746
824.389	26678
824.529	26823
824.669	26750
824.809	26940
824.949	27020
825.089	26925
825.228	26929
825.368	26777
825.508	26705
825.648	26902
825.787	26750
825.927	26708
826.067	26705
826.206	26785
826.346	26651
826.485	26777
826.625	26625
826.765	26819
826.904	26773
827.044	26366
827.183	26427
827.323	26438
827.462	26583
827.601	26320
827.741	26415
827.88	26571
828.02	26298
828.159	26396
828.298	26419
828.437	26431
828.577	26412
828.716	26492
828.855	26374
828.994	26172
829.134	26122
829.273	26157
829.412	26020
829.551	26065
829.69	26081
829.829	26050
829.968	26138
830.107	26206
830.246	26058
830.385	26100
830.524	26001
830.663	25921
830.802	25890
830.941	25605
831.08	25708
831.219	25753
831.357	25769
831.496	25925
831.635	25807
831.774	25674
831.913	25693
832.051	25499
832.19	25563
832.329	25468
832.467	25415
832.606	25396
832.744	25362
832.883	25335
833.022	25392
833.16	25407
833.299	25350
833.437	25472
833.576	25609
833.714	25476
833.852	25457
833.991	25396
834.129	25502
834.267	25487
834.406	25487
834.544	25438
834.682	25483
834.821	25502
834.959	25651
835.097	25476
835.235	25628
835.373	25331
835.511	25358
835.65	25228
835.788	25335
835.926	25206
836.064	24920
836.202	25141
836.34	25297
836.478	25434
836.615	25324
836.753	25343
836.891	25263
837.029	25198
837.167	25247
837.305	25122
837.443	25141
837.58	25015
837.718	25198
837.856	25103
837.993	25069
838.131	24928
838.269	24943
838.406	25099
838.544	24909
838.681	24749
838.819	24681
838.956	24563
839.094	24597
839.231	24513
839.369	24783
839.506	24962
839.643	24837
839.781	24509
839.918	24532
840.055	24612
840.193	24768
840.33	24342
840.467	24505
840.604	24593
840.742	24658
840.879	24407
841.016	24384
841.153	24270
841.29	24441
841.427	24467
841.564	24528
841.701	24429
841.838	24429
841.975	24266
842.112	24350
842.249	24205
842.385	24232
842.522	24346
842.659	24350
842.796	24140
842.933	24163
843.069	24178
843.206	24285
843.343	24285
843.479	24140
843.616	24209
843.752	23980
843.889	23889
844.025	24148
844.162	23965
844.298	24121
844.435	23946
844.571	24038
844.708	24133
844.844	24152
844.98	24041
845.117	24022
845.253	23790
845.389	23809
845.525	23874
845.661	24022
845.798	23653
845.934	23813
846.07	23684
846.206	23764
846.342	23813
846.478	23729
846.614	23531
846.75	23421
846.886	23474
847.022	23440
847.158	23528
847.294	23490
847.429	23531
847.565	23459
847.701	23764
847.837	23121
847.972	23140
848.108	23391
848.244	23178
848.379	22999
848.515	22984
848.65	23022
848.786	23124
848.921	22980
849.057	23181
849.192	23060
849.328	23109
849.463	22976
849.598	23022
849.734	22957
849.869	22847
850.004	22892
850.14	22869
850.275	22831
850.41	22683
850.545	22778
850.68	22668
850.815	22782
850.95	22698
851.085	22885
851.22	22881
851.355	22713
851.49	22862
851.625	22778
851.76	22759
851.895	22744
852.03	22683
852.165	22904
852.299	22801
852.434	22839
852.569	22847
852.703	22797
852.838	22847
852.973	22911
853.107	22900
853.242	22740
853.376	22694
853.511	22409
853.645	22527
853.78	22592
853.914	22622
854.048	22584
854.183	22668
854.317	22622
854.451	22725
854.585	22523
854.72	22706
854.854	22675
854.988	22523
855.122	22577
855.256	22440
855.39	22504
855.524	22748
855.658	22729
855.792	22542
855.926	22634
856.06	22561
856.194	22744
856.327	22706
856.461	22565
856.595	22626
856.729	22504
856.862	22668
856.996	22767
857.13	22744
857.263	22691
857.397	22759
857.53	22466
857.664	22641
857.797	22736
857.931	22828
858.064	22622
858.197	22809
858.331	22577
858.464	22481
858.597	22413
858.731	22691
858.864	22531
858.997	22462
859.13	22611
859.263	22687
859.396	22733
859.529	22637
859.662	22664
859.795	22497
859.928	22752
860.061	22752
860.194	22843
860.327	22622
860.46	22599
860.592	22820
860.725	22828
860.858	22835
860.99	22630
861.123	22599
861.256	22554
861.388	22630
861.521	23231
861.653	22436
861.786	22440
861.918	22535
862.05	22455
862.183	22527
862.315	22481
862.447	22565
862.58	22371
862.712	22333
862.844	22344
862.976	22356
863.108	22367
863.24	22847
863.372	22299
863.504	22329
863.636	22341
863.768	22306
863.9	22356
864.032	22287
864.164	22211
864.296	22280
864.428	22466
864.559	22402
864.691	22447
864.823	22249
864.954	22287
865.086	22352
865.217	22169
865.349	22097
865.48	22265
865.612	22097
865.743	22428
865.875	22226
866.006	22200
866.137	22268
866.269	22131
866.4	22059
866.531	22147
866.662	22204
866.793	22074
866.924	22173
867.055	22226
867.186	22166
867.317	22017
867.448	22097
867.579	22112
867.71	22086
867.841	22067
867.972	22002
868.103	22090
868.233	22040
868.364	22093
868.495	22162
868.625	22344
868.756	22428
868.886	22360
869.017	22386
869.147	22405
869.278	22367
869.408	22329
869.539	22474
869.669	22341
869.799	22485
869.929	22447
870.06	22470
870.19	22717
870.32	22790
870.45	22755
870.58	22634
870.71	22854
870.84	22923
870.97	22683
871.1	22812
871.23	22915
871.36	23029
871.489	22938
871.619	22942
871.749	22930
871.879	22961
872.008	22976
872.138	22850
872.267	22869
872.397	22930
872.526	22748
872.656	22721
872.785	22809
872.915	23025
873.044	23048
873.173	22885
873.303	22946
873.432	23033
873.561	22972
873.69	23022
873.819	22968
873.948	23025
874.077	23098
874.206	22911
874.335	23010
874.464	23140
874.593	23143
874.722	23216
874.851	23231
874.979	23166
875.108	23147
875.237	23162
875.365	23025
875.494	23258
875.623	23254
875.751	23014
875.88	23216
876.008	23250
876.136	23341
876.265	23608
876.393	23741
876.521	23611
876.65	23653
876.778	23516
876.906	23429
877.034	23478
877.162	23398
877.29	23520
877.418	23524
877.546	23459
877.674	23547
877.802	23551
877.93	23562
878.058	23493
878.185	23406
878.313	23558
878.441	23474
878.568	23402
878.696	23528
878.824	23596
878.951	23608
879.079	23638
879.206	23878
879.333	23737
879.461	23566
879.588	23547
879.715	23790
879.842	23714
879.97	23570
880.097	23391
880.224	23254
880.351	23486
880.478	23368
880.605	23368
880.732	23444
880.859	23459
880.986	23197
881.112	23429
881.239	23231
881.366	23075
881.493	23041
881.619	23033
881.746	22835
881.872	22927
881.999	22797
882.125	22866
882.252	22919
882.378	22778
882.505	22972
882.631	22725
882.757	22626
882.883	22752
883.01	22519
883.136	22531
883.262	22519
883.388	22485
883.514	22554
883.64	22542
883.766	22504
883.892	22280
884.018	22230
884.143	22516
884.269	22592
884.395	22287
884.52	22242
884.646	22299
884.772	22112
884.897	22082
885.023	22318
885.148	22306
885.274	22344
885.399	22287
885.524	22242
885.65	22230
885.775	22318
885.9	22169
886.025	22348
886.15	22265
886.275	22154
886.4	22025
886.525	22181
886.65	22112
886.775	22101
886.9	22337
887.025	22322
887.149	22139
887.274	21930
887.399	22017
887.523	21876
887.648	21964
887.773	21846
887.897	22078
888.021	22013
888.146	21785
888.27	22025
888.395	22013
888.519	21983
888.643	22105
888.767	21968
888.891	21880
889.015	21819
889.139	21774
889.263	21819
889.387	21770
889.511	22025
889.635	21781
889.759	21812
889.883	21675
890.006	21819
890.13	21880
890.254	21656
890.377	21667
890.501	21458
890.624	21466
890.748	21534
890.871	21447
890.995	21317
891.118	21241
891.241	21241
891.364	21279
891.488	21462
891.611	21359
891.734	21230
891.857	21336
891.98	21310
892.103	21370
892.226	21355
892.349	21104
892.471	21123
892.594	21367
892.717	21291
892.839	21051
892.962	21104
893.085	21218
893.207	21184
893.33	20990
893.452	21017
893.575	21089
893.697	21230
893.819	21393
893.941	21287
894.064	21287
894.186	21093
894.308	21184
894.43	21321
894.552	21241
894.674	21294
894.796	20937
894.918	21127
895.04	21005
895.161	21230
895.283	21249
895.405	21047
895.526	21157
895.648	21252
895.769	21211
895.891	21180
896.012	21321
896.134	21169
896.255	21138
896.376	21077
896.498	21062
896.619	21176
896.74	21169
896.861	21222
896.982	21439
897.103	21523
897.224	21534
897.345	21431
897.466	21313
897.587	21340
897.708	21492
897.828	21370
897.949	21298
898.07	21256
898.19	21260
898.311	21447
898.431	21245
898.552	21386
898.672	21268
898.792	21500
898.913	21291
899.033	21184
899.153	21214
899.273	21089
899.393	21070
899.513	21176
899.633	21112
899.753	21058
899.873	21036
899.993	21138
900.113	21013
900.232	21146
900.352	21051
900.472	21013
900.591	20834
900.711	20876
900.83	20697
900.95	20944
901.069	20883
901.189	20807
901.308	20583
901.427	20423
901.546	20495
901.665	20412
901.784	20465
901.904	20301
902.023	20149
902.141	20054
902.26	20024
902.379	20008
902.498	19902
902.617	19830
902.735	19883
902.854	19928
902.973	19818
903.091	19578
903.21	19518
903.328	19567
903.446	19457
903.565	19354
903.683	19312
903.801	19221
903.919	19343
904.038	19316
904.156	19129
904.274	19232
904.392	19164
904.51	19080
904.627	19175
904.745	19168
904.863	19232
904.981	18875
905.098	18757
905.216	18791
905.334	18844
905.451	18764
905.569	18791
905.686	18817
905.803	18802
905.921	18620
906.038	18608
906.155	18616
906.272	18418
906.389	18467
906.506	18239
906.623	18346
906.74	18155
906.857	18213
906.974	18076
907.091	18342
907.208	18490
907.324	18315
907.441	18216
907.557	18117
907.674	17980
907.79	18057
907.907	18155
908.023	18049
908.139	18030
908.256	17950
908.372	17958
908.488	17908
908.604	17824
908.72	17764
908.836	17710
908.952	17741
909.068	17790
909.184	17882
909.3	17615
909.415	17756
909.531	17722
909.647	17581
909.762	17516
909.878	17425
909.993	17558
910.108	17452
910.224	17322
910.339	17349
910.454	17334
910.57	17280
910.685	17162
910.8	17356
910.915	17376
911.03	17315
911.145	17056
911.259	17071
911.374	17006
911.489	16991
911.604	16976
911.718	16763
911.833	16740
911.947	16744
912.062	16615
912.176	16683
912.291	16828
912.405	16759
912.519	16949
912.633	16904
912.748	16694
912.862	16698
912.976	16584
913.09	16424
913.204	16546
913.318	16531
913.431	16755
913.545	16577
913.659	16580
913.772	16546
913.886	16314
914	16329
914.113	16466
914.226	16447
914.34	16356
914.453	16265
914.566	16226
914.68	16242
914.793	16154
914.906	16002
915.019	15945
915.132	15770
915.245	16055
915.358	15983
915.47	15888
915.583	15983
915.696	15975
915.809	16082
915.921	16051
916.034	15926
916.146	15869
916.259	15785
916.371	15983
916.483	15918
916.595	15755
916.708	15865
916.82	15743
916.932	15705
917.044	15591
917.156	15705
917.268	15622
917.38	15637
917.491	15561
917.603	15633
917.715	15606
917.826	15648
917.938	15595
918.049	15355
918.161	15507
918.272	15682
918.384	15614
918.495	15511
918.606	15325
918.717	15218
918.828	15302
918.939	15370
919.05	15275
919.161	15214
919.272	15150
919.383	15230
919.494	15298
919.604	15530
919.715	15355
919.826	15176
919.936	15207
920.047	15283
920.157	15199
920.267	15359
920.378	15214
920.488	15199
920.598	15389
920.708	15526
920.818	15329
920.928	15310
921.038	15549
921.148	15382
921.258	15157
921.368	15070
921.477	15055
921.587	14982
921.697	14872
921.806	15017
921.916	14823
922.025	14712
922.134	14617
922.244	14598
922.353	14640
922.462	14473
922.571	14389
922.68	14221
922.789	14161
922.898	14088
923.007	14157
923.116	14294
923.224	14142
923.333	14225
923.442	14054
923.55	14077
923.659	14161
923.767	14054
923.876	13982
923.984	14096
924.092	13894
924.201	13871
924.309	13940
924.417	13970
924.525	13841
924.633	13917
924.741	14648
924.849	13651
924.956	13750
925.064	13590
925.172	13655
925.279	13540
925.387	13548
925.494	13708
925.602	13742
925.709	13689
925.816	13476
925.924	13605
926.031	13651
926.138	13571
926.245	13643
926.352	13453
926.459	13613
926.566	13578
926.673	13434
926.779	13365
926.886	13301
926.993	13175
927.099	13091
927.206	13072
927.312	13095
927.419	13217
927.525	13145
927.631	13175
927.737	13069
927.843	13046
927.95	12894
928.056	12958
928.162	13076
928.267	13012
928.373	13586
928.479	13012
928.585	12833
928.69	12882
928.796	12875
928.901	12768
929.007	12635
929.112	12711
929.218	12810
929.323	12688
929.428	12673
929.533	12749
929.638	12616
929.743	12589
929.848	12612
929.953	12578
930.058	12517
930.163	12296
930.267	12296
930.372	12540
930.477	12251
930.581	12585
930.685	12376
930.79	12186
930.894	12201
930.998	12216
931.103	12330
931.207	11920
931.311	11950
931.415	11798
931.519	11600
931.623	11528
