Data from test_V78500241_964.txt Node
Date: Fri Mar 25 15:48:28 CST 2022
User: usil
Spectrometer: V785-0024
Trigger mode: 0
Integration Time (sec): 4.000000E-1
Scans to average: 1
Nonlinearity correction enabled: false
Boxcar width: 0
Storing dark spectrum: false
XAxis mode: Wavelengths
Number of Pixels in Spectrum: 1024
>>>>>Begin Spectral Data<<<<<
801.071	28607
801.214	28386
801.356	28105
801.499	28105
801.641	28044
801.783	28036
801.926	28051
802.068	28025
802.211	27968
802.353	27812
802.496	27694
802.638	27614
802.78	27656
802.923	27682
803.065	27625
803.208	27557
803.35	27736
803.492	27785
803.635	27804
803.777	27667
803.919	27785
804.061	28211
804.204	27953
804.346	27865
804.488	27667
804.63	27941
804.773	27663
804.915	27838
805.057	28105
805.199	27865
805.341	28063
805.483	28006
805.626	27953
805.768	27949
805.91	27949
806.052	27949
806.194	27930
806.336	28120
806.478	27994
806.62	28207
806.762	28207
806.904	28363
807.046	28672
807.188	28535
807.33	28542
807.472	28736
807.614	28497
807.756	28485
807.898	28314
808.04	28253
808.182	28424
808.324	28478
808.465	28280
808.607	28504
808.749	28660
808.891	28812
809.033	28965
809.174	28809
809.316	28702
809.458	28767
809.6	28698
809.741	28759
809.883	28972
810.025	28976
810.166	29189
810.308	29025
810.45	28927
810.591	28908
810.733	28900
810.875	28748
811.016	28622
811.158	28618
811.299	28759
811.441	28919
811.582	28961
811.724	28763
811.865	28831
812.007	28683
812.148	28812
812.29	28854
812.431	28999
812.573	29090
812.714	29200
812.855	29452
812.997	29463
813.138	29509
813.279	29368
813.421	29143
813.562	29261
813.703	29136
813.845	29067
813.986	28816
814.127	28630
814.268	28603
814.41	28535
814.551	28443
814.692	28618
814.833	28382
814.974	28538
815.115	28459
815.256	28169
815.397	28379
815.539	28436
815.68	28329
815.821	28344
815.962	28360
816.103	28325
816.244	28109
816.385	28063
816.526	28059
816.666	27819
816.807	27831
816.948	27926
817.089	27888
817.23	27694
817.371	27751
817.512	27755
817.653	27770
817.793	27732
817.934	27846
818.075	27717
818.216	27762
818.356	27709
818.497	27698
818.638	27576
818.778	27447
818.919	27477
819.06	27580
819.2	27599
819.341	27690
819.481	27736
819.622	28017
819.762	28010
819.903	28109
820.043	27899
820.184	27850
820.324	27907
820.465	28040
820.605	28025
820.746	27953
820.886	27861
821.026	27876
821.167	27694
821.307	27880
821.447	27842
821.588	27656
821.728	27511
821.868	27344
822.008	27279
822.149	27329
822.289	27291
822.429	26948
822.569	27001
822.709	26857
822.849	26773
822.99	26788
823.13	26686
823.27	26724
823.41	26537
823.55	26583
823.69	26590
823.83	26530
823.97	26511
824.11	26408
824.25	26317
824.389	26488
824.529	26389
824.669	26530
824.809	26545
824.949	26609
825.089	26560
825.228	26385
825.368	26248
825.508	26396
825.648	26210
825.787	26187
825.927	26271
826.067	26195
826.206	26355
826.346	26275
826.485	26374
826.625	26339
826.765	26568
826.904	26248
827.044	26050
827.183	26020
827.323	26062
827.462	26039
827.601	26031
827.741	26069
827.88	26199
828.02	25890
828.159	26005
828.298	26020
828.437	25887
828.577	26043
828.716	26103
828.855	26054
828.994	25784
829.134	25666
829.273	25909
829.412	25670
829.551	25563
829.69	25784
829.829	25807
829.968	25746
830.107	25803
830.246	25765
830.385	25719
830.524	25601
830.663	25544
830.802	25388
830.941	25362
831.08	25308
831.219	25445
831.357	25339
831.496	25632
831.635	25403
831.774	25244
831.913	25244
832.051	25107
832.19	25099
832.329	25038
832.467	24996
832.606	24962
832.744	24958
832.883	25015
833.022	25004
833.16	24871
833.299	25027
833.437	25152
833.576	25137
833.714	25129
833.852	25259
833.991	25141
834.129	25213
834.267	25183
834.406	25072
834.544	25110
834.682	24992
834.821	25148
834.959	25118
835.097	24947
835.235	25053
835.373	24935
835.511	25015
835.65	24966
835.788	24920
835.926	24875
836.064	24593
836.202	24768
836.34	24817
836.478	25019
836.615	24787
836.753	24859
836.891	24951
837.029	24844
837.167	24760
837.305	24852
837.443	24764
837.58	24798
837.718	24783
837.856	24745
837.993	24635
838.131	24814
838.269	24635
838.406	24696
838.544	24505
838.681	24410
838.819	24357
838.956	24102
839.094	24159
839.231	24311
839.369	24270
839.506	24544
839.643	24502
839.781	24205
839.918	24106
840.055	24266
840.193	24034
840.33	24083
840.467	24117
840.604	24289
840.742	24289
840.879	24011
841.016	23992
841.153	23977
841.29	24190
841.427	24098
841.564	24102
841.701	24155
841.838	23950
841.975	23939
842.112	24057
842.249	23878
842.385	23882
842.522	24034
842.659	23840
842.796	23882
842.933	23904
843.069	23794
843.206	23760
843.343	23908
843.479	23847
843.616	23817
843.752	23726
843.889	23691
844.025	23718
844.162	23581
844.298	23805
844.435	23581
844.571	23646
844.708	23729
844.844	23851
844.98	23691
845.117	23741
845.253	23657
845.389	23516
845.525	23433
845.661	23554
845.798	23376
845.934	23448
846.07	23433
846.206	23269
846.342	23478
846.478	23402
846.614	23147
846.75	22961
846.886	23105
847.022	23193
847.158	23098
847.294	23117
847.429	23147
847.565	23098
847.701	23265
847.837	22778
847.972	22725
848.108	22847
848.244	22885
848.379	22637
848.515	22759
848.65	22725
848.786	22691
848.921	22660
849.057	22721
849.192	22706
849.328	22782
849.463	22653
849.598	22649
849.734	22508
849.869	22481
850.004	22443
850.14	22470
850.275	22322
850.41	22398
850.545	22455
850.68	22382
850.815	22424
850.95	22363
851.085	22626
851.22	22459
851.355	22466
851.49	22432
851.625	22428
851.76	22417
851.895	22211
852.03	22322
852.165	22451
852.299	22557
852.434	22466
852.569	22421
852.703	22333
852.838	22428
852.973	22721
853.107	22462
853.242	22432
853.376	22284
853.511	22059
853.645	22265
853.78	22337
853.914	22276
854.048	22181
854.183	22188
854.317	22242
854.451	22394
854.585	22265
854.72	22211
854.854	22322
854.988	22147
855.122	22109
855.256	22181
855.39	22105
855.524	22238
855.658	22253
855.792	22238
855.926	22211
856.06	22299
856.194	22234
856.327	22268
856.461	22196
856.595	22204
856.729	22188
856.862	22272
856.996	22344
857.13	22223
857.263	22314
857.397	22299
857.53	22192
857.664	22230
857.797	22390
857.931	22322
858.064	22230
858.197	22363
858.331	22173
858.464	22143
858.597	22143
858.731	22280
858.864	22287
858.997	22139
859.13	22238
859.263	22173
859.396	22367
859.529	22249
859.662	22272
859.795	22257
859.928	22215
860.061	22443
860.194	22371
860.327	22337
860.46	22188
860.592	22310
860.725	22367
860.858	22299
860.99	22295
861.123	22143
861.256	22207
861.388	22223
861.521	22877
861.653	22010
861.786	22063
861.918	22036
862.05	22150
862.183	21991
862.315	22169
862.447	22295
862.58	22238
862.712	21964
862.844	21930
862.976	22105
863.108	22029
863.24	22363
863.372	21876
863.504	21922
863.636	21922
863.768	21903
863.9	21827
864.032	21838
864.164	22029
864.296	21968
864.428	22082
864.559	21804
864.691	21983
864.823	21956
864.954	22017
865.086	21937
865.217	21812
865.349	21762
865.48	21835
865.612	21865
865.743	21808
865.875	21869
866.006	21926
866.137	21880
866.269	21781
866.4	21675
866.531	21694
866.662	21759
866.793	21599
866.924	21720
867.055	21812
867.186	21766
867.317	21827
867.448	21720
867.579	21671
867.71	21686
867.841	21667
867.972	21743
868.103	21644
868.233	21682
868.364	21732
868.495	21842
868.625	22044
868.756	22040
868.886	21880
869.017	21960
869.147	21998
869.278	22063
869.408	21949
869.539	22093
869.669	22082
869.799	21953
869.929	22097
870.06	22166
870.19	22287
870.32	22131
870.45	22379
870.58	22295
870.71	22497
870.84	22447
870.97	22375
871.1	22459
871.23	22500
871.36	22497
871.489	22557
871.619	22500
871.749	22512
871.879	22500
872.008	22656
872.138	22584
872.267	22588
872.397	22554
872.526	22394
872.656	22371
872.785	22284
872.915	22459
873.044	22668
873.173	22615
873.303	22603
873.432	22710
873.561	22793
873.69	22622
873.819	22577
873.948	22733
874.077	22649
874.206	22542
874.335	22546
874.464	22797
874.593	22824
874.722	22744
874.851	22771
874.979	22866
875.108	22866
875.237	22748
875.365	22637
875.494	22748
875.623	22866
875.751	22873
875.88	22759
876.008	23006
876.136	23048
876.265	23258
876.393	23204
876.521	23178
876.65	23155
876.778	23220
876.906	23010
877.034	23197
877.162	23132
877.29	22980
877.418	23242
877.546	23170
877.674	23166
877.802	23178
877.93	23098
878.058	23178
878.185	23117
878.313	22980
878.441	23189
878.568	23025
878.696	23113
878.824	23185
878.951	23239
879.079	23296
879.206	23459
879.333	23288
879.461	23254
879.588	23315
879.715	23391
879.842	23406
879.97	23083
880.097	22915
880.224	22949
880.351	23079
880.478	23056
880.605	22968
880.732	22972
880.859	23193
880.986	22934
881.112	22957
881.239	22816
881.366	22793
881.493	22721
881.619	22618
881.746	22584
881.872	22481
881.999	22569
882.125	22424
882.252	22557
882.378	22470
882.505	22557
882.631	22394
882.757	22158
882.883	22143
883.01	22249
883.136	22147
883.262	21991
883.388	22097
883.514	22219
883.64	22211
883.766	22207
883.892	21953
884.018	22029
884.143	22162
884.269	22188
884.395	21819
884.52	21888
884.646	21907
884.772	21850
884.897	21694
885.023	21835
885.148	21915
885.274	21895
885.399	21918
885.524	21823
885.65	21835
885.775	21895
885.9	21819
886.025	21930
886.15	21953
886.275	21857
886.4	21709
886.525	21690
886.65	21774
886.775	21884
886.9	21835
887.025	22048
887.149	21846
887.274	21713
887.399	21557
887.523	21625
887.648	21694
887.773	21526
887.897	21774
888.021	21739
888.146	21466
888.27	21679
888.395	21778
888.519	21675
888.643	21504
888.767	21641
888.891	21519
889.015	21492
889.139	21542
889.263	21572
889.387	21515
889.511	21686
889.635	21561
889.759	21408
889.883	21329
890.006	21313
890.13	21526
890.254	21195
890.377	21291
890.501	21142
890.624	21039
890.748	21230
890.871	21017
890.995	20998
891.118	20929
891.241	21066
891.364	20944
891.488	21051
891.611	20986
891.734	21047
891.857	21062
891.98	20994
892.103	20963
892.226	20906
892.349	20895
892.471	20743
892.594	20910
892.717	21009
892.839	20819
892.962	20857
893.085	20921
893.207	20720
893.33	20720
893.452	20758
893.575	20891
893.697	20845
893.819	20986
893.941	21058
894.064	21043
894.186	20834
894.308	20720
894.43	20944
894.552	20986
894.674	20830
894.796	20670
894.918	20724
895.04	20693
895.161	20785
895.283	20811
895.405	20743
895.526	20868
895.648	20800
895.769	20967
895.891	20933
896.012	20830
896.134	20910
896.255	20758
896.376	20857
896.498	20842
896.619	20902
896.74	20853
896.861	20853
896.982	21108
897.103	21252
897.224	21051
897.345	21131
897.466	21005
897.587	21039
897.708	21146
897.828	21001
897.949	20941
898.07	20956
898.19	20979
898.311	21047
898.431	21017
898.552	20986
898.672	21096
898.792	21142
898.913	21051
899.033	20807
899.153	20830
899.273	20712
899.393	20842
899.513	20857
899.633	20834
899.753	20693
899.873	20682
899.993	20830
900.113	20724
900.232	20743
900.352	20609
900.472	20518
900.591	20594
900.711	20480
900.83	20507
900.95	20549
901.069	20716
901.189	20484
901.308	20210
901.427	20187
901.546	20016
901.665	20100
901.784	20240
901.904	19989
902.023	19890
902.141	19662
902.26	19776
902.379	19776
902.498	19582
902.617	19620
902.735	19586
902.854	19658
902.973	19575
903.091	19350
903.21	19266
903.328	19145
903.446	19217
903.565	19156
903.683	19156
903.801	18905
903.919	19137
904.038	18954
904.156	18852
904.274	19042
904.392	18779
904.51	18791
904.627	18829
904.745	18825
904.863	18977
904.981	18707
905.098	18448
905.216	18479
905.334	18635
905.451	18563
905.569	18410
905.686	18517
905.803	18391
905.921	18304
906.038	18414
906.155	18216
906.272	18121
906.389	18247
906.506	18076
906.623	18068
906.74	18087
906.857	17908
906.974	17973
907.091	18163
907.208	18171
907.324	18049
907.441	17923
907.557	17790
907.674	17821
907.79	17729
907.907	17691
908.023	17767
908.139	17726
908.256	17729
908.372	17649
908.488	17611
908.604	17459
908.72	17474
908.836	17539
908.952	17448
909.068	17490
909.184	17573
909.3	17452
909.415	17554
909.531	17474
909.647	17273
909.762	17155
909.878	17193
909.993	17086
910.108	17159
910.224	17162
910.339	17212
910.454	17037
910.57	17022
910.685	16873
910.8	17151
910.915	17159
911.03	16915
911.145	16778
911.259	16790
911.374	16687
911.489	16683
911.604	16626
911.718	16535
911.833	16459
911.947	16303
912.062	16280
912.176	16531
912.291	16550
912.405	16478
912.519	16653
912.633	16698
912.748	16489
912.862	16459
912.976	16318
913.09	16143
913.204	16154
913.318	16242
913.431	16390
913.545	16329
913.659	16371
913.772	16299
913.886	16044
914	16002
914.113	16029
914.226	16211
914.34	16226
914.453	15998
914.566	16051
914.68	15964
914.793	15850
914.906	15785
915.019	15698
915.132	15656
915.245	15652
915.358	15713
915.47	15686
915.583	15648
915.696	15709
915.809	15842
915.921	15774
916.034	15538
916.146	15622
916.259	15595
916.371	15698
916.483	15648
916.595	15469
916.708	15526
916.82	15564
916.932	15488
917.044	15443
917.156	15340
917.268	15310
917.38	15264
917.491	15317
917.603	15370
917.715	15329
917.826	15439
917.938	15351
918.049	15081
918.161	15249
918.272	15511
918.384	15420
918.495	15169
918.606	15100
918.717	15013
918.828	15180
918.939	15119
919.05	14982
919.161	15032
919.272	14906
919.383	14967
919.494	15135
919.604	15272
919.715	15017
919.826	14899
919.936	14982
920.047	15195
920.157	14971
920.267	15245
920.378	15097
920.488	14952
920.598	15123
920.708	15249
920.818	15165
920.928	15112
921.038	15313
921.148	15226
921.258	14960
921.368	14834
921.477	14838
921.587	14788
921.697	14606
921.806	14724
921.916	14602
922.025	14461
922.134	14423
922.244	14313
922.353	14393
922.462	14191
922.571	14214
922.68	14062
922.789	13978
922.898	14020
923.007	14005
923.116	14001
923.224	14001
923.333	13932
923.442	13833
923.55	13776
923.659	13913
923.767	13849
923.876	13772
923.984	13856
924.092	13696
924.201	13753
924.309	13746
924.417	13708
924.525	13693
924.633	13636
924.741	14598
924.849	13468
924.956	13582
925.064	13430
925.172	13301
925.279	13282
925.387	13441
925.494	13441
925.602	13495
925.709	13445
925.816	13152
925.924	13324
926.031	13362
926.138	13335
926.245	13369
926.352	13225
926.459	13343
926.566	13324
926.673	13263
926.779	13156
926.886	13004
926.993	12970
927.099	12916
927.206	12871
927.312	12913
927.419	12996
927.525	12909
927.631	12935
927.737	12821
927.843	12787
927.95	12662
928.056	12734
928.162	12688
928.267	12840
928.373	13377
928.479	12745
928.585	12620
928.69	12681
928.796	12848
928.901	12673
929.007	12327
929.112	12627
929.218	12502
929.323	12532
929.428	12467
929.533	12582
929.638	12441
929.743	12464
929.848	12445
929.953	12445
930.058	12277
930.163	12182
930.267	12167
930.372	12300
930.477	12087
930.581	12281
930.685	12270
930.79	12064
930.894	11950
930.998	12019
931.103	12209
931.207	11752
931.311	11688
931.415	11570
931.519	11474
931.623	11376
