Data from test_V78500241_2504.txt Node
Date: Fri Mar 25 15:59:08 CST 2022
User: usil
Spectrometer: V785-0024
Trigger mode: 0
Integration Time (sec): 4.000000E-1
Scans to average: 1
Nonlinearity correction enabled: false
Boxcar width: 0
Storing dark spectrum: false
XAxis mode: Wavelengths
Number of Pixels in Spectrum: 1024
>>>>>Begin Spectral Data<<<<<
801.071	28344
801.214	28295
801.356	28055
801.499	28048
801.641	27964
801.783	27903
801.926	27972
802.068	27846
802.211	27766
802.353	27701
802.496	27618
802.638	27717
802.78	27675
802.923	27549
803.065	27439
803.208	27450
803.35	27485
803.492	27850
803.635	27800
803.777	27667
803.919	27701
804.061	28029
804.204	27972
804.346	27751
804.488	27614
804.63	27743
804.773	27755
804.915	27812
805.057	27941
805.199	27869
805.341	27892
805.483	28044
805.626	27930
805.768	27850
805.91	27968
806.052	27987
806.194	27873
806.336	28044
806.478	28074
806.62	28051
806.762	28120
806.904	28188
807.046	28500
807.188	28348
807.33	28348
807.472	28432
807.614	28401
807.756	28337
807.898	28253
808.04	28188
808.182	28295
808.324	28234
808.465	28192
808.607	28440
808.749	28554
808.891	28748
809.033	28854
809.174	28888
809.316	28565
809.458	28649
809.6	28561
809.741	28698
809.883	28786
810.025	28896
810.166	28980
810.308	28881
810.45	28839
810.591	28812
810.733	28687
810.875	28481
811.016	28485
811.158	28512
811.299	28637
811.441	28812
811.582	28873
811.724	28725
811.865	28717
812.007	28577
812.148	28508
812.29	28577
812.431	28733
812.573	28919
812.714	29060
812.855	29155
812.997	29292
813.138	29250
813.279	29239
813.421	29060
813.562	28991
813.703	28790
813.845	28801
813.986	28523
814.127	28413
814.268	28367
814.41	28356
814.551	28314
814.692	28382
814.833	28371
814.974	28360
815.115	28432
815.256	28272
815.397	28200
815.539	28196
815.68	28082
815.821	28112
815.962	28112
816.103	28147
816.244	27968
816.385	27895
816.526	27892
816.666	27713
816.807	27469
816.948	27606
817.089	27682
817.23	27610
817.371	27561
817.512	27504
817.653	27660
817.793	27397
817.934	27523
818.075	27591
818.216	27599
818.356	27542
818.497	27466
818.638	27218
818.778	27272
818.919	27367
819.06	27408
819.2	27561
819.341	27804
819.481	27633
819.622	27876
819.762	28051
819.903	27778
820.043	27789
820.184	27629
820.324	27736
820.465	27876
820.605	27766
820.746	27797
820.886	27580
821.026	27633
821.167	27583
821.307	27622
821.447	27732
821.588	27595
821.728	27500
821.868	27237
822.008	27218
822.149	27077
822.289	27081
822.429	26929
822.569	26842
822.709	26823
822.849	26682
822.99	26526
823.13	26636
823.27	26492
823.41	26465
823.55	26377
823.69	26396
823.83	26393
823.97	26317
824.11	26187
824.25	26107
824.389	26301
824.529	26187
824.669	26084
824.809	26362
824.949	26282
825.089	26366
825.228	26332
825.368	26088
825.508	26237
825.648	26259
825.787	26107
825.927	26294
826.067	26058
826.206	26081
826.346	26096
826.485	26126
826.625	26157
826.765	26244
826.904	26157
827.044	25864
827.183	25841
827.323	25814
827.462	25890
827.601	25803
827.741	25784
827.88	25849
828.02	25658
828.159	25822
828.298	25788
828.437	25909
828.577	25879
828.716	25997
828.855	25818
828.994	25563
829.134	25525
829.273	25556
829.412	25556
829.551	25487
829.69	25586
829.829	25460
829.968	25460
830.107	25567
830.246	25590
830.385	25419
830.524	25430
830.663	25217
830.802	25107
830.941	25187
831.08	25034
831.219	25171
831.357	25164
831.496	25392
831.635	25091
831.774	25095
831.913	25012
832.051	24920
832.19	24886
832.329	24935
832.467	24848
832.606	24814
832.744	24726
832.883	24852
833.022	24779
833.16	24658
833.299	24681
833.437	24798
833.576	24852
833.714	24863
833.852	24798
833.991	24947
834.129	24878
834.267	24951
834.406	24814
834.544	24871
834.682	24859
834.821	24947
834.959	25129
835.097	24875
835.235	24749
835.373	24913
835.511	24848
835.65	24779
835.788	24608
835.926	24566
836.064	24498
836.202	24505
836.34	24707
836.478	24730
836.615	24669
836.753	24658
836.891	24757
837.029	24658
837.167	24540
837.305	24433
837.443	24578
837.58	24544
837.718	24711
837.856	24437
837.993	24410
838.131	24623
838.269	24475
838.406	24448
838.544	24323
838.681	24125
838.819	24178
838.956	23988
839.094	23973
839.231	23977
839.369	24091
839.506	24369
839.643	24251
839.781	23969
839.918	24038
840.055	23969
840.193	23878
840.33	23904
840.467	23809
840.604	23859
840.742	24125
840.879	23733
841.016	23939
841.153	23752
841.29	23931
841.427	23832
841.564	23874
841.701	23840
841.838	23821
841.975	23809
842.112	23707
842.249	23695
842.385	23600
842.522	23836
842.659	23646
842.796	23638
842.933	23646
843.069	23570
843.206	23680
843.343	23741
843.479	23661
843.616	23661
843.752	23467
843.889	23520
844.025	23490
844.162	23444
844.298	23444
844.435	23505
844.571	23448
844.708	23452
844.844	23539
844.98	23653
845.117	23512
845.253	23379
845.389	23231
845.525	23326
845.661	23258
845.798	23128
845.934	23265
846.07	23098
846.206	23128
846.342	23204
846.478	23136
846.614	22953
846.75	22786
846.886	22919
847.022	22869
847.158	22930
847.294	22900
847.429	22885
847.565	22869
847.701	23033
847.837	22618
847.972	22516
848.108	22733
848.244	22637
848.379	22565
848.515	22379
848.65	22337
848.786	22424
848.921	22443
849.057	22584
849.192	22493
849.328	22641
849.463	22603
849.598	22379
849.734	22280
849.869	22295
850.004	22234
850.14	22207
850.275	22295
850.41	22086
850.545	22093
850.68	22185
850.815	22295
850.95	22299
851.085	22405
851.22	22371
851.355	22295
851.49	22249
851.625	22226
851.76	22207
851.895	22246
852.03	22173
852.165	22265
852.299	22310
852.434	22325
852.569	22238
852.703	22276
852.838	22352
852.973	22268
853.107	22318
853.242	22268
853.376	22051
853.511	21831
853.645	22025
853.78	22268
853.914	22070
854.048	22017
854.183	22074
854.317	22147
854.451	22272
854.585	22097
854.72	22086
854.854	22303
854.988	21949
855.122	22086
855.256	21869
855.39	22036
855.524	22097
855.658	22063
855.792	22082
855.926	22139
856.06	22093
856.194	22135
856.327	21960
856.461	21876
856.595	21975
856.729	22067
856.862	22093
856.996	22040
857.13	22040
857.263	22128
857.397	22154
857.53	22044
857.664	22051
857.797	22013
857.931	22196
858.064	22124
858.197	22306
858.331	22044
858.464	21975
858.597	21994
858.731	21953
858.864	21926
858.997	22116
859.13	22135
859.263	21987
859.396	22166
859.529	22002
859.662	21960
859.795	21979
859.928	22051
860.061	22207
860.194	22181
860.327	22128
860.46	22070
860.592	22166
860.725	22337
860.858	22249
860.99	22044
861.123	21911
861.256	21975
861.388	21975
861.521	22668
861.653	22097
861.786	21724
861.918	21880
862.05	21964
862.183	21953
862.315	22032
862.447	22173
862.58	22105
862.712	21831
862.844	21800
862.976	21880
863.108	21766
863.24	22192
863.372	21724
863.504	21739
863.636	21743
863.768	21736
863.9	21793
864.032	21797
864.164	21755
864.296	21812
864.428	21827
864.559	21827
864.691	21785
864.823	21789
864.954	21759
865.086	21736
865.217	21762
865.349	21572
865.48	21625
865.612	21705
865.743	21804
865.875	21800
866.006	21618
866.137	21698
866.269	21549
866.4	21622
866.531	21545
866.662	21652
866.793	21606
866.924	21633
867.055	21618
867.186	21542
867.317	21458
867.448	21511
867.579	21519
867.71	21488
867.841	21538
867.972	21580
868.103	21564
868.233	21633
868.364	21549
868.495	21652
868.625	21804
868.756	21899
868.886	21766
869.017	21774
869.147	21857
869.278	22051
869.408	21903
869.539	21728
869.669	21918
869.799	21880
869.929	22017
870.06	21937
870.19	22112
870.32	22105
870.45	22124
870.58	22200
870.71	22299
870.84	22375
870.97	22204
871.1	22147
871.23	22322
871.36	22356
871.489	22322
871.619	22226
871.749	22459
871.879	22527
872.008	22470
872.138	22363
872.267	22409
872.397	22276
872.526	22204
872.656	22352
872.785	22352
872.915	22512
873.044	22462
873.173	22386
873.303	22436
873.432	22447
873.561	22565
873.69	22519
873.819	22519
873.948	22493
874.077	22447
874.206	22455
874.335	22375
874.464	22626
874.593	22615
874.722	22557
874.851	22596
874.979	22744
875.108	22771
875.237	22721
875.365	22694
875.494	22672
875.623	22759
875.751	22634
875.88	22672
876.008	22831
876.136	22805
876.265	23010
876.393	23242
876.521	23147
876.65	23113
876.778	23006
876.906	22991
877.034	22961
877.162	23067
877.29	22911
877.418	22938
877.546	22987
877.674	22972
877.802	22968
877.93	22915
878.058	22911
878.185	22809
878.313	22866
878.441	23022
878.568	22847
878.696	23029
878.824	23052
878.951	23048
879.079	23242
879.206	23360
879.333	23117
879.461	23075
879.588	23128
879.715	23178
879.842	23353
879.97	23117
880.097	22744
880.224	22839
880.351	22919
880.478	22740
880.605	22733
880.732	22839
880.859	23037
880.986	22889
881.112	22793
881.239	22744
881.366	22508
881.493	22546
881.619	22363
881.746	22504
881.872	22360
881.999	22390
882.125	22310
882.252	22367
882.378	22363
882.505	22436
882.631	22348
882.757	22207
882.883	22177
883.01	22010
883.136	21945
883.262	22010
883.388	21934
883.514	22078
883.64	22078
883.766	21888
883.892	21869
884.018	21827
884.143	21972
884.269	22044
884.395	21835
884.52	21747
884.646	21656
884.772	21663
884.897	21720
885.023	21751
885.148	21835
885.274	21762
885.399	21804
885.524	21698
885.65	21781
885.775	21869
885.9	21778
886.025	21873
886.15	21717
886.275	21701
886.4	21504
886.525	21705
886.65	21606
886.775	21583
886.9	21838
887.025	21956
887.149	21774
887.274	21519
887.399	21393
887.523	21545
887.648	21515
887.773	21428
887.897	21576
888.021	21507
888.146	21435
888.27	21648
888.395	21511
888.519	21519
888.643	21431
888.767	21530
888.891	21424
889.015	21313
889.139	21401
889.263	21260
889.387	21439
889.511	21382
889.635	21321
889.759	21226
889.883	21298
890.006	21272
890.13	21355
890.254	21131
890.377	21230
890.501	21085
890.624	20982
890.748	21096
890.871	20785
890.995	20785
891.118	20788
891.241	20796
891.364	20956
891.488	20941
891.611	20819
891.734	20853
891.857	20891
891.98	20819
892.103	20941
892.226	20804
892.349	20800
892.471	20552
892.594	20769
892.717	20804
892.839	20762
892.962	20807
893.085	20686
893.207	20727
893.33	20716
893.452	20712
893.575	20804
893.697	20727
893.819	20826
893.941	20872
894.064	20880
894.186	20602
894.308	20705
894.43	20792
894.552	20914
894.674	20823
894.796	20583
894.918	20663
895.04	20758
895.161	20769
895.283	20678
895.405	20708
895.526	20701
895.648	20762
895.769	20807
895.891	20769
896.012	20735
896.134	20857
896.255	20636
896.376	20621
896.498	20750
896.619	20792
896.74	20625
896.861	20651
896.982	21119
897.103	21058
897.224	21009
897.345	20880
897.466	20910
897.587	20952
897.708	21100
897.828	20891
897.949	20872
898.07	20746
898.19	20815
898.311	20937
898.431	20830
898.552	20952
898.672	20944
898.792	20994
898.913	20861
899.033	20842
899.153	20659
899.273	20609
899.393	20651
899.513	20590
899.633	20670
899.753	20754
899.873	20613
899.993	20629
900.113	20530
900.232	20617
900.352	20473
900.472	20533
900.591	20355
900.711	20609
900.83	20305
900.95	20541
901.069	20526
901.189	20309
901.308	20058
901.427	20092
901.546	20031
901.665	20005
901.784	19963
901.904	19921
902.023	19845
902.141	19632
902.26	19472
902.379	19594
902.498	19457
902.617	19453
902.735	19529
902.854	19502
902.973	19487
903.091	19206
903.21	19209
903.328	19171
903.446	19046
903.565	19042
903.683	19012
903.801	18837
903.919	18890
904.038	18821
904.156	18859
904.274	18837
904.392	18661
904.51	18661
904.627	18677
904.745	18787
904.863	18738
904.981	18551
905.098	18399
905.216	18437
905.334	18506
905.451	18471
905.569	18376
905.686	18357
905.803	18464
905.921	18209
906.038	18334
906.155	18114
906.272	18087
906.389	18045
906.506	17935
906.623	17969
906.74	17828
906.857	17851
906.974	17855
907.091	17942
907.208	18148
907.324	17969
907.441	17863
907.557	17703
907.674	17699
907.79	17657
907.907	17627
908.023	17665
908.139	17665
908.256	17638
908.372	17627
908.488	17463
908.604	17391
908.72	17212
908.836	17391
908.952	17235
909.068	17387
909.184	17554
909.3	17288
909.415	17364
909.531	17239
909.647	17090
909.762	17075
909.878	17048
909.993	17045
910.108	17109
910.224	16987
910.339	17052
910.454	16965
910.57	16896
910.685	16805
910.8	17003
910.915	16949
911.03	16759
911.145	16710
911.259	16588
911.374	16580
911.489	16607
911.604	16478
911.718	16402
911.833	16360
911.947	16207
912.062	16169
912.176	16356
912.291	16390
912.405	16497
912.519	16527
912.633	16512
912.748	16432
912.862	16314
912.976	16253
913.09	16158
913.204	16120
913.318	16109
913.431	16207
913.545	16177
913.659	16360
913.772	16131
913.886	15991
914	16071
914.113	16071
914.226	16147
914.34	16090
914.453	15873
914.566	15991
914.68	15915
914.793	15850
914.906	15656
915.019	15545
915.132	15485
915.245	15511
915.358	15595
915.47	15637
915.583	15618
915.696	15504
915.809	15637
915.921	15610
916.034	15466
916.146	15412
916.259	15378
916.371	15485
916.483	15564
916.595	15370
916.708	15477
916.82	15351
916.932	15283
917.044	15325
917.156	15351
917.268	15214
917.38	15245
917.491	15116
917.603	15279
917.715	15272
917.826	15237
917.938	15199
918.049	15077
918.161	15169
918.272	15340
918.384	15214
918.495	15138
918.606	15032
918.717	14906
918.828	14998
918.939	14876
919.05	14853
919.161	14933
919.272	14754
919.383	14834
919.494	15043
919.604	15199
919.715	14941
919.826	14914
919.936	14944
920.047	14868
920.157	14933
920.267	15043
920.378	14910
920.488	14864
920.598	15047
920.708	15230
920.818	14994
920.928	14986
921.038	15310
921.148	15184
921.258	14834
921.368	14693
921.477	14583
921.587	14697
921.697	14488
921.806	14655
921.916	14415
922.025	14339
922.134	14298
922.244	14298
922.353	14355
922.462	14195
922.571	14054
922.68	14005
922.789	13959
922.898	13860
923.007	13814
923.116	13830
923.224	13955
923.333	13845
923.442	13780
923.55	13734
923.659	13731
923.767	13765
923.876	13715
923.984	13738
924.092	13537
924.201	13666
924.309	13685
924.417	13597
924.525	13537
924.633	13605
924.741	14332
924.849	13419
924.956	13422
925.064	13335
925.172	13331
925.279	13297
925.387	13411
925.494	13297
925.602	13464
925.709	13232
925.816	13232
925.924	13213
926.031	13331
926.138	13301
926.245	13259
926.352	13122
926.459	13297
926.566	13377
926.673	13133
926.779	13080
926.886	13004
926.993	12958
927.099	12863
927.206	12802
927.312	12795
927.419	12833
927.525	12875
927.631	12924
927.737	12814
927.843	12722
927.95	12570
928.056	12639
928.162	12654
928.267	12787
928.373	13263
928.479	12711
928.585	12604
928.69	12646
928.796	12642
928.901	12509
929.007	12464
929.112	12559
929.218	12410
929.323	12566
929.428	12418
929.533	12574
929.638	12315
929.743	12369
929.848	12422
929.953	12384
930.058	12273
930.163	11996
930.267	12110
930.372	12239
930.477	12079
930.581	12338
930.685	12190
930.79	11939
930.894	11996
930.998	11984
931.103	12140
931.207	11634
931.311	11710
931.415	11589
931.519	11368
931.623	11326
