Data from test_V78500241_2354.txt Node
Date: Fri Mar 25 15:58:06 CST 2022
User: usil
Spectrometer: V785-0024
Trigger mode: 0
Integration Time (sec): 4.000000E-1
Scans to average: 1
Nonlinearity correction enabled: false
Boxcar width: 0
Storing dark spectrum: false
XAxis mode: Wavelengths
Number of Pixels in Spectrum: 1024
>>>>>Begin Spectral Data<<<<<
801.071	28942
801.214	28774
801.356	28607
801.499	28584
801.641	28493
801.783	28318
801.926	28519
802.068	28379
802.211	28474
802.353	28325
802.496	28291
802.638	28299
802.78	28181
802.923	28044
803.065	28036
803.208	28006
803.35	28314
803.492	28303
803.635	28451
803.777	28314
803.919	28462
804.061	28702
804.204	28561
804.346	28322
804.488	28284
804.63	28489
804.773	28325
804.915	28432
805.057	28432
805.199	28436
805.341	28417
805.483	28531
805.626	28512
805.768	28371
805.91	28592
806.052	28462
806.194	28432
806.336	28729
806.478	28584
806.62	28554
806.762	28831
806.904	28942
807.046	29033
807.188	28911
807.33	28987
807.472	29056
807.614	28984
807.756	28961
807.898	28767
808.04	28759
808.182	28835
808.324	28866
808.465	29056
808.607	29143
808.749	29353
808.891	29406
809.033	29364
809.174	29162
809.316	29284
809.458	29334
809.6	29330
809.741	29425
809.883	29490
810.025	29554
810.166	29570
810.308	29630
810.45	29615
810.591	29562
810.733	29349
810.875	29364
811.016	29151
811.158	29105
811.299	29459
811.441	29353
811.582	29433
811.724	29250
811.865	29098
812.007	29379
812.148	29204
812.29	29391
812.431	29353
812.573	29611
812.714	29638
812.855	29859
812.997	29832
813.138	29996
813.279	29866
813.421	29714
813.562	29680
813.703	29566
813.845	29649
813.986	29315
814.127	29181
814.268	28862
814.41	29025
814.551	28888
814.692	28961
814.833	28888
814.974	28965
815.115	28999
815.256	28862
815.397	28930
815.539	28888
815.68	28797
815.821	28866
815.962	28816
816.103	28763
816.244	28702
816.385	28725
816.526	28557
816.666	28485
816.807	28242
816.948	28379
817.089	28371
817.23	28401
817.371	28379
817.512	28291
817.653	28242
817.793	28188
817.934	28360
818.075	28303
818.216	28272
818.356	28451
818.497	28215
818.638	28078
818.778	28078
818.919	28097
819.06	28223
819.2	28139
819.341	28287
819.481	28200
819.622	28497
819.762	28603
819.903	28497
820.043	28653
820.184	28474
820.324	28443
820.465	28489
820.605	28504
820.746	28299
820.886	28276
821.026	28398
821.167	28234
821.307	28428
821.447	28394
821.588	28158
821.728	28112
821.868	28040
822.008	27751
822.149	27835
822.289	27705
822.429	27561
822.569	27568
822.709	27443
822.849	27408
822.99	27237
823.13	27245
823.27	27302
823.41	27188
823.55	26918
823.69	27108
823.83	27070
823.97	27142
824.11	26998
824.25	26918
824.389	26963
824.529	26998
824.669	26902
824.809	27100
824.949	27024
825.089	26963
825.228	27055
825.368	26785
825.508	26697
825.648	26807
825.787	26819
825.927	26921
826.067	26701
826.206	26781
826.346	26838
826.485	26914
826.625	26842
826.765	26994
826.904	26861
827.044	26663
827.183	26663
827.323	26442
827.462	26606
827.601	26530
827.741	26537
827.88	26632
828.02	26461
828.159	26579
828.298	26393
828.437	26712
828.577	26480
828.716	26674
828.855	26431
828.994	26339
829.134	26317
829.273	26298
829.412	26229
829.551	26240
829.69	26248
829.829	26282
829.968	26317
830.107	26195
830.246	26256
830.385	26176
830.524	26153
830.663	26084
830.802	26031
830.941	25849
831.08	25723
831.219	25860
831.357	25871
831.496	26100
831.635	25822
831.774	25772
831.913	25689
832.051	25693
832.19	25662
832.329	25719
832.467	25468
832.606	25411
832.744	25373
832.883	25552
833.022	25540
833.16	25582
833.299	25483
833.437	25556
833.576	25693
833.714	25632
833.852	25628
833.991	25670
834.129	25670
834.267	25647
834.406	25613
834.544	25635
834.682	25384
834.821	25628
834.959	25731
835.097	25518
835.235	25518
835.373	25624
835.511	25476
835.65	25411
835.788	25495
835.926	25312
836.064	25232
836.202	25228
836.34	25168
836.478	25422
836.615	25312
836.753	25392
836.891	25430
837.029	25472
837.167	25221
837.305	25381
837.443	25312
837.58	25312
837.718	25320
837.856	25324
837.993	25118
838.131	25240
838.269	25080
838.406	25122
838.544	25050
838.681	24837
838.819	24821
838.956	24639
839.094	24726
839.231	24741
839.369	24802
839.506	25126
839.643	24909
839.781	24772
839.918	24460
840.055	24612
840.193	24593
840.33	24551
840.467	24787
840.604	24673
840.742	24856
840.879	24566
841.016	24525
841.153	24486
841.29	24692
841.427	24574
841.564	24521
841.701	24528
841.838	24540
841.975	24578
842.112	24490
842.249	24342
842.385	24475
842.522	24608
842.659	24445
842.796	24319
842.933	24304
843.069	24239
843.206	24304
843.343	24376
843.479	24467
843.616	24319
843.752	24133
843.889	24224
844.025	24224
844.162	24079
844.298	24292
844.435	24186
844.571	24068
844.708	24079
844.844	24258
844.98	24270
845.117	24125
845.253	23980
845.389	23946
845.525	23950
845.661	24018
845.798	23908
845.934	23946
846.07	23813
846.206	23855
846.342	23897
846.478	23756
846.614	23726
846.75	23520
846.886	23547
847.022	23638
847.158	23570
847.294	23596
847.429	23433
847.565	23543
847.701	23874
847.837	23311
847.972	23246
848.108	23414
848.244	23433
848.379	23265
848.515	23242
848.65	23079
848.786	23197
848.921	23197
849.057	23269
849.192	23250
849.328	23254
849.463	23178
849.598	23162
849.734	22968
849.869	23083
850.004	22930
850.14	22995
850.275	22938
850.41	22911
850.545	22889
850.68	23010
850.815	23018
850.95	22949
851.085	23200
851.22	23052
851.355	22930
851.49	22968
851.625	22812
851.76	22771
851.895	22820
852.03	22828
852.165	22839
852.299	23060
852.434	22923
852.569	22908
852.703	22915
852.838	22976
852.973	23102
853.107	22991
853.242	22949
853.376	22763
853.511	22660
853.645	22596
853.78	22885
853.914	22698
854.048	22778
854.183	22683
854.317	22862
854.451	22877
854.585	22771
854.72	22763
854.854	22771
854.988	22733
855.122	22843
855.256	22634
855.39	22618
855.524	22797
855.658	22778
855.792	22736
855.926	22782
856.06	22759
856.194	22869
856.327	22733
856.461	22675
856.595	22592
856.729	22664
856.862	22809
856.996	22782
857.13	22862
857.263	22885
857.397	22839
857.53	22694
857.664	22755
857.797	22763
857.931	22801
858.064	22626
858.197	22896
858.331	22675
858.464	22637
858.597	22615
858.731	22569
858.864	22679
858.997	22687
859.13	22771
859.263	22710
859.396	22698
859.529	22653
859.662	22573
859.795	22656
859.928	22862
860.061	22930
860.194	22949
860.327	22748
860.46	22885
860.592	22835
860.725	22923
860.858	22858
860.99	22725
861.123	22615
861.256	22596
861.388	22824
861.521	23528
861.653	22653
861.786	22489
861.918	22637
862.05	22527
862.183	22641
862.315	22622
862.447	22694
862.58	22717
862.712	22531
862.844	22447
862.976	22474
863.108	22459
863.24	22809
863.372	22280
863.504	22390
863.636	22432
863.768	22462
863.9	22428
864.032	22325
864.164	22295
864.296	22421
864.428	22588
864.559	22386
864.691	22470
864.823	22447
864.954	22516
865.086	22516
865.217	22394
865.349	22196
865.48	22234
865.612	22276
865.743	22348
865.875	22314
866.006	22234
866.137	22272
866.269	22207
866.4	22322
866.531	22280
866.662	22249
866.793	22169
866.924	22322
867.055	22215
867.186	22131
867.317	22211
867.448	22207
867.579	22230
867.71	22128
867.841	22295
867.972	22173
868.103	22120
868.233	22291
868.364	22344
868.495	22382
868.625	22440
868.756	22554
868.886	22375
869.017	22424
869.147	22443
869.278	22474
869.408	22584
869.539	22531
869.669	22451
869.799	22375
869.929	22637
870.06	22512
870.19	22854
870.32	22736
870.45	22801
870.58	22858
870.71	22919
870.84	23022
870.97	22839
871.1	22900
871.23	23102
871.36	23006
871.489	22847
871.619	22938
871.749	23083
871.879	22999
872.008	23200
872.138	23025
872.267	23132
872.397	22934
872.526	22858
872.656	22869
872.785	22885
872.915	23075
873.044	23121
873.173	23181
873.303	23204
873.432	23162
873.561	23277
873.69	23147
873.819	23094
873.948	23121
874.077	23041
874.206	23155
874.335	23170
874.464	23193
874.593	23269
874.722	23296
874.851	23322
874.979	23250
875.108	23143
875.237	23337
875.365	23227
875.494	23322
875.623	23421
875.751	23330
875.88	23345
876.008	23509
876.136	23448
876.265	23703
876.393	23649
876.521	23710
876.65	23745
876.778	23551
876.906	23592
877.034	23668
877.162	23707
877.29	23493
877.418	23455
877.546	23649
877.674	23577
877.802	23661
877.93	23718
878.058	23467
878.185	23520
878.313	23554
878.441	23577
878.568	23372
878.696	23619
878.824	23703
878.951	23779
879.079	23699
879.206	24034
879.333	23851
879.461	23684
879.588	23748
879.715	23798
879.842	23832
879.97	23752
880.097	23474
880.224	23402
880.351	23573
880.478	23448
880.605	23463
880.732	23474
880.859	23691
880.986	23478
881.112	23570
881.239	23334
881.366	23079
881.493	23151
881.619	23056
881.746	23075
881.872	23029
881.999	23018
882.125	22877
882.252	22972
882.378	23022
882.505	22984
882.631	22763
882.757	22755
882.883	22729
883.01	22691
883.136	22645
883.262	22634
883.388	22542
883.514	22763
883.64	22702
883.766	22588
883.892	22417
884.018	22443
884.143	22683
884.269	22748
884.395	22299
884.52	22265
884.646	22428
884.772	22276
884.897	22226
885.023	22356
885.148	22382
885.274	22379
885.399	22417
885.524	22318
885.65	22306
885.775	22257
885.9	22284
886.025	22413
886.15	22375
886.275	22276
886.4	22181
886.525	22348
886.65	22177
886.775	22211
886.9	22306
887.025	22409
887.149	22325
887.274	22086
887.399	22162
887.523	22017
887.648	21922
887.773	21949
887.897	22196
888.021	21994
888.146	22013
888.27	22181
888.395	22196
888.519	22162
888.643	22150
888.767	22158
888.891	21987
889.015	21873
889.139	21964
889.263	21918
889.387	21892
889.511	22074
889.635	21994
889.759	21797
889.883	21850
890.006	21800
890.13	22032
890.254	21793
890.377	21781
890.501	21595
890.624	21587
890.748	21561
890.871	21412
890.995	21439
891.118	21424
891.241	21523
891.364	21412
891.488	21591
891.611	21348
891.734	21469
891.857	21466
891.98	21469
892.103	21424
892.226	21412
892.349	21272
892.471	21199
892.594	21268
892.717	21355
892.839	21272
892.962	21393
893.085	21287
893.207	21211
893.33	21329
893.452	21291
893.575	21252
893.697	21260
893.819	21587
893.941	21485
894.064	21363
894.186	21275
894.308	21161
894.43	21321
894.552	21450
894.674	21332
894.796	21260
894.918	21214
895.04	21237
895.161	21260
895.283	21252
895.405	21184
895.526	21310
895.648	21138
895.769	21306
895.891	21313
896.012	21275
896.134	21260
896.255	21332
896.376	21272
896.498	21180
896.619	21123
896.74	21154
896.861	21389
896.982	21572
897.103	21713
897.224	21458
897.345	21545
897.466	21450
897.587	21428
897.708	21500
897.828	21412
897.949	21348
898.07	21214
898.19	21450
898.311	21500
898.431	21439
898.552	21412
898.672	21519
898.792	21412
898.913	21564
899.033	21275
899.153	21287
899.273	21135
899.393	21135
899.513	21127
899.633	21226
899.753	21169
899.873	21123
899.993	21142
900.113	21138
900.232	21203
900.352	21203
900.472	21036
900.591	20982
900.711	20982
900.83	21089
900.95	21123
901.069	20906
901.189	20902
901.308	20606
901.427	20522
901.546	20533
901.665	20476
901.784	20522
901.904	20454
902.023	20221
902.141	20157
902.26	20039
902.379	20142
902.498	20054
902.617	19982
902.735	19989
902.854	19993
902.973	20005
903.091	19738
903.21	19731
903.328	19685
903.446	19582
903.565	19468
903.683	19499
903.801	19384
903.919	19476
904.038	19415
904.156	19129
904.274	19354
904.392	19247
904.51	19209
904.627	19266
904.745	19293
904.863	19145
904.981	19053
905.098	18951
905.216	18825
905.334	19023
905.451	18844
905.569	18791
905.686	18878
905.803	18802
905.921	18719
906.038	18650
906.155	18688
906.272	18604
906.389	18555
906.506	18502
906.623	18509
906.74	18433
906.857	18247
906.974	18270
907.091	18544
907.208	18536
907.324	18369
907.441	18311
907.557	18213
907.674	18117
907.79	18091
907.907	18072
908.023	18182
908.139	18197
908.256	18003
908.372	17977
908.488	18068
908.604	17828
908.72	17893
908.836	17916
908.952	17779
909.068	17790
909.184	17866
909.3	17741
909.415	17798
909.531	17893
909.647	17630
909.762	17589
909.878	17562
909.993	17573
910.108	17516
910.224	17402
910.339	17509
910.454	17239
910.57	17227
910.685	17299
910.8	17493
910.915	17478
911.03	17296
911.145	17216
911.259	17128
911.374	17079
911.489	17041
911.604	17041
911.718	16904
911.833	16755
911.947	16820
912.062	16641
912.176	16839
912.291	16908
912.405	16949
912.519	16984
912.633	17018
912.748	16869
912.862	16828
912.976	16706
913.09	16577
913.204	16641
913.318	16675
913.431	16694
913.545	16744
913.659	16786
913.772	16618
913.886	16497
914	16379
914.113	16637
914.226	16615
914.34	16379
914.453	16295
914.566	16546
914.68	16207
914.793	16329
914.906	16025
915.019	16082
915.132	15968
915.245	16029
915.358	16112
915.47	16074
915.583	16017
915.696	16120
915.809	16116
915.921	16109
916.034	15968
916.146	15865
916.259	15934
916.371	15987
916.483	15911
916.595	15888
916.708	15903
916.82	15770
916.932	15732
917.044	15797
917.156	15823
917.268	15682
917.38	15660
917.491	15660
917.603	15641
917.715	15701
917.826	15663
917.938	15606
918.049	15473
918.161	15595
918.272	15694
918.384	15610
918.495	15519
918.606	15431
918.717	15420
918.828	15416
918.939	15363
919.05	15310
919.161	15336
919.272	15154
919.383	15218
919.494	15313
919.604	15557
919.715	15408
919.826	15245
919.936	15302
920.047	15462
920.157	15329
920.267	15561
920.378	15447
920.488	15226
920.598	15492
920.708	15595
920.818	15408
920.928	15462
921.038	15603
921.148	15553
921.258	15317
921.368	15131
921.477	15013
921.587	14998
921.697	14864
921.806	15036
921.916	14830
922.025	14773
922.134	14629
922.244	14826
922.353	14674
922.462	14625
922.571	14507
922.68	14377
922.789	14252
922.898	14366
923.007	14282
923.116	14324
923.224	14309
923.333	14176
923.442	14259
923.55	14168
923.659	14183
923.767	14134
923.876	14145
923.984	14172
924.092	14043
924.201	14084
924.309	14050
924.417	14024
924.525	13955
924.633	13928
924.741	14823
924.849	13803
924.956	13913
925.064	13639
925.172	13537
925.279	13658
925.387	13662
925.494	13647
925.602	13742
925.709	13799
925.816	13495
925.924	13689
926.031	13696
926.138	13643
926.245	13647
926.352	13518
926.459	13708
926.566	13715
926.673	13537
926.779	13457
926.886	13377
926.993	13244
927.099	13293
927.206	13156
927.312	13183
927.419	13270
927.525	13168
927.631	13244
927.737	13171
927.843	13137
927.95	12932
928.056	12989
928.162	13061
928.267	13122
928.373	13655
928.479	13080
928.585	12913
928.69	13015
928.796	12985
928.901	12802
929.007	12700
929.112	12863
929.218	12817
929.323	12757
929.428	12825
929.533	12791
929.638	12673
929.743	12707
929.848	12650
929.953	12707
930.058	12601
930.163	12437
930.267	12399
930.372	12536
930.477	12311
930.581	12582
930.685	12422
930.79	12323
930.894	12380
930.998	12266
931.103	12448
931.207	11984
931.311	11961
931.415	11843
931.519	11691
931.623	11649
