Data from test_V78500241_2641.txt Node
Date: Fri Mar 25 16:00:05 CST 2022
User: usil
Spectrometer: V785-0024
Trigger mode: 0
Integration Time (sec): 4.000000E-1
Scans to average: 1
Nonlinearity correction enabled: false
Boxcar width: 0
Storing dark spectrum: false
XAxis mode: Wavelengths
Number of Pixels in Spectrum: 1024
>>>>>Begin Spectral Data<<<<<
801.071	28386
801.214	28257
801.356	28116
801.499	28109
801.641	28017
801.783	27930
801.926	27903
802.068	27865
802.211	28116
802.353	27800
802.496	27663
802.638	27660
802.78	27610
802.923	27492
803.065	27523
803.208	27523
803.35	27660
803.492	27823
803.635	27838
803.777	27770
803.919	27895
804.061	28158
804.204	27888
804.346	27804
804.488	27648
804.63	27888
804.773	27789
804.915	27991
805.057	27854
805.199	27869
805.341	27907
805.483	27956
805.626	28025
805.768	28013
805.91	27941
806.052	28143
806.194	27781
806.336	28192
806.478	27994
806.62	28021
806.762	28162
806.904	28390
807.046	28462
807.188	28554
807.33	28519
807.472	28557
807.614	28440
807.756	28428
807.898	28375
808.04	28234
808.182	28059
808.324	28424
808.465	28436
808.607	28447
808.749	28653
808.891	28725
809.033	28908
809.174	28782
809.316	28656
809.458	28664
809.6	28664
809.741	28793
809.883	28698
810.025	28930
810.166	28854
810.308	28999
810.45	28949
810.591	28847
810.733	28611
810.875	28618
811.016	28588
811.158	28607
811.299	28645
811.441	28930
811.582	28774
811.724	28683
811.865	28664
812.007	28774
812.148	28698
812.29	28744
812.431	28797
812.573	29018
812.714	29128
812.855	29102
812.997	29414
813.138	29387
813.279	29406
813.421	29162
813.562	29204
813.703	28946
813.845	28881
813.986	28637
814.127	28485
814.268	28325
814.41	28436
814.551	28360
814.692	28337
814.833	28249
814.974	28401
815.115	28421
815.256	28306
815.397	28181
815.539	28078
815.68	28310
815.821	28181
815.962	28348
816.103	28234
816.244	28131
816.385	27972
816.526	27968
816.666	27865
816.807	27675
816.948	27580
817.089	27819
817.23	27728
817.371	27724
817.512	27679
817.653	27625
817.793	27644
817.934	27682
818.075	27751
818.216	27629
818.356	27622
818.497	27526
818.638	27348
818.778	27306
818.919	27348
819.06	27473
819.2	27507
819.341	27660
819.481	27694
819.622	27789
819.762	28029
819.903	28002
820.043	27838
820.184	27880
820.324	27709
820.465	27991
820.605	27778
820.746	27747
820.886	27625
821.026	27682
821.167	27679
821.307	27762
821.447	27701
821.588	27523
821.728	27485
821.868	27207
822.008	27131
822.149	27150
822.289	27207
822.429	26998
822.569	26758
822.709	26864
822.849	26686
822.99	26750
823.13	26644
823.27	26606
823.41	26461
823.55	26492
823.69	26541
823.83	26393
823.97	26385
824.11	26320
824.25	26320
824.389	26210
824.529	26419
824.669	26396
824.809	26476
824.949	26286
825.089	26362
825.228	26240
825.368	26290
825.508	26294
825.648	26202
825.787	26229
825.927	26267
826.067	26149
826.206	26183
826.346	26130
826.485	26347
826.625	26062
826.765	26256
826.904	26142
827.044	25917
827.183	26031
827.323	25814
827.462	26001
827.601	25921
827.741	25746
827.88	25826
828.02	25803
828.159	25875
828.298	25826
828.437	25978
828.577	25902
828.716	25898
828.855	25833
828.994	25647
829.134	25605
829.273	25647
829.412	25537
829.551	25518
829.69	25620
829.829	25651
829.968	25616
830.107	25712
830.246	25639
830.385	25635
830.524	25499
830.663	25362
830.802	25263
830.941	25244
831.08	25095
831.219	25213
831.357	25160
831.496	25381
831.635	25285
831.774	25072
831.913	25137
832.051	25042
832.19	24882
832.329	25012
832.467	24867
832.606	24844
832.744	24734
832.883	24726
833.022	24833
833.16	24749
833.299	24977
833.437	24871
833.576	24909
833.714	24837
833.852	24977
833.991	24996
834.129	25122
834.267	25034
834.406	24833
834.544	24954
834.682	25015
834.821	24954
834.959	24989
835.097	24817
835.235	24886
835.373	24772
835.511	24882
835.65	24840
835.788	24772
835.926	24677
836.064	24483
836.202	24559
836.34	24856
836.478	24757
836.615	24707
836.753	24692
836.891	24787
837.029	24726
837.167	24711
837.305	24688
837.443	24631
837.58	24547
837.718	24559
837.856	24620
837.993	24429
838.131	24513
838.269	24593
838.406	24426
838.544	24300
838.681	24106
838.819	24216
838.956	24106
839.094	24015
839.231	24178
839.369	24209
839.506	24456
839.643	24152
839.781	23977
839.918	24057
840.055	23965
840.193	23958
840.33	23935
840.467	24026
840.604	24022
840.742	24209
840.879	23847
841.016	23779
841.153	23885
841.29	24034
841.427	23992
841.564	23992
841.701	23988
841.838	23893
841.975	23764
842.112	23874
842.249	23821
842.385	23695
842.522	23958
842.659	23920
842.796	23687
842.933	23646
843.069	23573
843.206	23611
843.343	23703
843.479	23592
843.616	23745
843.752	23509
843.889	23493
844.025	23642
844.162	23448
844.298	23528
844.435	23535
844.571	23570
844.708	23482
844.844	23589
844.98	23600
845.117	23611
845.253	23425
845.389	23277
845.525	23376
845.661	23250
845.798	23174
845.934	23311
846.07	23246
846.206	23223
846.342	23197
846.478	23216
846.614	22873
846.75	22927
846.886	22831
847.022	23022
847.158	23079
847.294	22957
847.429	23041
847.565	23018
847.701	23109
847.837	22626
847.972	22668
848.108	22736
848.244	22626
848.379	22531
848.515	22535
848.65	22618
848.786	22603
848.921	22645
849.057	22653
849.192	22649
849.328	22573
849.463	22462
849.598	22455
849.734	22341
849.869	22352
850.004	22261
850.14	22325
850.275	22280
850.41	22375
850.545	22116
850.68	22150
850.815	22356
850.95	22242
851.085	22489
851.22	22379
851.355	22367
851.49	22272
851.625	22188
851.76	22192
851.895	22276
852.03	22226
852.165	22299
852.299	22466
852.434	22314
852.569	22447
852.703	22341
852.838	22291
852.973	22538
853.107	22428
853.242	22169
853.376	22143
853.511	22013
853.645	22139
853.78	22246
853.914	22063
854.048	22215
854.183	22097
854.317	22204
854.451	22306
854.585	22013
854.72	22105
854.854	22169
854.988	22097
855.122	22211
855.256	22078
855.39	22093
855.524	22169
855.658	22105
855.792	22070
855.926	22265
856.06	22188
856.194	22261
856.327	22010
856.461	22070
856.595	22173
856.729	22147
856.862	22318
856.996	22169
857.13	22181
857.263	22322
857.397	22139
857.53	22154
857.664	22150
857.797	22249
857.931	22204
858.064	22158
858.197	22325
858.331	22158
858.464	22078
858.597	22032
858.731	22021
858.864	22040
858.997	22048
859.13	22112
859.263	22211
859.396	22272
859.529	22177
859.662	22093
859.795	22086
859.928	22154
860.061	22322
860.194	22356
860.327	22310
860.46	22246
860.592	22265
860.725	22234
860.858	22318
860.99	22185
861.123	22010
861.256	22021
861.388	22169
861.521	22908
861.653	21983
861.786	21873
861.918	22051
862.05	22090
862.183	21903
862.315	22124
862.447	22105
862.58	22139
862.712	21797
862.844	21785
862.976	21911
863.108	21998
863.24	22413
863.372	21888
863.504	21903
863.636	21880
863.768	21991
863.9	21865
864.032	21724
864.164	21865
864.296	21827
864.428	21880
864.559	21850
864.691	21915
864.823	21915
864.954	21816
865.086	21762
865.217	21800
865.349	21717
865.48	21690
865.612	21720
865.743	21949
865.875	21736
866.006	21682
866.137	21842
866.269	21759
866.4	21667
866.531	21671
866.662	21583
866.793	21614
866.924	21797
867.055	21686
867.186	21663
867.317	21610
867.448	21526
867.579	21675
867.71	21667
867.841	21587
867.972	21679
868.103	21618
868.233	21663
868.364	21793
868.495	21633
868.625	21785
868.756	22090
868.886	21865
869.017	21873
869.147	22025
869.278	22040
869.408	21869
869.539	21892
869.669	22029
869.799	21998
869.929	22090
870.06	21998
870.19	22177
870.32	22128
870.45	22238
870.58	22310
870.71	22371
870.84	22405
870.97	22265
871.1	22367
871.23	22413
871.36	22523
871.489	22451
871.619	22508
871.749	22443
871.879	22367
872.008	22592
872.138	22538
872.267	22542
872.397	22390
872.526	22390
872.656	22291
872.785	22333
872.915	22489
873.044	22542
873.173	22405
873.303	22626
873.432	22516
873.561	22611
873.69	22546
873.819	22519
873.948	22485
874.077	22618
874.206	22603
874.335	22592
874.464	22683
874.593	22831
874.722	22683
874.851	22816
874.979	22793
875.108	22679
875.237	22668
875.365	22641
875.494	22691
875.623	22816
875.751	22755
875.88	22694
876.008	22729
876.136	22919
876.265	23048
876.393	23143
876.521	23147
876.65	23117
876.778	23315
876.906	23094
877.034	23090
877.162	23204
877.29	23022
877.418	23102
877.546	23079
877.674	23105
877.802	23128
877.93	22961
878.058	23006
878.185	22965
878.313	22976
878.441	23025
878.568	22900
878.696	23064
878.824	23060
878.951	23143
879.079	23322
879.206	23303
879.333	23307
879.461	23143
879.588	23197
879.715	23147
879.842	23292
879.97	23185
880.097	22824
880.224	22850
880.351	22881
880.478	22930
880.605	22908
880.732	22938
880.859	23052
880.986	22938
881.112	22908
881.239	22694
881.366	22546
881.493	22611
881.619	22569
881.746	22504
881.872	22481
881.999	22432
882.125	22417
882.252	22386
882.378	22443
882.505	22527
882.631	22402
882.757	22265
882.883	22188
883.01	22276
883.136	22166
883.262	22109
883.388	22063
883.514	22040
883.64	22261
883.766	22093
883.892	21964
884.018	21975
884.143	22032
884.269	22204
884.395	22029
884.52	21808
884.646	21850
884.772	21724
884.897	21846
885.023	21797
885.148	21793
885.274	21797
885.399	21800
885.524	21736
885.65	21690
885.775	21800
885.9	21701
886.025	21953
886.15	21899
886.275	21728
886.4	21679
886.525	21751
886.65	21660
886.775	21720
886.9	21918
887.025	21964
887.149	21709
887.274	21606
887.399	21583
887.523	21644
887.648	21564
887.773	21428
887.897	21519
888.021	21572
888.146	21481
888.27	21587
888.395	21679
888.519	21580
888.643	21523
888.767	21549
888.891	21488
889.015	21226
889.139	21443
889.263	21382
889.387	21397
889.511	21469
889.635	21405
889.759	21249
889.883	21359
890.006	21332
890.13	21481
890.254	21412
890.377	21184
890.501	21211
890.624	21001
890.748	21195
890.871	20956
890.995	20933
891.118	20918
891.241	20819
891.364	20815
891.488	21039
891.611	20918
891.734	20895
891.857	21005
891.98	20861
892.103	20910
892.226	20872
892.349	20819
892.471	20617
892.594	20842
892.717	20864
892.839	20853
892.962	20765
893.085	20800
893.207	20727
893.33	20621
893.452	20739
893.575	20819
893.697	20731
893.819	21043
893.941	21047
894.064	20838
894.186	20758
894.308	20621
894.43	20891
894.552	20895
894.674	20796
894.796	20716
894.918	20758
895.04	20765
895.161	20807
895.283	20781
895.405	20716
895.526	20830
895.648	20651
895.769	20769
895.891	20830
896.012	20834
896.134	20800
896.255	20765
896.376	20750
896.498	20739
896.619	20762
896.74	20754
896.861	20861
896.982	21116
897.103	21116
897.224	21013
897.345	20944
897.466	20872
897.587	21028
897.708	21119
897.828	21043
897.949	20963
898.07	20842
898.19	20845
898.311	21112
898.431	20887
898.552	21096
898.672	21074
898.792	21020
898.913	21127
899.033	21032
899.153	20720
899.273	20659
899.393	20754
899.513	20781
899.633	20716
899.753	20708
899.873	20708
899.993	20849
900.113	20640
900.232	20746
900.352	20587
900.472	20667
900.591	20495
900.711	20518
900.83	20385
900.95	20613
901.069	20537
901.189	20294
901.308	20237
901.427	20183
901.546	20092
901.665	20081
901.784	20027
901.904	19875
902.023	19765
902.141	19704
902.26	19586
902.379	19727
902.498	19632
902.617	19594
902.735	19597
902.854	19552
902.973	19476
903.091	19308
903.21	19293
903.328	19293
903.446	19156
903.565	19232
903.683	19107
903.801	18875
903.919	18897
904.038	18981
904.156	18764
904.274	18859
904.392	18726
904.51	18738
904.627	18730
904.745	18848
904.863	18867
904.981	18642
905.098	18547
905.216	18513
905.334	18452
905.451	18547
905.569	18483
905.686	18395
905.803	18410
905.921	18330
906.038	18498
906.155	18235
906.272	18140
906.389	18026
906.506	18064
906.623	17980
906.74	17965
906.857	17961
906.974	17992
907.091	18007
907.208	18072
907.324	17973
907.441	17885
907.557	17741
907.674	17668
907.79	17672
907.907	17691
908.023	17764
908.139	17646
908.256	17623
908.372	17634
908.488	17478
908.604	17429
908.72	17356
908.836	17410
908.952	17376
909.068	17649
909.184	17581
909.3	17387
909.415	17398
909.531	17383
909.647	17140
909.762	17064
909.878	17014
909.993	17121
910.108	17109
910.224	17048
910.339	17113
910.454	16999
910.57	16896
910.685	16812
910.8	17071
910.915	16972
911.03	16873
911.145	16710
911.259	16656
911.374	16687
911.489	16561
911.604	16546
911.718	16500
911.833	16402
911.947	16443
912.062	16238
912.176	16405
912.291	16478
912.405	16588
912.519	16653
912.633	16618
912.748	16459
912.862	16489
912.976	16246
913.09	16112
913.204	16276
913.318	16219
913.431	16325
913.545	16352
913.659	16375
913.772	16147
913.886	16071
914	16177
914.113	16147
914.226	16128
914.34	16074
914.453	15956
914.566	16147
914.68	16093
914.793	15934
914.906	15747
915.019	15633
915.132	15568
915.245	15644
915.358	15663
915.47	15530
915.583	15568
915.696	15759
915.809	15667
915.921	15785
916.034	15580
916.146	15523
916.259	15439
916.371	15606
916.483	15485
916.595	15447
916.708	15545
916.82	15424
916.932	15424
917.044	15340
917.156	15355
917.268	15268
917.38	15291
917.491	15192
917.603	15256
917.715	15298
917.826	15245
917.938	15176
918.049	15116
918.161	15241
918.272	15272
918.384	15306
918.495	15245
918.606	14967
918.717	14906
918.828	15070
918.939	15043
919.05	14895
919.161	15032
919.272	14758
919.383	14705
919.494	14990
919.604	15165
919.715	15043
919.826	14899
919.936	14948
920.047	15024
920.157	15036
920.267	15176
920.378	15020
920.488	14918
920.598	15116
920.708	15199
920.818	15089
920.928	15138
921.038	15241
921.148	15275
921.258	14899
921.368	14811
921.477	14746
921.587	14716
921.697	14575
921.806	14629
921.916	14590
922.025	14446
922.134	14370
922.244	14248
922.353	14396
922.462	14229
922.571	14195
922.68	14103
922.789	13967
922.898	13982
923.007	13947
923.116	14001
923.224	13947
923.333	13978
923.442	13826
923.55	13822
923.659	13830
923.767	13883
923.876	13830
923.984	13791
924.092	13700
924.201	13727
924.309	13681
924.417	13704
924.525	13677
924.633	13582
924.741	14632
924.849	13502
924.956	13616
925.064	13468
925.172	13331
925.279	13476
925.387	13422
925.494	13415
925.602	13449
925.709	13510
925.816	13278
925.924	13354
926.031	13426
926.138	13331
926.245	13339
926.352	13152
926.459	13396
926.566	13388
926.673	13209
926.779	13240
926.886	13152
926.993	13019
927.099	12886
927.206	12973
927.312	12844
927.419	12954
927.525	12970
927.631	12939
927.737	12878
927.843	12817
927.95	12662
928.056	12719
928.162	12798
928.267	12825
928.373	13316
928.479	12840
928.585	12525
928.69	12749
928.796	12741
928.901	12555
929.007	12448
929.112	12688
929.218	12631
929.323	12475
929.428	12494
929.533	12536
929.638	12441
929.743	12388
929.848	12433
929.953	12388
930.058	12266
930.163	12159
930.267	12254
930.372	12247
930.477	12068
930.581	12319
930.685	12197
930.79	12076
930.894	12022
930.998	12019
931.103	12197
931.207	11710
931.311	11786
931.415	11668
931.519	11395
931.623	11360
