Data from test_V78500241_919.txt Node
Date: Fri Mar 25 15:48:10 CST 2022
User: usil
Spectrometer: V785-0024
Trigger mode: 0
Integration Time (sec): 4.000000E-1
Scans to average: 1
Nonlinearity correction enabled: false
Boxcar width: 0
Storing dark spectrum: false
XAxis mode: Wavelengths
Number of Pixels in Spectrum: 1024
>>>>>Begin Spectral Data<<<<<
801.071	27968
801.214	27941
801.356	27561
801.499	27405
801.641	27454
801.783	27405
801.926	27561
802.068	27488
802.211	27302
802.353	27310
802.496	27020
802.638	27043
802.78	26887
802.923	27017
803.065	26937
803.208	27062
803.35	27127
803.492	27024
803.635	27176
803.777	27096
803.919	27188
804.061	27485
804.204	27245
804.346	27135
804.488	27252
804.63	27230
804.773	27176
804.915	27321
805.057	27389
805.199	27321
805.341	27306
805.483	27359
805.626	27374
805.768	27264
805.91	27397
806.052	27530
806.194	27359
806.336	27492
806.478	27435
806.62	27386
806.762	27427
806.904	27682
807.046	27797
807.188	27778
807.33	27892
807.472	27907
807.614	27827
807.756	27812
807.898	27698
808.04	27656
808.182	27667
808.324	27690
808.465	27778
808.607	27949
808.749	27964
808.891	28139
809.033	28101
809.174	28162
809.316	28078
809.458	28036
809.6	28021
809.741	28128
809.883	28303
810.025	28382
810.166	28401
810.308	28265
810.45	28272
810.591	28192
810.733	28025
810.875	27972
811.016	28006
811.158	27934
811.299	28120
811.441	28188
811.582	28246
811.724	28131
811.865	28078
812.007	28105
812.148	28090
812.29	28150
812.431	28185
812.573	28325
812.714	28554
812.855	28603
812.997	28592
813.138	28664
813.279	28733
813.421	28618
813.562	28588
813.703	28341
813.845	28265
813.986	27956
814.127	27857
814.268	27774
814.41	27713
814.551	27793
814.692	27911
814.833	27778
814.974	27580
815.115	27705
815.256	27660
815.397	27679
815.539	27717
815.68	27583
815.821	27344
815.962	27500
816.103	27443
816.244	27439
816.385	27447
816.526	27332
816.666	27017
816.807	26986
816.948	27093
817.089	27249
817.23	27142
817.371	26956
817.512	27081
817.653	27062
817.793	26979
817.934	27043
818.075	27013
818.216	26963
818.356	27051
818.497	26804
818.638	26887
818.778	26785
818.919	26754
819.06	26769
819.2	26895
819.341	27017
819.481	26937
819.622	27096
819.762	27348
819.903	27306
820.043	27226
820.184	27119
820.324	27066
820.465	27252
820.605	27161
820.746	27131
820.886	26967
821.026	27077
821.167	27093
821.307	27169
821.447	27100
821.588	26910
821.728	26739
821.868	26659
822.008	26484
822.149	26438
822.289	26453
822.429	26191
822.569	26301
822.709	26161
822.849	26035
822.99	26043
823.13	26001
823.27	25860
823.41	25795
823.55	25761
823.69	25799
823.83	25818
823.97	25845
824.11	25616
824.25	25590
824.389	25578
824.529	25624
824.669	25715
824.809	25780
824.949	25803
825.089	25803
825.228	25655
825.368	25514
825.508	25529
825.648	25628
825.787	25651
825.927	25594
826.067	25487
826.206	25472
826.346	25708
826.485	25556
826.625	25316
826.765	25582
826.904	25567
827.044	25289
827.183	25263
827.323	25270
827.462	25244
827.601	25221
827.741	25202
827.88	25354
828.02	25232
828.159	25110
828.298	25301
828.437	25266
828.577	25206
828.716	25388
828.855	24981
828.994	25031
829.134	24989
829.273	25061
829.412	24901
829.551	24738
829.69	24932
829.829	24871
829.968	24935
830.107	24939
830.246	24817
830.385	24856
830.524	24947
830.663	24806
830.802	24741
830.941	24544
831.08	24475
831.219	24631
831.357	24669
831.496	24719
831.635	24540
831.774	24323
831.913	24414
832.051	24315
832.19	24528
832.329	24330
832.467	24197
832.606	24125
832.744	24220
832.883	24117
833.022	24121
833.16	24216
833.299	24262
833.437	24220
833.576	24251
833.714	24220
833.852	24258
833.991	24270
834.129	24391
834.267	24270
834.406	24334
834.544	24232
834.682	24327
834.821	24300
834.959	24357
835.097	24304
835.235	24277
835.373	24224
835.511	24232
835.65	24114
835.788	24186
835.926	23980
836.064	23950
836.202	23863
836.34	24079
836.478	24277
836.615	24117
836.753	24045
836.891	24209
837.029	24007
837.167	24095
837.305	23988
837.443	24030
837.58	23958
837.718	23935
837.856	24053
837.993	23935
838.131	23923
838.269	23729
838.406	23847
838.544	23699
838.681	23657
838.819	23672
838.956	23410
839.094	23356
839.231	23406
839.369	23695
839.506	23840
839.643	23604
839.781	23250
839.918	23330
840.055	23551
840.193	23391
840.33	23360
840.467	23349
840.604	23208
840.742	23539
840.879	23147
841.016	23349
841.153	23261
841.29	23303
841.427	23364
841.564	23326
841.701	23326
841.838	23280
841.975	23166
842.112	23151
842.249	23098
842.385	23102
842.522	23303
842.659	23044
842.796	23014
842.933	23113
843.069	22972
843.206	23037
843.343	23117
843.479	23102
843.616	23151
843.752	22786
843.889	22904
844.025	22953
844.162	22793
844.298	22839
844.435	22820
844.571	22809
844.708	22900
844.844	23029
844.98	23010
845.117	22900
845.253	22717
845.389	22786
845.525	22721
845.661	22733
845.798	22557
845.934	22641
846.07	22527
846.206	22607
846.342	22748
846.478	22462
846.614	22436
846.75	22253
846.886	22314
847.022	22394
847.158	22413
847.294	22253
847.429	22382
847.565	22230
847.701	22459
847.837	22036
847.972	21907
848.108	22082
848.244	22101
848.379	21895
848.515	21903
848.65	21812
848.786	21918
848.921	21911
849.057	21960
849.192	21903
849.328	21975
849.463	21812
849.598	21842
849.734	21835
849.869	21785
850.004	21728
850.14	21633
850.275	21637
850.41	21663
850.545	21656
850.68	21656
850.815	21599
850.95	21545
851.085	21793
851.22	21728
851.355	21583
851.49	21568
851.625	21663
851.76	21656
851.895	21599
852.03	21599
852.165	21675
852.299	21762
852.434	21789
852.569	21728
852.703	21595
852.838	21644
852.973	21846
853.107	21759
853.242	21526
853.376	21526
853.511	21420
853.645	21469
853.78	21583
853.914	21523
854.048	21416
854.183	21488
854.317	21511
854.451	21679
854.585	21359
854.72	21439
854.854	21424
854.988	21412
855.122	21504
855.256	21272
855.39	21348
855.524	21481
855.658	21526
855.792	21477
855.926	21481
856.06	21595
856.194	21564
856.327	21485
856.461	21351
856.595	21447
856.729	21530
856.862	21549
856.996	21485
857.13	21595
857.263	21526
857.397	21515
857.53	21447
857.664	21564
857.797	21553
857.931	21564
858.064	21389
858.197	21534
858.331	21431
858.464	21447
858.597	21302
858.731	21412
858.864	21523
858.997	21519
859.13	21477
859.263	21462
859.396	21572
859.529	21443
859.662	21435
859.795	21397
859.928	21454
860.061	21705
860.194	21679
860.327	21557
860.46	21496
860.592	21591
860.725	21667
860.858	21656
860.99	21500
861.123	21435
861.256	21481
861.388	21523
861.521	22226
861.653	21344
861.786	21291
861.918	21287
862.05	21367
862.183	21500
862.315	21447
862.447	21477
862.58	21530
862.712	21074
862.844	21195
862.976	21192
863.108	21260
863.24	21618
863.372	21066
863.504	21211
863.636	21233
863.768	21249
863.9	21077
864.032	21028
864.164	21116
864.296	21264
864.428	21230
864.559	21245
864.691	21169
864.823	21203
864.954	21161
865.086	21252
865.217	21131
865.349	21058
865.48	21157
865.612	21096
865.743	21161
865.875	21112
866.006	20994
866.137	21131
866.269	21089
866.4	21127
866.531	20918
866.662	21032
866.793	21070
866.924	21032
867.055	21081
867.186	21051
867.317	21028
867.448	20963
867.579	20929
867.71	20933
867.841	20880
867.972	20948
868.103	20967
868.233	20967
868.364	21009
868.495	21108
868.625	21150
868.756	21321
868.886	21192
869.017	21180
869.147	21397
869.278	21412
869.408	21264
869.539	21169
869.669	21355
869.799	21306
869.929	21401
870.06	21378
870.19	21507
870.32	21534
870.45	21473
870.58	21583
870.71	21736
870.84	21671
870.97	21671
871.1	21770
871.23	21819
871.36	21800
871.489	21759
871.619	21789
871.749	21983
871.879	21915
872.008	21983
872.138	21831
872.267	21903
872.397	21785
872.526	21709
872.656	21717
872.785	21728
872.915	21838
873.044	21956
873.173	21956
873.303	21953
873.432	21975
873.561	21994
873.69	21949
873.819	21804
873.948	21865
874.077	22017
874.206	21838
874.335	21831
874.464	22086
874.593	22223
874.722	22101
874.851	22196
874.979	22109
875.108	22070
875.237	22116
875.365	22051
875.494	22090
875.623	22143
875.751	22010
875.88	22135
876.008	22173
876.136	22310
876.265	22440
876.393	22626
876.521	22622
876.65	22462
876.778	22462
876.906	22367
877.034	22360
877.162	22363
877.29	22371
877.418	22459
877.546	22531
877.674	22451
877.802	22485
877.93	22405
878.058	22466
878.185	22390
878.313	22421
878.441	22481
878.568	22211
878.696	22367
878.824	22527
878.951	22519
879.079	22664
879.206	22691
879.333	22569
879.461	22478
879.588	22546
879.715	22679
879.842	22706
879.97	22573
880.097	22226
880.224	22272
880.351	22295
880.478	22265
880.605	22219
880.732	22173
880.859	22443
880.986	22272
881.112	22348
881.239	22166
881.366	22025
881.493	21903
881.619	21911
881.746	21869
881.872	21934
881.999	21945
882.125	21854
882.252	21804
882.378	21850
882.505	21899
882.631	21755
882.757	21591
882.883	21694
883.01	21534
883.136	21469
883.262	21405
883.388	21382
883.514	21526
883.64	21500
883.766	21405
883.892	21302
884.018	21325
884.143	21450
884.269	21549
884.395	21241
884.52	21028
884.646	21146
884.772	21138
884.897	21116
885.023	21192
885.148	21252
885.274	21306
885.399	21302
885.524	21123
885.65	21310
885.775	21192
885.9	21169
886.025	21214
886.15	21268
886.275	21131
886.4	21036
886.525	21096
886.65	21013
886.775	21032
886.9	21332
887.025	21378
887.149	21180
887.274	20948
887.399	20910
887.523	20971
887.648	20925
887.773	20804
887.897	21100
888.021	21070
888.146	20842
888.27	20982
888.395	20933
888.519	20902
888.643	20861
888.767	20990
888.891	20845
889.015	20849
889.139	20826
889.263	20792
889.387	20845
889.511	20998
889.635	20986
889.759	20716
889.883	20689
890.006	20678
890.13	20842
890.254	20648
890.377	20564
890.501	20564
890.624	20415
890.748	20549
890.871	20492
890.995	20294
891.118	20218
891.241	20309
891.364	20286
891.488	20393
891.611	20355
891.734	20370
891.857	20400
891.98	20317
892.103	20400
892.226	20298
892.349	20294
892.471	20077
892.594	20237
892.717	20233
892.839	20172
892.962	20271
893.085	20267
893.207	20210
893.33	20081
893.452	20153
893.575	20343
893.697	20263
893.819	20339
893.941	20461
894.064	20301
894.186	20172
894.308	20031
894.43	20259
894.552	20263
894.674	20210
894.796	20161
894.918	20161
895.04	20278
895.161	20259
895.283	20298
895.405	20180
895.526	20210
895.648	20221
895.769	20396
895.891	20328
896.012	20229
896.134	20343
896.255	20180
896.376	20256
896.498	20145
896.619	20267
896.74	20164
896.861	20206
896.982	20613
897.103	20663
897.224	20518
897.345	20419
897.466	20313
897.587	20480
897.708	20533
897.828	20492
897.949	20431
898.07	20191
898.19	20366
898.311	20495
898.431	20355
898.552	20355
898.672	20419
898.792	20511
898.913	20408
899.033	20305
899.153	20210
899.273	20153
899.393	20134
899.513	20320
899.633	20278
899.753	20267
899.873	20195
899.993	20278
900.113	20122
900.232	20145
900.352	20206
900.472	19967
900.591	19940
900.711	20069
900.83	19921
900.95	20016
901.069	20046
901.189	19940
901.308	19685
901.427	19521
901.546	19506
901.665	19715
901.784	19590
901.904	19365
902.023	19381
902.141	19194
902.26	19137
902.379	19133
902.498	19012
902.617	18932
902.735	19122
902.854	18943
902.973	18970
903.091	18806
903.21	18772
903.328	18719
903.446	18665
903.565	18475
903.683	18563
903.801	18426
903.919	18433
904.038	18452
904.156	18300
904.274	18403
904.392	18365
904.51	18319
904.627	18315
904.745	18346
904.863	18232
904.981	18026
905.098	17958
905.216	17942
905.334	18019
905.451	18007
905.569	18015
905.686	17935
905.803	17843
905.921	17809
906.038	17882
906.155	17760
906.272	17630
906.389	17642
906.506	17554
906.623	17440
906.74	17463
906.857	17429
906.974	17433
907.091	17551
907.208	17680
907.324	17467
907.441	17425
907.557	17242
907.674	17216
907.79	17143
907.907	17178
908.023	17235
908.139	17200
908.256	17098
908.372	16987
908.488	17121
908.604	17018
908.72	16771
908.836	16869
908.952	16942
909.068	16797
909.184	17029
909.3	16915
909.415	16976
909.531	16824
909.647	16672
909.762	16687
909.878	16645
909.993	16664
910.108	16626
910.224	16645
910.339	16607
910.454	16603
910.57	16413
910.685	16382
910.8	16577
910.915	16580
911.03	16493
911.145	16314
911.259	16230
911.374	16219
911.489	16124
911.604	16090
911.718	16071
911.833	16006
911.947	15892
912.062	15835
912.176	16051
912.291	15979
912.405	15941
912.519	16188
912.633	16124
912.748	15953
912.862	16032
912.976	15762
913.09	15751
913.204	15675
913.318	15785
913.431	15827
913.545	15850
913.659	15850
913.772	15728
913.886	15629
914	15614
914.113	15648
914.226	15698
914.34	15660
914.453	15473
914.566	15603
914.68	15374
914.793	15500
914.906	15317
915.019	15249
915.132	15138
915.245	15180
915.358	15157
915.47	15226
915.583	15100
915.696	15294
915.809	15291
915.921	15435
916.034	15058
916.146	15066
916.259	15062
916.371	15230
916.483	15062
916.595	15009
916.708	15032
916.82	15028
916.932	15005
917.044	14979
917.156	14941
917.268	14906
917.38	14785
917.491	14815
917.603	14899
917.715	14933
917.826	14937
917.938	14746
918.049	14655
918.161	14861
918.272	14887
918.384	14929
918.495	14743
918.606	14655
918.717	14545
918.828	14526
918.939	14583
919.05	14473
919.161	14495
919.272	14294
919.383	14389
919.494	14636
919.604	14826
919.715	14678
919.826	14579
919.936	14583
920.047	14651
920.157	14613
920.267	14781
920.378	14602
920.488	14484
920.598	14678
920.708	14921
920.818	14708
920.928	14743
921.038	14887
921.148	14823
921.258	14568
921.368	14336
921.477	14237
921.587	14355
921.697	14191
921.806	14305
921.916	14153
922.025	13997
922.134	13917
922.244	13879
922.353	13967
922.462	13811
922.571	13830
922.68	13708
922.789	13590
922.898	13632
923.007	13548
923.116	13613
923.224	13601
923.333	13495
923.442	13407
923.55	13472
923.659	13453
923.767	13514
923.876	13365
923.984	13480
924.092	13335
924.201	13422
924.309	13392
924.417	13441
924.525	13206
924.633	13316
924.741	14313
924.849	13065
924.956	13206
925.064	13084
925.172	13050
925.279	13027
925.387	13076
925.494	13080
925.602	13137
925.709	13065
925.816	12932
925.924	13034
926.031	13137
926.138	12958
926.245	13145
926.352	12882
926.459	13095
926.566	13027
926.673	12909
926.779	12825
926.886	12806
926.993	12631
927.099	12616
927.206	12528
927.312	12517
927.419	12623
927.525	12559
927.631	12620
927.737	12490
927.843	12445
927.95	12323
928.056	12391
928.162	12475
928.267	12448
928.373	12890
928.479	12528
928.585	12258
928.69	12369
928.796	12281
928.901	12258
929.007	12144
929.112	12216
929.218	12300
929.323	12155
929.428	12110
929.533	12285
929.638	12121
929.743	12175
929.848	12068
929.953	12038
930.058	12007
930.163	11821
930.267	11847
930.372	12015
930.477	11817
930.581	12022
930.685	11904
930.79	11798
930.894	11764
930.998	11794
931.103	11840
931.207	11383
931.311	11322
931.415	11360
931.519	11117
931.623	11117
