Data from test_V78500241_995.txt Node
Date: Fri Mar 25 15:48:41 CST 2022
User: usil
Spectrometer: V785-0024
Trigger mode: 0
Integration Time (sec): 4.000000E-1
Scans to average: 1
Nonlinearity correction enabled: false
Boxcar width: 0
Storing dark spectrum: false
XAxis mode: Wavelengths
Number of Pixels in Spectrum: 1024
>>>>>Begin Spectral Data<<<<<
801.071	28485
801.214	28246
801.356	28059
801.499	28067
801.641	27869
801.783	28021
801.926	28059
802.068	27991
802.211	27911
802.353	27831
802.496	27743
802.638	27732
802.78	27679
802.923	27591
803.065	27572
803.208	27629
803.35	27781
803.492	27663
803.635	27743
803.777	27759
803.919	27926
804.061	28120
804.204	27972
804.346	27922
804.488	27766
804.63	27705
804.773	27701
804.915	27892
805.057	27968
805.199	27835
805.341	28032
805.483	27991
805.626	27994
805.768	27884
805.91	27972
806.052	28059
806.194	27899
806.336	28036
806.478	28147
806.62	28101
806.762	28188
806.904	28276
807.046	28474
807.188	28481
807.33	28390
807.472	28611
807.614	28428
807.756	28314
807.898	28474
808.04	28379
808.182	28371
808.324	28306
808.465	28436
808.607	28618
808.749	28694
808.891	28866
809.033	28717
809.174	28752
809.316	28752
809.458	28637
809.6	28554
809.741	28771
809.883	28763
810.025	29018
810.166	28995
810.308	29200
810.45	28927
810.591	28881
810.733	28668
810.875	28653
811.016	28584
811.158	28565
811.299	28877
811.441	28984
811.582	28942
811.724	28801
811.865	28630
812.007	28767
812.148	28782
812.29	28729
812.431	28991
812.573	29022
812.714	29128
812.855	29204
812.997	29364
813.138	29349
813.279	29490
813.421	29341
813.562	29052
813.703	29056
813.845	29056
813.986	28592
814.127	28569
814.268	28398
814.41	28489
814.551	28234
814.692	28500
814.833	28440
814.974	28428
815.115	28493
815.256	28322
815.397	28424
815.539	28265
815.68	28063
815.821	28021
815.962	28230
816.103	28219
816.244	27960
816.385	28021
816.526	28006
816.666	27808
816.807	27720
816.948	27751
817.089	27823
817.23	27892
817.371	27835
817.512	27641
817.653	27850
817.793	27682
817.934	27720
818.075	27766
818.216	27793
818.356	27686
818.497	27663
818.638	27530
818.778	27549
818.919	27530
819.06	27587
819.2	27667
819.341	27713
819.481	27667
819.622	27812
819.762	28055
819.903	27831
820.043	27876
820.184	27880
820.324	27774
820.465	27930
820.605	27713
820.746	27762
820.886	27663
821.026	27812
821.167	27842
821.307	27892
821.447	27774
821.588	27644
821.728	27564
821.868	27412
822.008	27336
822.149	27169
822.289	27150
822.429	27070
822.569	26921
822.709	26963
822.849	26705
822.99	26648
823.13	26735
823.27	26758
823.41	26537
823.55	26469
823.69	26492
823.83	26522
823.97	26389
824.11	26358
824.25	26278
824.389	26301
824.529	26358
824.669	26324
824.809	26571
824.949	26560
825.089	26522
825.228	26583
825.368	26164
825.508	26237
825.648	26278
825.787	26343
825.927	26492
826.067	26199
826.206	26259
826.346	26252
826.485	26313
826.625	26343
826.765	26221
826.904	26267
827.044	26050
827.183	25932
827.323	25944
827.462	25978
827.601	26039
827.741	25909
827.88	26157
828.02	25830
828.159	25875
828.298	26149
828.437	26153
828.577	26050
828.716	26016
828.855	25875
828.994	25643
829.134	25681
829.273	25658
829.412	25571
829.551	25556
829.69	25632
829.829	25742
829.968	25620
830.107	25704
830.246	25620
830.385	25651
830.524	25609
830.663	25438
830.802	25343
830.941	25240
831.08	25145
831.219	25320
831.357	25183
831.496	25441
831.635	25236
831.774	25084
831.913	25152
832.051	25145
832.19	25103
832.329	25027
832.467	25019
832.606	24909
832.744	24844
832.883	24970
833.022	24886
833.16	24878
833.299	25008
833.437	24966
833.576	25000
833.714	25019
833.852	25095
833.991	25114
834.129	25072
834.267	25080
834.406	25034
834.544	25050
834.682	25088
834.821	24890
834.959	25148
835.097	24856
835.235	25027
835.373	25023
835.511	25000
835.65	24886
835.788	24973
835.926	24772
836.064	24593
836.202	24669
836.34	24753
836.478	24806
836.615	24696
836.753	24924
836.891	24962
837.029	24814
837.167	24909
837.305	24639
837.443	24738
837.58	24559
837.718	24677
837.856	24570
837.993	24604
838.131	24528
838.269	24365
838.406	24498
838.544	24517
838.681	24410
838.819	24285
838.956	24152
839.094	24121
839.231	24163
839.369	24277
839.506	24502
839.643	24399
839.781	24068
839.918	24003
840.055	24095
840.193	24194
840.33	24102
840.467	24079
840.604	24038
840.742	24167
840.879	23920
841.016	23958
841.153	23996
841.29	24083
841.427	24083
841.564	24102
841.701	24068
841.838	23878
841.975	24045
842.112	23824
842.249	23870
842.385	23764
842.522	23958
842.659	23767
842.796	23821
842.933	23699
843.069	23566
843.206	23703
843.343	23901
843.479	23866
843.616	23714
843.752	23589
843.889	23539
844.025	23684
844.162	23493
844.298	23684
844.435	23589
844.571	23558
844.708	23596
844.844	23729
844.98	23570
845.117	23748
845.253	23398
845.389	23334
845.525	23414
845.661	23356
845.798	23315
845.934	23303
846.07	23353
846.206	23330
846.342	23337
846.478	23261
846.614	23075
846.75	22797
846.886	23006
847.022	23113
847.158	23041
847.294	22949
847.429	22991
847.565	22923
847.701	23159
847.837	22736
847.972	22691
848.108	22824
848.244	22733
848.379	22641
848.515	22504
848.65	22645
848.786	22584
848.921	22523
849.057	22717
849.192	22645
849.328	22649
849.463	22656
849.598	22497
849.734	22500
849.869	22542
850.004	22318
850.14	22280
850.275	22337
850.41	22280
850.545	22192
850.68	22375
850.815	22360
850.95	22398
851.085	22596
851.22	22519
851.355	22306
851.49	22371
851.625	22318
851.76	22257
851.895	22238
852.03	22268
852.165	22242
852.299	22386
852.434	22325
852.569	22394
852.703	22299
852.838	22451
852.973	22455
853.107	22413
853.242	22356
853.376	22162
853.511	21998
853.645	22150
853.78	22223
853.914	22093
854.048	22249
854.183	22150
854.317	22067
854.451	22253
854.585	22177
854.72	22169
854.854	22265
854.988	22044
855.122	22223
855.256	22090
855.39	22143
855.524	22124
855.658	22246
855.792	22276
855.926	22200
856.06	22348
856.194	22261
856.327	22166
856.461	22013
856.595	22139
856.729	22188
856.862	22325
856.996	22185
857.13	22238
857.263	22303
857.397	22204
857.53	22192
857.664	22188
857.797	22223
857.931	22219
858.064	22230
858.197	22314
858.331	22223
858.464	21941
858.597	22112
858.731	22135
858.864	22234
858.997	22025
859.13	22101
859.263	22238
859.396	22207
859.529	22131
859.662	22124
859.795	22116
859.928	22112
860.061	22306
860.194	22375
860.327	22314
860.46	22185
860.592	22276
860.725	22295
860.858	22166
860.99	22120
861.123	22044
861.256	22116
861.388	22158
861.521	22755
861.653	22029
861.786	22021
861.918	21953
862.05	22002
862.183	22124
862.315	22040
862.447	22166
862.58	22059
862.712	21960
862.844	21930
862.976	21960
863.108	21922
863.24	22226
863.372	21854
863.504	21732
863.636	21739
863.768	22086
863.9	21854
864.032	21785
864.164	21797
864.296	21899
864.428	21994
864.559	21987
864.691	21915
864.823	21850
864.954	21854
865.086	21819
865.217	21819
865.349	21641
865.48	21713
865.612	21739
865.743	21762
865.875	21690
866.006	21583
866.137	21736
866.269	21800
866.4	21701
866.531	21759
866.662	21633
866.793	21713
866.924	21717
867.055	21705
867.186	21789
867.317	21622
867.448	21439
867.579	21675
867.71	21538
867.841	21622
867.972	21675
868.103	21709
868.233	21629
868.364	21717
868.495	21698
868.625	21827
868.756	21987
868.886	21819
869.017	21915
869.147	22010
869.278	21972
869.408	21979
869.539	21945
869.669	21922
869.799	21972
869.929	22036
870.06	22059
870.19	22090
870.32	22116
870.45	22226
870.58	22173
870.71	22440
870.84	22500
870.97	22287
871.1	22344
871.23	22375
871.36	22470
871.489	22386
871.619	22455
871.749	22474
871.879	22516
872.008	22588
872.138	22436
872.267	22493
872.397	22371
872.526	22455
872.656	22356
872.785	22363
872.915	22474
873.044	22660
873.173	22512
873.303	22641
873.432	22577
873.561	22713
873.69	22584
873.819	22573
873.948	22565
874.077	22512
874.206	22295
874.335	22481
874.464	22626
874.593	22820
874.722	22744
874.851	22869
874.979	22847
875.108	22805
875.237	22831
875.365	22626
875.494	22694
875.623	22702
875.751	22622
875.88	22774
876.008	22797
876.136	22896
876.265	23109
876.393	23258
876.521	23227
876.65	23151
876.778	23136
876.906	23071
877.034	23128
877.162	23064
877.29	23014
877.418	23140
877.546	23204
877.674	23162
877.802	23064
877.93	23056
878.058	23098
878.185	22987
878.313	22999
878.441	23037
878.568	22938
878.696	22968
878.824	23079
878.951	23277
879.079	23299
879.206	23368
879.333	23193
879.461	23075
879.588	23223
879.715	23292
879.842	23402
879.97	23162
880.097	22927
880.224	23006
880.351	22885
880.478	23006
880.605	22892
880.732	23003
880.859	23212
880.986	22987
881.112	22980
881.239	22774
881.366	22679
881.493	22466
881.619	22512
881.746	22500
881.872	22455
881.999	22382
882.125	22398
882.252	22615
882.378	22398
882.505	22588
882.631	22474
882.757	22162
882.883	22265
883.01	22139
883.136	21949
883.262	21983
883.388	21907
883.514	22059
883.64	22097
883.766	22036
883.892	21911
884.018	21956
884.143	22002
884.269	22078
884.395	21915
884.52	21827
884.646	21762
884.772	21724
884.897	21701
885.023	21720
885.148	21915
885.274	21907
885.399	21956
885.524	21895
885.65	21827
885.775	21781
885.9	21819
886.025	21804
886.15	21956
886.275	21675
886.4	21747
886.525	21728
886.65	21641
886.775	21747
886.9	21979
887.025	22006
887.149	21846
887.274	21564
887.399	21523
887.523	21469
887.648	21519
887.773	21431
887.897	21751
888.021	21633
888.146	21519
888.27	21641
888.395	21652
888.519	21496
888.643	21625
888.767	21671
888.891	21450
889.015	21389
889.139	21469
889.263	21401
889.387	21530
889.511	21538
889.635	21462
889.759	21252
889.883	21272
890.006	21370
890.13	21447
890.254	21233
890.377	21287
890.501	21070
890.624	21131
890.748	21081
890.871	20830
890.995	20838
891.118	20979
891.241	20906
891.364	20861
891.488	21047
891.611	20994
891.734	20986
891.857	20864
891.98	20872
892.103	21020
892.226	20990
892.349	20918
892.471	20678
892.594	20769
892.717	20769
892.839	20777
892.962	20834
893.085	20769
893.207	20853
893.33	20648
893.452	20720
893.575	20830
893.697	20670
893.819	20933
893.941	21066
894.064	20777
894.186	20807
894.308	20663
894.43	20868
894.552	20876
894.674	20762
894.796	20606
894.918	20682
895.04	20777
895.161	20781
895.283	20918
895.405	20823
895.526	20758
895.648	20773
895.769	20830
895.891	20792
896.012	20811
896.134	20872
896.255	20788
896.376	20788
896.498	20777
896.619	20845
896.74	20788
896.861	20883
896.982	21116
897.103	21408
897.224	21127
897.345	20914
897.466	20868
897.587	21005
897.708	21245
897.828	20910
897.949	20880
898.07	20811
898.19	20899
898.311	21043
898.431	20823
898.552	20994
898.672	21195
898.792	20967
898.913	20864
899.033	20887
899.153	20731
899.273	20716
899.393	20663
899.513	20708
899.633	20762
899.753	20689
899.873	20621
899.993	20739
900.113	20758
900.232	20579
900.352	20594
900.472	20667
900.591	20412
900.711	20488
900.83	20396
900.95	20602
901.069	20575
901.189	20377
901.308	20142
901.427	20058
901.546	20092
901.665	20050
901.784	20054
901.904	19879
902.023	19868
902.141	19651
902.26	19605
902.379	19594
902.498	19605
902.617	19594
902.735	19628
902.854	19601
902.973	19506
903.091	19304
903.21	19312
903.328	19282
903.446	19152
903.565	19110
903.683	19038
903.801	19023
903.919	18882
904.038	19080
904.156	18776
904.274	18871
904.392	18776
904.51	18711
904.627	18707
904.745	18779
904.863	18856
904.981	18661
905.098	18483
905.216	18604
905.334	18525
905.451	18525
905.569	18532
905.686	18540
905.803	18395
905.921	18319
906.038	18346
906.155	18319
906.272	18125
906.389	18087
906.506	18064
906.623	17897
906.74	17923
906.857	17923
906.974	17889
907.091	17980
907.208	18083
907.324	17908
907.441	17927
907.557	17748
907.674	17661
907.79	17672
907.907	17657
908.023	17672
908.139	17710
908.256	17634
908.372	17600
908.488	17623
908.604	17379
908.72	17448
908.836	17402
908.952	17349
909.068	17341
909.184	17528
909.3	17528
909.415	17433
909.531	17452
909.647	17159
909.762	17121
909.878	17094
909.993	17109
910.108	17045
910.224	17075
910.339	17094
910.454	17014
910.57	16946
910.685	16812
910.8	17128
910.915	17140
911.03	16991
911.145	16733
911.259	16675
911.374	16717
911.489	16599
911.604	16588
911.718	16398
911.833	16470
911.947	16398
912.062	16268
912.176	16493
912.291	16558
912.405	16500
912.519	16641
912.633	16561
912.748	16478
912.862	16394
912.976	16268
913.09	16177
913.204	16280
913.318	16333
913.431	16360
913.545	16352
913.659	16325
913.772	16124
913.886	16074
914	16112
914.113	16147
914.226	16226
914.34	16067
914.453	15915
914.566	16063
914.68	15953
914.793	15895
914.906	15671
915.019	15530
915.132	15610
915.245	15492
915.358	15686
915.47	15656
915.583	15580
915.696	15618
915.809	15690
915.921	15743
916.034	15511
916.146	15553
916.259	15473
916.371	15530
916.483	15545
916.595	15401
916.708	15500
916.82	15450
916.932	15481
917.044	15462
917.156	15370
917.268	15264
917.38	15233
917.491	15256
917.603	15233
917.715	15340
917.826	15310
917.938	15218
918.049	15077
918.161	15218
918.272	15389
918.384	15291
918.495	15268
918.606	15135
918.717	14933
918.828	15005
918.939	14960
919.05	14921
919.161	14960
919.272	14842
919.383	14895
919.494	15028
919.604	15237
919.715	15009
919.826	14941
919.936	14982
920.047	15043
920.157	14891
920.267	15237
920.378	14914
920.488	15013
920.598	15020
920.708	15207
920.818	15116
920.928	15142
921.038	15226
921.148	15207
921.258	15009
921.368	14826
921.477	14693
921.587	14720
921.697	14568
921.806	14796
921.916	14587
922.025	14313
922.134	14351
922.244	14389
922.353	14271
922.462	14187
922.571	14168
922.68	14058
922.789	13951
922.898	13944
923.007	13849
923.116	14046
923.224	13989
923.333	13970
923.442	13799
923.55	13845
923.659	13811
923.767	13868
923.876	13742
923.984	13780
924.092	13681
924.201	13750
924.309	13662
924.417	13658
924.525	13723
924.633	13658
924.741	14514
924.849	13381
924.956	13495
925.064	13468
925.172	13335
925.279	13327
925.387	13365
925.494	13407
925.602	13373
925.709	13441
925.816	13312
925.924	13308
926.031	13407
926.138	13358
926.245	13308
926.352	13225
926.459	13266
926.566	13407
926.673	13213
926.779	13114
926.886	13088
926.993	12916
927.099	12951
927.206	12875
927.312	12859
927.419	12993
927.525	12920
927.631	12833
927.737	12863
927.843	12719
927.95	12673
928.056	12688
928.162	12738
928.267	12863
928.373	13301
928.479	12798
928.585	12631
928.69	12608
928.796	12734
928.901	12604
929.007	12323
929.112	12677
929.218	12681
929.323	12467
929.428	12456
929.533	12604
929.638	12353
929.743	12418
929.848	12334
929.953	12330
930.058	12285
930.163	12163
930.267	12186
930.372	12292
930.477	12106
930.581	12342
930.685	12205
930.79	11961
930.894	12026
930.998	12034
931.103	12129
931.207	11649
931.311	11615
931.415	11672
931.519	11383
931.623	11436
