Data from test_V78500241_1344.txt Node
Date: Fri Mar 25 15:51:06 CST 2022
User: usil
Spectrometer: V785-0024
Trigger mode: 0
Integration Time (sec): 4.000000E-1
Scans to average: 1
Nonlinearity correction enabled: false
Boxcar width: 0
Storing dark spectrum: false
XAxis mode: Wavelengths
Number of Pixels in Spectrum: 1024
>>>>>Begin Spectral Data<<<<<
801.071	28272
801.214	28287
801.356	27994
801.499	27949
801.641	27736
801.783	27816
801.926	27812
802.068	27838
802.211	27625
802.353	27671
802.496	27606
802.638	27599
802.78	27427
802.923	27427
803.065	27416
803.208	27435
803.35	27458
803.492	27564
803.635	27682
803.777	27477
803.919	27679
804.061	28017
804.204	27751
804.346	27580
804.488	27671
804.63	27606
804.773	27614
804.915	27736
805.057	27903
805.199	27553
805.341	27698
805.483	27861
805.626	27808
805.768	27736
805.91	27861
806.052	27797
806.194	27819
806.336	28002
806.478	27812
806.62	27759
806.762	27998
806.904	28261
807.046	28352
807.188	28303
807.33	28333
807.472	28428
807.614	28253
807.756	28341
807.898	28238
808.04	28051
808.182	28128
808.324	28226
808.465	28291
808.607	28337
808.749	28508
808.891	28535
809.033	28683
809.174	28546
809.316	28542
809.458	28527
809.6	28360
809.741	28702
809.883	28577
810.025	28729
810.166	28858
810.308	28919
810.45	28797
810.591	28744
810.733	28649
810.875	28519
811.016	28382
811.158	28436
811.299	28493
811.441	28778
811.582	28596
811.724	28485
811.865	28512
812.007	28504
812.148	28455
812.29	28451
812.431	28649
812.573	28866
812.714	28828
812.855	29102
812.997	29250
813.138	29379
813.279	29022
813.421	29060
813.562	29025
813.703	28809
813.845	28706
813.986	28493
814.127	28310
814.268	28299
814.41	28287
814.551	28177
814.692	28276
814.833	28185
814.974	28112
815.115	28143
815.256	28101
815.397	28067
815.539	28105
815.68	28086
815.821	27991
815.962	28067
816.103	27979
816.244	27751
816.385	27732
816.526	27785
816.666	27671
816.807	27511
816.948	27583
817.089	27633
817.23	27561
817.371	27648
817.512	27519
817.653	27519
817.793	27393
817.934	27694
818.075	27500
818.216	27488
818.356	27523
818.497	27435
818.638	27268
818.778	27131
818.919	27207
819.06	27272
819.2	27367
819.341	27526
819.481	27614
819.622	27800
819.762	27972
819.903	27747
820.043	27762
820.184	27656
820.324	27614
820.465	27743
820.605	27595
820.746	27736
820.886	27572
821.026	27656
821.167	27641
821.307	27728
821.447	27564
821.588	27492
821.728	27431
821.868	27108
822.008	27070
822.149	27161
822.289	26963
822.429	26804
822.569	26705
822.709	26800
822.849	26469
822.99	26473
823.13	26537
823.27	26404
823.41	26336
823.55	26240
823.69	26404
823.83	26244
823.97	26282
824.11	26111
824.25	26168
824.389	26157
824.529	26218
824.669	26050
824.809	26240
824.949	26400
825.089	26320
825.228	26202
825.368	26050
825.508	25883
825.648	25963
825.787	26092
825.927	26077
826.067	25921
826.206	26126
826.346	26062
826.485	26191
826.625	26005
826.765	26084
826.904	26161
827.044	25788
827.183	25753
827.323	25791
827.462	25875
827.601	25890
827.741	25734
827.88	25666
828.02	25681
828.159	25681
828.298	25830
828.437	25826
828.577	25567
828.716	25849
828.855	25693
828.994	25392
829.134	25506
829.273	25491
829.412	25479
829.551	25346
829.69	25293
829.829	25529
829.968	25597
830.107	25616
830.246	25438
830.385	25388
830.524	25255
830.663	25236
830.802	25095
830.941	25080
831.08	24920
831.219	25240
831.357	25069
831.496	25403
831.635	25069
831.774	25008
831.913	24901
832.051	24806
832.19	24837
832.329	24833
832.467	24711
832.606	24669
832.744	24677
832.883	24627
833.022	24764
833.16	24715
833.299	24726
833.437	24646
833.576	24749
833.714	24692
833.852	24711
833.991	24871
834.129	25000
834.267	24935
834.406	24825
834.544	24844
834.682	24859
834.821	24795
834.959	24916
835.097	24768
835.235	24882
835.373	24642
835.511	24745
835.65	24540
835.788	24612
835.926	24407
836.064	24384
836.202	24323
836.34	24741
836.478	24597
836.615	24555
836.753	24707
836.891	24517
837.029	24528
837.167	24486
837.305	24452
837.443	24422
837.58	24479
837.718	24589
837.856	24513
837.993	24315
838.131	24403
838.269	24232
838.406	24441
838.544	24247
838.681	23988
838.819	24034
838.956	24030
839.094	23916
839.231	24022
839.369	24091
839.506	24311
839.643	24068
839.781	23874
839.918	23904
840.055	23882
840.193	23878
840.33	23901
840.467	23824
840.604	23939
840.742	24087
840.879	23668
841.016	23783
841.153	23627
841.29	23874
841.427	23798
841.564	23847
841.701	23687
841.838	23794
841.975	23687
842.112	23699
842.249	23581
842.385	23589
842.522	23733
842.659	23600
842.796	23486
842.933	23547
843.069	23417
843.206	23543
843.343	23642
843.479	23604
843.616	23577
843.752	23265
843.889	23311
844.025	23459
844.162	23345
844.298	23444
844.435	23402
844.571	23341
844.708	23368
844.844	23547
844.98	23440
845.117	23318
845.253	23360
845.389	23258
845.525	23231
845.661	23296
845.798	22972
845.934	23109
846.07	23022
846.206	23056
846.342	23174
846.478	23094
846.614	22824
846.75	22797
846.886	22759
847.022	22793
847.158	22717
847.294	22736
847.429	22839
847.565	22889
847.701	23079
847.837	22641
847.972	22493
848.108	22538
848.244	22516
848.379	22310
848.515	22478
848.65	22424
848.786	22428
848.921	22561
849.057	22424
849.192	22440
849.328	22402
849.463	22402
849.598	22371
849.734	22398
849.869	22223
850.004	22173
850.14	22226
850.275	22131
850.41	21994
850.545	22158
850.68	22166
850.815	22169
850.95	22105
851.085	22223
851.22	22333
851.355	22169
851.49	22021
851.625	22097
851.76	22188
851.895	22059
852.03	22109
852.165	22135
852.299	22261
852.434	22257
852.569	22173
852.703	22124
852.838	22204
852.973	22147
853.107	22272
853.242	22204
853.376	22021
853.511	21762
853.645	21800
853.78	22238
853.914	21975
854.048	21956
854.183	21888
854.317	22017
854.451	22246
854.585	21983
854.72	22029
854.854	22021
854.988	21838
855.122	21975
855.256	21960
855.39	21888
855.524	21949
855.658	22010
855.792	21991
855.926	21972
856.06	21979
856.194	22032
856.327	21915
856.461	21918
856.595	21850
856.729	22070
856.862	21998
856.996	22055
857.13	22029
857.263	22139
857.397	22051
857.53	22021
857.664	22067
857.797	22090
857.931	22093
858.064	21956
858.197	22223
858.331	21953
858.464	21842
858.597	21895
858.731	21918
858.864	21850
858.997	21903
859.13	21972
859.263	21854
859.396	22063
859.529	21922
859.662	21842
859.795	21850
859.928	22013
860.061	22044
860.194	22070
860.327	22048
860.46	22013
860.592	22006
860.725	22082
860.858	22070
860.99	21987
861.123	21987
861.256	21918
861.388	21850
861.521	22645
861.653	21865
861.786	21728
861.918	21876
862.05	21915
862.183	21937
862.315	21941
862.447	21941
862.58	21865
862.712	21804
862.844	21739
862.976	21751
863.108	21690
863.24	22204
863.372	21633
863.504	21606
863.636	21542
863.768	21759
863.9	21713
864.032	21583
864.164	21743
864.296	21614
864.428	21759
864.559	21663
864.691	21739
864.823	21701
864.954	21686
865.086	21610
865.217	21633
865.349	21473
865.48	21545
865.612	21625
865.743	21606
865.875	21561
866.006	21435
866.137	21534
866.269	21622
866.4	21603
866.531	21511
866.662	21382
866.793	21397
866.924	21523
867.055	21549
867.186	21561
867.317	21481
867.448	21408
867.579	21450
867.71	21340
867.841	21378
867.972	21348
868.103	21317
868.233	21473
868.364	21545
868.495	21580
868.625	21789
868.756	21743
868.886	21679
869.017	21656
869.147	21926
869.278	21774
869.408	21713
869.539	21701
869.669	21755
869.799	21705
869.929	21774
870.06	21709
870.19	22105
870.32	22010
870.45	22128
870.58	22112
870.71	22268
870.84	22295
870.97	22219
871.1	22177
871.23	22303
871.36	22306
871.489	22322
871.619	22390
871.749	22314
871.879	22394
872.008	22455
872.138	22382
872.267	22367
872.397	22246
872.526	22116
872.656	22192
872.785	22158
872.915	22363
873.044	22440
873.173	22356
873.303	22360
873.432	22272
873.561	22459
873.69	22318
873.819	22291
873.948	22382
874.077	22413
874.206	22413
874.335	22318
874.464	22409
874.593	22702
874.722	22554
874.851	22630
874.979	22569
875.108	22592
875.237	22611
875.365	22470
875.494	22637
875.623	22656
875.751	22470
875.88	22542
876.008	22793
876.136	22641
876.265	22957
876.393	23041
876.521	23067
876.65	23037
876.778	23056
876.906	22843
877.034	22835
877.162	22965
877.29	22885
877.418	23075
877.546	22987
877.674	22896
877.802	23090
877.93	22976
878.058	22778
878.185	22805
878.313	22869
878.441	22839
878.568	22725
878.696	22904
878.824	22965
878.951	22995
879.079	23098
879.206	23151
879.333	23105
879.461	22869
879.588	23117
879.715	23067
879.842	23239
879.97	22930
880.097	22656
880.224	22649
880.351	22725
880.478	22687
880.605	22755
880.732	22767
880.859	22972
880.986	22733
881.112	22809
881.239	22683
881.366	22546
881.493	22265
881.619	22310
881.746	22405
881.872	22360
881.999	22253
882.125	22185
882.252	22360
882.378	22257
882.505	22303
882.631	22101
882.757	21991
882.883	21991
883.01	22025
883.136	21987
883.262	21800
883.388	21747
883.514	21994
883.64	22074
883.766	21915
883.892	21751
884.018	21816
884.143	21861
884.269	22029
884.395	21755
884.52	21572
884.646	21625
884.772	21633
884.897	21458
885.023	21622
885.148	21648
885.274	21694
885.399	21728
885.524	21682
885.65	21553
885.775	21629
885.9	21663
886.025	21739
886.15	21641
886.275	21690
886.4	21412
886.525	21644
886.65	21568
886.775	21538
886.9	21732
887.025	21831
887.149	21686
887.274	21405
887.399	21348
887.523	21488
887.648	21370
887.773	21416
887.897	21492
888.021	21496
888.146	21450
888.27	21545
888.395	21439
888.519	21500
888.643	21466
888.767	21488
888.891	21401
889.015	21287
889.139	21264
889.263	21249
889.387	21325
889.511	21424
889.635	21313
889.759	21287
889.883	21211
890.006	21150
890.13	21279
890.254	21192
890.377	21085
890.501	20986
890.624	20899
890.748	21077
890.871	20895
890.995	20796
891.118	20724
891.241	20796
891.364	20746
891.488	20750
891.611	20750
891.734	20895
891.857	20735
891.98	20800
892.103	20807
892.226	20811
892.349	20716
892.471	20720
892.594	20640
892.717	20796
892.839	20621
892.962	20693
893.085	20712
893.207	20518
893.33	20644
893.452	20571
893.575	20712
893.697	20583
893.819	20708
893.941	20857
894.064	20777
894.186	20693
894.308	20514
894.43	20670
894.552	20754
894.674	20826
894.796	20590
894.918	20571
895.04	20682
895.161	20796
895.283	20777
895.405	20568
895.526	20697
895.648	20678
895.769	20724
895.891	20750
896.012	20769
896.134	20678
896.255	20545
896.376	20579
896.498	20674
896.619	20739
896.74	20602
896.861	20746
896.982	20864
897.103	21089
897.224	21017
897.345	20842
897.466	20883
897.587	20941
897.708	21005
897.828	20861
897.949	20811
898.07	20815
898.19	20773
898.311	20910
898.431	20777
898.552	20963
898.672	20975
898.792	20986
898.913	20910
899.033	20705
899.153	20640
899.273	20632
899.393	20541
899.513	20689
899.633	20636
899.753	20598
899.873	20530
899.993	20533
900.113	20454
900.232	20602
900.352	20579
900.472	20503
900.591	20343
900.711	20484
900.83	20400
900.95	20537
901.069	20400
901.189	20176
901.308	20035
901.427	19989
901.546	19986
901.665	19963
901.784	19967
901.904	19849
902.023	19670
902.141	19556
902.26	19483
902.379	19578
902.498	19411
902.617	19453
902.735	19434
902.854	19487
902.973	19304
903.091	19202
903.21	19217
903.328	19084
903.446	19046
903.565	18901
903.683	18875
903.801	18810
903.919	18863
904.038	18795
904.156	18719
904.274	18871
904.392	18791
904.51	18764
904.627	18559
904.745	18753
904.863	18749
904.981	18582
905.098	18346
905.216	18357
905.334	18388
905.451	18350
905.569	18361
905.686	18445
905.803	18391
905.921	18171
906.038	18281
906.155	18190
906.272	18076
906.389	18068
906.506	17939
906.623	17920
906.74	17923
906.857	17665
906.974	17824
907.091	17939
907.208	17996
907.324	17885
907.441	17866
907.557	17657
907.674	17661
907.79	17623
907.907	17581
908.023	17615
908.139	17653
908.256	17520
908.372	17528
908.488	17387
908.604	17372
908.72	17376
908.836	17334
908.952	17395
909.068	17254
909.184	17436
909.3	17239
909.415	17376
909.531	17387
909.647	17174
909.762	17037
909.878	17006
909.993	17140
910.108	16946
910.224	16930
910.339	17025
910.454	16904
910.57	16869
910.685	16755
910.8	16889
910.915	17045
911.03	16809
911.145	16611
911.259	16603
911.374	16641
911.489	16569
911.604	16470
911.718	16363
911.833	16363
911.947	16265
912.062	16169
912.176	16295
912.291	16398
912.405	16344
912.519	16596
912.633	16500
912.748	16375
912.862	16352
912.976	16158
913.09	16002
913.204	16185
913.318	16090
913.431	16185
913.545	16265
913.659	16310
913.772	16074
913.886	15991
914	15960
914.113	16010
914.226	16154
914.34	16040
914.453	15831
914.566	15994
914.68	15934
914.793	15819
914.906	15629
915.019	15515
915.132	15561
915.245	15515
915.358	15515
915.47	15515
915.583	15519
915.696	15492
915.809	15656
915.921	15622
916.034	15515
916.146	15473
916.259	15397
916.371	15424
916.483	15473
916.595	15401
916.708	15488
916.82	15332
916.932	15340
917.044	15378
917.156	15287
917.268	15245
917.38	15256
917.491	15165
917.603	15135
917.715	15283
917.826	15313
917.938	15127
918.049	15055
918.161	15169
918.272	15214
918.384	15260
918.495	15146
918.606	14944
918.717	14937
918.828	14944
918.939	15047
919.05	14880
919.161	14815
919.272	14769
919.383	14754
919.494	14944
919.604	15150
919.715	14921
919.826	14864
919.936	14864
920.047	14994
920.157	14941
920.267	15112
920.378	14872
920.488	14823
920.598	15028
920.708	15150
920.818	15097
920.928	14948
921.038	15211
921.148	15135
921.258	14902
921.368	14705
921.477	14644
921.587	14552
921.697	14484
921.806	14632
921.916	14480
922.025	14324
922.134	14252
922.244	14290
922.353	14286
922.462	14119
922.571	14134
922.68	13959
922.789	13925
922.898	13791
923.007	13837
923.116	13879
923.224	13826
923.333	13913
923.442	13791
923.55	13750
923.659	13784
923.767	13803
923.876	13609
923.984	13765
924.092	13533
924.201	13597
924.309	13643
924.417	13662
924.525	13605
924.633	13502
924.741	14492
924.849	13312
924.956	13457
925.064	13335
925.172	13297
925.279	13350
925.387	13331
925.494	13274
925.602	13407
925.709	13400
925.816	13179
925.924	13137
926.031	13225
926.138	13209
926.245	13301
926.352	13122
926.459	13301
926.566	13304
926.673	13137
926.779	12993
926.886	12989
926.993	12840
927.099	12863
927.206	12837
927.312	12760
927.419	12867
927.525	12779
927.631	12867
927.737	12757
927.843	12677
927.95	12639
928.056	12658
928.162	12669
928.267	12730
928.373	13392
928.479	12654
928.585	12517
928.69	12631
928.796	12734
928.901	12544
929.007	12350
929.112	12467
929.218	12532
929.323	12403
929.428	12490
929.533	12551
929.638	12323
929.743	12281
929.848	12323
929.953	12369
930.058	12262
930.163	11996
930.267	12106
930.372	12144
930.477	12121
930.581	12190
930.685	12117
930.79	11912
930.894	11927
930.998	11908
931.103	12053
931.207	11726
931.311	11630
931.415	11551
931.519	11368
931.623	11280
