Data from test_V78500241_2605.txt Node
Date: Fri Mar 25 15:59:50 CST 2022
User: usil
Spectrometer: V785-0024
Trigger mode: 0
Integration Time (sec): 4.000000E-1
Scans to average: 1
Nonlinearity correction enabled: false
Boxcar width: 0
Storing dark spectrum: false
XAxis mode: Wavelengths
Number of Pixels in Spectrum: 1024
>>>>>Begin Spectral Data<<<<<
801.071	28698
801.214	28660
801.356	28569
801.499	28409
801.641	28348
801.783	28265
801.926	28230
802.068	28268
802.211	28257
802.353	28234
802.496	27865
802.638	28059
802.78	27922
802.923	27861
803.065	27838
803.208	27964
803.35	27975
803.492	28093
803.635	28249
803.777	28143
803.919	28337
804.061	28481
804.204	28204
804.346	28116
804.488	28318
804.63	28287
804.773	28090
804.915	28249
805.057	28500
805.199	28230
805.341	28215
805.483	28508
805.626	28386
805.768	28443
805.91	28394
806.052	28466
806.194	28295
806.336	28565
806.478	28352
806.62	28329
806.762	28516
806.904	28729
807.046	28812
807.188	28835
807.33	28790
807.472	28930
807.614	28805
807.756	28801
807.898	28812
808.04	28679
808.182	28778
808.324	28786
808.465	28736
808.607	28908
808.749	29083
808.891	29277
809.033	29151
809.174	29098
809.316	29117
809.458	29162
809.6	29029
809.741	29166
809.883	29223
810.025	29444
810.166	29261
810.308	29360
810.45	29402
810.591	29254
810.733	29166
810.875	29197
811.016	28938
811.158	28999
811.299	29162
811.441	29398
811.582	29280
811.724	29071
811.865	29048
812.007	29075
812.148	29258
812.29	29258
812.431	29269
812.573	29292
812.714	29577
812.855	29649
812.997	29691
813.138	29767
813.279	29729
813.421	29657
813.562	29619
813.703	29288
813.845	29337
813.986	28991
814.127	28915
814.268	28771
814.41	28911
814.551	28607
814.692	28908
814.833	28835
814.974	28599
815.115	28672
815.256	28717
815.397	28839
815.539	28771
815.68	28755
815.821	28527
815.962	28615
816.103	28584
816.244	28409
816.385	28329
816.526	28512
816.666	28166
816.807	28150
816.948	28166
817.089	28299
817.23	28207
817.371	28090
817.512	28173
817.653	28196
817.793	28002
817.934	28139
818.075	28093
818.216	28162
818.356	28181
818.497	28105
818.638	27766
818.778	27907
818.919	27907
819.06	27846
819.2	28067
819.341	28154
819.481	28158
819.622	28356
819.762	28413
819.903	28386
820.043	28303
820.184	28238
820.324	28215
820.465	28371
820.605	28493
820.746	28234
820.886	28265
821.026	28200
821.167	28329
821.307	28382
821.447	27956
821.588	28070
821.728	27903
821.868	27804
822.008	27587
822.149	27667
822.289	27564
822.429	27386
822.569	27294
822.709	27264
822.849	27062
822.99	27195
823.13	27184
823.27	27093
823.41	26986
823.55	26849
823.69	26940
823.83	26887
823.97	26921
824.11	26617
824.25	26777
824.389	26667
824.529	26933
824.669	26830
824.809	27043
824.949	26773
825.089	26720
825.228	26929
825.368	26617
825.508	26613
825.648	26568
825.787	26697
825.927	26708
826.067	26606
826.206	26651
826.346	26708
826.485	26568
826.625	26758
826.765	26659
826.904	26754
827.044	26404
827.183	26427
827.323	26419
827.462	26366
827.601	26366
827.741	26412
827.88	26370
828.02	26153
828.159	26339
828.298	26400
828.437	26328
828.577	26294
828.716	26480
828.855	26263
828.994	26008
829.134	26122
829.273	26122
829.412	26069
829.551	25997
829.69	26138
829.829	26069
829.968	26138
830.107	26077
830.246	26176
830.385	25871
830.524	25944
830.663	25860
830.802	25837
830.941	25590
831.08	25651
831.219	25563
831.357	25719
831.496	25989
831.635	25765
831.774	25533
831.913	25647
832.051	25506
832.19	25499
832.329	25483
832.467	25358
832.606	25331
832.744	25358
832.883	25369
833.022	25312
833.16	25506
833.299	25346
833.437	25369
833.576	25521
833.714	25297
833.852	25373
833.991	25384
834.129	25582
834.267	25521
834.406	25259
834.544	25434
834.682	25464
834.821	25331
834.959	25605
835.097	25293
835.235	25438
835.373	25441
835.511	25247
835.65	25255
835.788	25312
835.926	25110
836.064	24973
836.202	25107
836.34	25236
836.478	25206
836.615	25293
836.753	25080
836.891	25247
837.029	25198
837.167	25221
837.305	25095
837.443	25129
837.58	24951
837.718	25061
837.856	25034
837.993	24920
838.131	24996
838.269	24844
838.406	24806
838.544	24817
838.681	24730
838.819	24684
838.956	24395
839.094	24479
839.231	24532
839.369	24696
839.506	25027
839.643	24787
839.781	24467
839.918	24407
840.055	24673
840.193	24399
840.33	24357
840.467	24361
840.604	24555
840.742	24688
840.879	24486
841.016	24353
841.153	24407
841.29	24471
841.427	24403
841.564	24452
841.701	24338
841.838	24353
841.975	24292
842.112	24452
842.249	24277
842.385	24182
842.522	24319
842.659	24087
842.796	24079
842.933	24079
843.069	24091
843.206	24159
843.343	24243
843.479	24125
843.616	24201
843.752	23950
843.889	23980
844.025	23958
844.162	23908
844.298	24110
844.435	23961
844.571	23946
844.708	24018
844.844	24163
844.98	23946
845.117	23988
845.253	23824
845.389	23786
845.525	23661
845.661	23745
845.798	23748
845.934	23798
846.07	23695
846.206	23668
846.342	23798
846.478	23646
846.614	23406
846.75	23383
846.886	23490
847.022	23410
847.158	23497
847.294	23395
847.429	23531
847.565	23433
847.701	23486
847.837	23193
847.972	23071
848.108	23246
848.244	23265
848.379	22934
848.515	22976
848.65	23052
848.786	22980
848.921	22980
849.057	23006
849.192	23056
849.328	22984
849.463	23022
849.598	22965
849.734	22812
849.869	22847
850.004	22828
850.14	22782
850.275	22736
850.41	22675
850.545	22653
850.68	22889
850.815	22820
850.95	22805
851.085	22965
851.22	22721
851.355	22767
851.49	22611
851.625	22599
851.76	22691
851.895	22713
852.03	22554
852.165	22717
852.299	22790
852.434	22740
852.569	22797
852.703	22702
852.838	22957
852.973	22900
853.107	22961
853.242	22698
853.376	22641
853.511	22516
853.645	22550
853.78	22542
853.914	22577
854.048	22443
854.183	22584
854.317	22634
854.451	22790
854.585	22577
854.72	22512
854.854	22557
854.988	22497
855.122	22519
855.256	22375
855.39	22641
855.524	22649
855.658	22508
855.792	22527
855.926	22531
856.06	22603
856.194	22706
856.327	22668
856.461	22462
856.595	22508
856.729	22497
856.862	22592
856.996	22599
857.13	22607
857.263	22736
857.397	22508
857.53	22641
857.664	22561
857.797	22649
857.931	22668
858.064	22653
858.197	22755
858.331	22481
858.464	22565
858.597	22371
858.731	22516
858.864	22546
858.997	22565
859.13	22557
859.263	22470
859.396	22656
859.529	22550
859.662	22546
859.795	22504
859.928	22679
860.061	22774
860.194	22767
860.327	22675
860.46	22611
860.592	22634
860.725	22805
860.858	22729
860.99	22645
861.123	22470
861.256	22455
861.388	22557
861.521	23220
861.653	22402
861.786	22276
861.918	22462
862.05	22443
862.183	22379
862.315	22459
862.447	22607
862.58	22493
862.712	22246
862.844	22166
862.976	22379
863.108	22329
863.24	22843
863.372	22276
863.504	22341
863.636	22215
863.768	22413
863.9	22341
864.032	22188
864.164	22097
864.296	22234
864.428	22375
864.559	22314
864.691	22443
864.823	22291
864.954	22120
865.086	22226
865.217	22261
865.349	22200
865.48	22105
865.612	22169
865.743	22299
865.875	22196
866.006	22169
866.137	22048
866.269	22181
866.4	22261
866.531	22124
866.662	21956
866.793	21998
866.924	22154
867.055	22101
867.186	21991
867.317	22006
867.448	21968
867.579	22010
867.71	21934
867.841	22067
867.972	22044
868.103	22078
868.233	21968
868.364	22010
868.495	22166
868.625	22303
868.756	22432
868.886	22322
869.017	22341
869.147	22371
869.278	22413
869.408	22405
869.539	22329
869.669	22352
869.799	22409
869.929	22447
870.06	22402
870.19	22618
870.32	22584
870.45	22641
870.58	22786
870.71	22877
870.84	22683
870.97	22687
871.1	22679
871.23	22839
871.36	22957
871.489	22889
871.619	22793
871.749	22942
871.879	22938
872.008	23029
872.138	23109
872.267	22892
872.397	22748
872.526	22729
872.656	22774
872.785	22698
872.915	23041
873.044	22980
873.173	22919
873.303	22900
873.432	22999
873.561	23003
873.69	22984
873.819	22885
873.948	22968
874.077	22904
874.206	23003
874.335	23056
874.464	23090
874.593	23277
874.722	23098
874.851	23189
874.979	23132
875.108	23246
875.237	23159
875.365	23075
875.494	23105
875.623	23242
875.751	23155
875.88	23174
876.008	23414
876.136	23387
876.265	23383
876.393	23691
876.521	23581
876.65	23646
876.778	23547
876.906	23444
877.034	23459
877.162	23642
877.29	23406
877.418	23414
877.546	23611
877.674	23452
877.802	23509
877.93	23417
878.058	23490
878.185	23368
878.313	23505
878.441	23467
878.568	23311
878.696	23402
878.824	23429
878.951	23581
879.079	23691
879.206	23805
879.333	23707
879.461	23589
879.588	23562
879.715	23623
879.842	23745
879.97	23649
880.097	23391
880.224	23246
880.351	23341
880.478	23512
880.605	23277
880.732	23379
880.859	23600
880.986	23258
881.112	23341
881.239	23189
881.366	23143
881.493	22999
881.619	22873
881.746	22843
881.872	22869
881.999	22866
882.125	22835
882.252	22889
882.378	22816
882.505	22904
882.631	22592
882.757	22622
882.883	22797
883.01	22527
883.136	22569
883.262	22360
883.388	22447
883.514	22489
883.64	22538
883.766	22421
883.892	22314
884.018	22306
884.143	22500
884.269	22588
884.395	22318
884.52	22162
884.646	22295
884.772	22120
884.897	21983
885.023	22234
885.148	22276
885.274	22322
885.399	22386
885.524	22154
885.65	22116
885.775	22253
885.9	22116
886.025	22322
886.15	22238
886.275	22192
886.4	22051
886.525	22093
886.65	22082
886.775	22150
886.9	22185
887.025	22280
887.149	22059
887.274	21937
887.399	21960
887.523	21972
887.648	21854
887.773	21911
887.897	21994
888.021	21854
888.146	21842
888.27	22025
888.395	22032
888.519	21892
888.643	21899
888.767	22025
888.891	21736
889.015	21656
889.139	21747
889.263	21686
889.387	21743
889.511	21934
889.635	21907
889.759	21709
889.883	21713
890.006	21622
890.13	21793
890.254	21603
890.377	21629
890.501	21496
890.624	21481
890.748	21561
890.871	21279
890.995	21264
891.118	21249
891.241	21268
891.364	21351
891.488	21351
891.611	21279
891.734	21340
891.857	21329
891.98	21287
892.103	21272
892.226	21355
892.349	21211
892.471	21001
892.594	21192
892.717	21332
892.839	21055
892.962	21214
893.085	21214
893.207	21207
893.33	21024
893.452	21032
893.575	21298
893.697	21154
893.819	21313
893.941	21408
894.064	21359
894.186	21093
894.308	21036
894.43	21161
894.552	21336
894.674	21287
894.796	21146
894.918	21085
895.04	21066
895.161	21203
895.283	21180
895.405	20971
895.526	21074
895.648	21032
895.769	21127
895.891	21169
896.012	21222
896.134	21230
896.255	21298
896.376	21055
896.498	21089
896.619	21195
896.74	21150
896.861	21260
896.982	21477
897.103	21698
897.224	21466
897.345	21488
897.466	21268
897.587	21336
897.708	21416
897.828	21329
897.949	21306
898.07	21146
898.19	21359
898.311	21306
898.431	21306
898.552	21176
898.672	21378
898.792	21481
898.913	21389
899.033	21233
899.153	21123
899.273	21017
899.393	20979
899.513	21135
899.633	21173
899.753	21089
899.873	21116
899.993	20979
900.113	20899
900.232	20998
900.352	20971
900.472	20906
900.591	20891
900.711	20834
900.83	20773
900.95	21013
901.069	20941
901.189	20720
901.308	20686
901.427	20328
901.546	20476
901.665	20393
901.784	20377
901.904	20252
902.023	20157
902.141	19936
902.26	19921
902.379	19974
902.498	19894
902.617	19963
902.735	19940
902.854	19864
902.973	19727
903.091	19590
903.21	19616
903.328	19556
903.446	19518
903.565	19407
903.683	19377
903.801	19187
903.919	19293
904.038	19240
904.156	19152
904.274	19114
904.392	19008
904.51	19088
904.627	19099
904.745	19000
904.863	19255
904.981	18916
905.098	18760
905.216	18867
905.334	18783
905.451	18920
905.569	18859
905.686	18795
905.803	18711
905.921	18540
906.038	18650
906.155	18547
906.272	18460
906.389	18422
906.506	18239
906.623	18399
906.74	18304
906.857	18129
906.974	18251
907.091	18323
907.208	18448
907.324	18304
907.441	18148
907.557	18087
907.674	18068
907.79	17942
907.907	17920
908.023	17977
908.139	18057
908.256	18019
908.372	17946
908.488	17855
908.604	17764
908.72	17589
908.836	17748
908.952	17756
909.068	17703
909.184	17794
909.3	17840
909.415	17707
909.531	17722
909.647	17349
909.762	17349
909.878	17425
909.993	17398
910.108	17379
910.224	17391
910.339	17398
910.454	17307
910.57	17204
910.685	17094
910.8	17337
910.915	17391
911.03	17181
911.145	16957
911.259	17018
911.374	16946
911.489	16908
911.604	16949
911.718	16763
911.833	16736
911.947	16706
912.062	16630
912.176	16713
912.291	16694
912.405	16778
912.519	16968
912.633	16911
912.748	16812
912.862	16793
912.976	16596
913.09	16474
913.204	16634
913.318	16569
913.431	16706
913.545	16584
913.659	16569
913.772	16500
913.886	16325
914	16360
914.113	16466
914.226	16382
914.34	16352
914.453	16249
914.566	16318
914.68	16352
914.793	16223
914.906	16002
915.019	15911
915.132	15838
915.245	15907
915.358	15922
915.47	15892
915.583	15968
915.696	15918
915.809	15937
915.921	16086
916.034	15895
916.146	15865
916.259	15835
916.371	15880
916.483	15804
916.595	15701
916.708	15705
916.82	15774
916.932	15671
917.044	15675
917.156	15572
917.268	15572
917.38	15671
917.491	15443
917.603	15473
917.715	15595
917.826	15576
917.938	15511
918.049	15405
918.161	15458
918.272	15610
918.384	15641
918.495	15515
918.606	15351
918.717	15188
918.828	15313
918.939	15367
919.05	15112
919.161	15260
919.272	15081
919.383	15173
919.494	15355
919.604	15466
919.715	15218
919.826	15214
919.936	15165
920.047	15268
920.157	15298
920.267	15397
920.378	15313
920.488	15192
920.598	15401
920.708	15534
920.818	15245
920.928	15340
921.038	15488
921.148	15466
921.258	15127
921.368	15131
921.477	14994
921.587	14914
921.697	14804
921.806	14918
921.916	14785
922.025	14526
922.134	14621
922.244	14594
922.353	14583
922.462	14499
922.571	14469
922.68	14256
922.789	14142
922.898	14229
923.007	14153
923.116	14199
923.224	14271
923.333	14237
923.442	14062
923.55	14134
923.659	14081
923.767	14031
923.876	13925
923.984	14027
924.092	13841
924.201	13993
924.309	13925
924.417	13795
924.525	13894
924.633	13871
924.741	14796
924.849	13647
924.956	13799
925.064	13643
925.172	13544
925.279	13616
925.387	13616
925.494	13605
925.602	13742
925.709	13616
925.816	13529
925.924	13533
926.031	13605
926.138	13552
926.245	13552
926.352	13346
926.459	13525
926.566	13559
926.673	13449
926.779	13350
926.886	13369
926.993	13133
927.099	13251
927.206	13183
927.312	13160
927.419	13228
927.525	13084
927.631	13198
927.737	12954
927.843	12977
927.95	12901
928.056	12878
928.162	13050
928.267	12958
928.373	13559
928.479	12954
928.585	12764
928.69	12935
928.796	13008
928.901	12837
929.007	12658
929.112	12856
929.218	12738
929.323	12715
929.428	12631
929.533	12795
929.638	12650
929.743	12604
929.848	12677
929.953	12608
930.058	12483
930.163	12357
930.267	12330
930.372	12388
930.477	12273
930.581	12513
930.685	12338
930.79	12201
930.894	12213
930.998	12076
931.103	12281
931.207	12011
931.311	11935
931.415	11863
931.519	11608
931.623	11505
