Data from test_V78500241_2057.txt Node
Date: Fri Mar 25 15:56:03 CST 2022
User: usil
Spectrometer: V785-0024
Trigger mode: 0
Integration Time (sec): 4.000000E-1
Scans to average: 1
Nonlinearity correction enabled: false
Boxcar width: 0
Storing dark spectrum: false
XAxis mode: Wavelengths
Number of Pixels in Spectrum: 1024
>>>>>Begin Spectral Data<<<<<
801.071	28953
801.214	28816
801.356	28668
801.499	28508
801.641	28554
801.783	28580
801.926	28527
802.068	28367
802.211	28386
802.353	28303
802.496	28162
802.638	28040
802.78	28074
802.923	28032
803.065	28048
803.208	28032
803.35	28150
803.492	28120
803.635	28371
803.777	28272
803.919	28375
804.061	28637
804.204	28436
804.346	28276
804.488	28295
804.63	28352
804.773	28230
804.915	28360
805.057	28557
805.199	28318
805.341	28527
805.483	28618
805.626	28550
805.768	28508
805.91	28577
806.052	28618
806.194	28516
806.336	28679
806.478	28668
806.62	28573
806.762	28729
806.904	28831
807.046	29155
807.188	28919
807.33	29022
807.472	29140
807.614	29075
807.756	29121
807.898	28934
808.04	28854
808.182	28862
808.324	28869
808.465	28946
808.607	29025
808.749	29296
808.891	29341
809.033	29459
809.174	29356
809.316	29200
809.458	29136
809.6	29223
809.741	29162
809.883	29486
810.025	29417
810.166	29486
810.308	29558
810.45	29318
810.591	29406
810.733	29402
810.875	29193
811.016	29239
811.158	29086
811.299	29296
811.441	29337
811.582	29307
811.724	29311
811.865	29216
812.007	29200
812.148	29273
812.29	29322
812.431	29383
812.573	29592
812.714	29802
812.855	29745
812.997	29855
813.138	30053
813.279	29832
813.421	29821
813.562	29661
813.703	29547
813.845	29558
813.986	29212
814.127	29083
814.268	28908
814.41	29006
814.551	28919
814.692	28961
814.833	28793
814.974	28984
815.115	29166
815.256	28991
815.397	28767
815.539	28839
815.68	28717
815.821	28679
815.962	28877
816.103	28858
816.244	28561
816.385	28660
816.526	28478
816.666	28451
816.807	28177
816.948	28341
817.089	28363
817.23	28249
817.371	28344
817.512	28306
817.653	28242
817.793	28044
817.934	28265
818.075	28371
818.216	28238
818.356	28295
818.497	28257
818.638	27937
818.778	28006
818.919	28051
819.06	28082
819.2	28200
819.341	28314
819.481	28299
819.622	28421
819.762	28626
819.903	28577
820.043	28546
820.184	28329
820.324	28257
820.465	28519
820.605	28394
820.746	28428
820.886	28230
821.026	28519
821.167	28409
821.307	28405
821.447	28303
821.588	28188
821.728	28078
821.868	27857
822.008	27854
822.149	27747
822.289	27694
822.429	27370
822.569	27477
822.709	27454
822.849	27302
822.99	27279
823.13	27355
823.27	27119
823.41	27119
823.55	26940
823.69	27058
823.83	27093
823.97	27077
824.11	26914
824.25	26891
824.389	26880
824.529	26914
824.669	26952
824.809	27127
824.949	26918
825.089	27096
825.228	26952
825.368	26834
825.508	26785
825.648	26788
825.787	26807
825.927	26963
826.067	26781
826.206	26849
826.346	27093
826.485	26876
826.625	26826
826.765	26956
826.904	26853
827.044	26469
827.183	26590
827.323	26587
827.462	26651
827.601	26503
827.741	26461
827.88	26484
828.02	26507
828.159	26579
828.298	26583
828.437	26503
828.577	26503
828.716	26621
828.855	26320
828.994	26176
829.134	26278
829.273	26317
829.412	26065
829.551	26164
829.69	26210
829.829	26240
829.968	26278
830.107	26259
830.246	26271
830.385	26161
830.524	26130
830.663	26065
830.802	25830
830.941	25753
831.08	25693
831.219	25868
831.357	25841
831.496	26062
831.635	25833
831.774	25818
831.913	25795
832.051	25594
832.19	25556
832.329	25544
832.467	25586
832.606	25476
832.744	25502
832.883	25460
833.022	25384
833.16	25499
833.299	25453
833.437	25518
833.576	25578
833.714	25552
833.852	25483
833.991	25590
834.129	25571
834.267	25544
834.406	25544
834.544	25422
834.682	25510
834.821	25609
834.959	25677
835.097	25419
835.235	25609
835.373	25460
835.511	25559
835.65	25411
835.788	25419
835.926	25263
836.064	25206
836.202	25282
836.34	25392
836.478	25426
836.615	25308
836.753	25537
836.891	25491
837.029	25377
837.167	25339
837.305	25213
837.443	25187
837.58	25274
837.718	25194
837.856	25190
837.993	25133
838.131	25110
838.269	24992
838.406	24989
838.544	25091
838.681	24875
838.819	24817
838.956	24661
839.094	24650
839.231	24681
839.369	24825
839.506	25084
839.643	24844
839.781	24677
839.918	24544
840.055	24650
840.193	24635
840.33	24642
840.467	24658
840.604	24593
840.742	24757
840.879	24380
841.016	24433
841.153	24433
841.29	24745
841.427	24521
841.564	24486
841.701	24601
841.838	24445
841.975	24559
842.112	24547
842.249	24357
842.385	24426
842.522	24479
842.659	24456
842.796	24414
842.933	24399
843.069	24243
843.206	24194
843.343	24330
843.479	24407
843.616	24422
843.752	24186
843.889	24163
844.025	24201
844.162	23958
844.298	24182
844.435	24102
844.571	23878
844.708	24110
844.844	24235
844.98	24174
845.117	24224
845.253	24106
845.389	23996
845.525	23965
845.661	23980
845.798	23840
845.934	24011
846.07	23790
846.206	23729
846.342	23969
846.478	23703
846.614	23455
846.75	23535
846.886	23554
847.022	23463
847.158	23516
847.294	23516
847.429	23600
847.565	23467
847.701	23893
847.837	23322
847.972	23162
848.108	23254
848.244	23277
848.379	23273
848.515	23197
848.65	23083
848.786	22946
848.921	23159
849.057	23220
849.192	23155
849.328	23155
849.463	23041
849.598	23098
849.734	22919
849.869	22953
850.004	22752
850.14	22873
850.275	22854
850.41	22790
850.545	22752
850.68	22748
850.815	22915
850.95	22934
851.085	23018
851.22	22904
851.355	23067
851.49	22858
851.625	22885
851.76	22869
851.895	22839
852.03	22782
852.165	22889
852.299	22885
852.434	22987
852.569	22839
852.703	22767
852.838	22987
852.973	23052
853.107	22923
853.242	22645
853.376	22717
853.511	22607
853.645	22698
853.78	22812
853.914	22702
854.048	22729
854.183	22664
854.317	22759
854.451	22934
854.585	22736
854.72	22649
854.854	22778
854.988	22481
855.122	22615
855.256	22478
855.39	22577
855.524	22824
855.658	22694
855.792	22767
855.926	22641
856.06	22733
856.194	22763
856.327	22660
856.461	22622
856.595	22557
856.729	22698
856.862	22733
856.996	22664
857.13	22759
857.263	22850
857.397	22771
857.53	22820
857.664	22744
857.797	22748
857.931	22881
858.064	22774
858.197	22767
858.331	22630
858.464	22687
858.597	22596
858.731	22725
858.864	22668
858.997	22535
859.13	22618
859.263	22691
859.396	22717
859.529	22679
859.662	22713
859.795	22573
859.928	22664
860.061	22774
860.194	22752
860.327	22691
860.46	22675
860.592	22736
860.725	22835
860.858	22812
860.99	22778
861.123	22645
861.256	22611
861.388	22668
861.521	23345
861.653	22413
861.786	22512
861.918	22611
862.05	22584
862.183	22615
862.315	22691
862.447	22618
862.58	22675
862.712	22424
862.844	22398
862.976	22481
863.108	22459
863.24	22809
863.372	22363
863.504	22363
863.636	22382
863.768	22398
863.9	22379
864.032	22276
864.164	22352
864.296	22455
864.428	22500
864.559	22424
864.691	22466
864.823	22398
864.954	22398
865.086	22318
865.217	22265
865.349	22246
865.48	22261
865.612	22314
865.743	22455
865.875	22303
866.006	22280
866.137	22360
866.269	22158
866.4	22215
866.531	22086
866.662	22200
866.793	22261
866.924	22249
867.055	22124
867.186	22253
867.317	22257
867.448	22154
867.579	22226
867.71	22109
867.841	22135
867.972	22287
868.103	22230
868.233	22147
868.364	22234
868.495	22166
868.625	22303
868.756	22424
868.886	22265
869.017	22428
869.147	22519
869.278	22542
869.408	22443
869.539	22424
869.669	22504
869.799	22394
869.929	22588
870.06	22527
870.19	22896
870.32	22713
870.45	22653
870.58	22869
870.71	22949
870.84	22771
870.97	22797
871.1	22740
871.23	22991
871.36	22965
871.489	22915
871.619	22946
871.749	23003
871.879	23147
872.008	23109
872.138	23132
872.267	23102
872.397	22778
872.526	22831
872.656	22877
872.785	22820
872.915	23102
873.044	23048
873.173	22957
873.303	23094
873.432	23033
873.561	23299
873.69	22999
873.819	23003
873.948	23136
874.077	23067
874.206	22946
874.335	23025
874.464	23151
874.593	23250
874.722	23075
874.851	23398
874.979	23349
875.108	23288
875.237	23216
875.365	23155
875.494	23140
875.623	23345
875.751	23280
875.88	23239
876.008	23417
876.136	23398
876.265	23726
876.393	23729
876.521	23752
876.65	23668
876.778	23680
876.906	23573
877.034	23581
877.162	23581
877.29	23516
877.418	23714
877.546	23680
877.674	23531
877.802	23699
877.93	23672
878.058	23562
878.185	23493
878.313	23539
878.441	23604
878.568	23425
878.696	23570
878.824	23611
878.951	23646
879.079	23786
879.206	23855
879.333	23691
879.461	23680
879.588	23737
879.715	23684
879.842	23897
879.97	23756
880.097	23345
880.224	23398
880.351	23330
880.478	23429
880.605	23395
880.732	23535
880.859	23585
880.986	23395
881.112	23353
881.239	23448
881.366	23132
881.493	23079
881.619	22965
881.746	22881
881.872	22976
881.999	22946
882.125	22900
882.252	22892
882.378	22991
882.505	23075
882.631	22752
882.757	22744
882.883	22763
883.01	22740
883.136	22577
883.262	22577
883.388	22489
883.514	22664
883.64	22641
883.766	22519
883.892	22413
884.018	22421
884.143	22611
884.269	22675
884.395	22325
884.52	22124
884.646	22253
884.772	22143
884.897	22147
885.023	22299
885.148	22367
885.274	22352
885.399	22485
885.524	22341
885.65	22253
885.775	22128
885.9	22181
886.025	22367
886.15	22284
886.275	22082
886.4	22109
886.525	22196
886.65	22109
886.775	22230
886.9	22322
887.025	22550
887.149	22246
887.274	22063
887.399	22048
887.523	21953
887.648	21979
887.773	21945
887.897	22105
888.021	22082
888.146	21911
888.27	22147
888.395	22006
888.519	22169
888.643	22063
888.767	22010
888.891	21994
889.015	21827
889.139	21838
889.263	21850
889.387	21945
889.511	21953
889.635	21880
889.759	21778
889.883	21850
890.006	21762
890.13	21937
890.254	21720
890.377	21755
890.501	21538
890.624	21511
890.748	21485
890.871	21481
890.995	21310
891.118	21344
891.241	21336
891.364	21424
891.488	21496
891.611	21443
891.734	21389
891.857	21412
891.98	21378
892.103	21439
892.226	21355
892.349	21230
892.471	21173
892.594	21176
892.717	21351
892.839	21256
892.962	21195
893.085	21211
893.207	21264
893.33	21195
893.452	21104
893.575	21214
893.697	21264
893.819	21359
893.941	21431
894.064	21408
894.186	21207
894.308	21192
894.43	21298
894.552	21405
894.674	21408
894.796	21161
894.918	21325
895.04	21135
895.161	21272
895.283	21310
895.405	21131
895.526	21287
895.648	21169
895.769	21264
895.891	21226
896.012	21306
896.134	21291
896.255	21150
896.376	21093
896.498	21203
896.619	21275
896.74	21241
896.861	21313
896.982	21515
897.103	21595
897.224	21454
897.345	21507
897.466	21348
897.587	21431
897.708	21542
897.828	21428
897.949	21332
898.07	21405
898.19	21386
898.311	21439
898.431	21294
898.552	21466
898.672	21542
898.792	21515
898.913	21485
899.033	21332
899.153	21154
899.273	21085
899.393	21188
899.513	21268
899.633	21218
899.753	21180
899.873	21066
899.993	21169
900.113	21013
900.232	21146
900.352	21081
900.472	20998
900.591	20811
900.711	20960
900.83	20857
900.95	21058
901.069	21066
901.189	20796
901.308	20594
901.427	20492
901.546	20522
901.665	20465
901.784	20621
901.904	20286
902.023	20195
902.141	20096
902.26	20103
902.379	20035
902.498	20024
902.617	19932
902.735	20115
902.854	19883
902.973	19833
903.091	19674
903.21	19571
903.328	19620
903.446	19506
903.565	19556
903.683	19578
903.801	19312
903.919	19388
904.038	19354
904.156	19160
904.274	19164
904.392	19148
904.51	19183
904.627	19183
904.745	19168
904.863	19335
904.981	18973
905.098	18749
905.216	18821
905.334	18996
905.451	18871
905.569	18825
905.686	18829
905.803	18890
905.921	18753
906.038	18779
906.155	18684
906.272	18555
906.389	18547
906.506	18471
906.623	18334
906.74	18437
906.857	18247
906.974	18235
907.091	18456
907.208	18448
907.324	18414
907.441	18414
907.557	18163
907.674	18121
907.79	18072
907.907	17977
908.023	17977
908.139	18083
908.256	17984
908.372	17977
908.488	17885
908.604	17817
908.72	17783
908.836	17878
908.952	17809
909.068	17741
909.184	17851
909.3	17783
909.415	17767
909.531	17786
909.647	17528
909.762	17467
909.878	17520
909.993	17539
910.108	17474
910.224	17406
910.339	17512
910.454	17455
910.57	17200
910.685	17353
910.8	17455
910.915	17402
911.03	17227
911.145	17064
911.259	17136
911.374	16987
911.489	16965
911.604	16919
911.718	16809
911.833	16866
911.947	16729
912.062	16653
912.176	16782
912.291	16904
912.405	16820
912.519	16942
912.633	16965
912.748	16835
912.862	16687
912.976	16584
913.09	16542
913.204	16611
913.318	16569
913.431	16717
913.545	16584
913.659	16664
913.772	16584
913.886	16398
914	16413
914.113	16455
914.226	16504
914.34	16485
914.453	16322
914.566	16356
914.68	16272
914.793	16261
914.906	15987
915.019	16055
915.132	16017
915.245	15983
915.358	16067
915.47	15983
915.583	15949
915.696	15888
915.809	16169
915.921	16097
916.034	15915
916.146	15869
916.259	15873
916.371	16002
916.483	15994
916.595	15846
916.708	15831
916.82	15743
916.932	15720
917.044	15660
917.156	15766
917.268	15648
917.38	15667
917.491	15553
917.603	15663
917.715	15606
917.826	15690
917.938	15469
918.049	15386
918.161	15591
918.272	15519
918.384	15568
918.495	15622
918.606	15363
918.717	15249
918.828	15363
918.939	15450
919.05	15287
919.161	15336
919.272	15154
919.383	15226
919.494	15367
919.604	15458
919.715	15317
919.826	15256
919.936	15249
920.047	15439
920.157	15359
920.267	15515
920.378	15321
920.488	15287
920.598	15412
920.708	15530
920.818	15382
920.928	15447
921.038	15584
921.148	15542
921.258	15207
921.368	15093
921.477	14967
921.587	15020
921.697	14830
921.806	15074
921.916	14902
922.025	14682
922.134	14682
922.244	14564
922.353	14651
922.462	14450
922.571	14442
922.68	14263
922.789	14176
922.898	14336
923.007	14233
923.116	14347
923.224	14263
923.333	14320
923.442	14088
923.55	14054
923.659	14142
923.767	14233
923.876	14077
923.984	14176
924.092	13947
924.201	14043
924.309	14065
924.417	14001
924.525	13902
924.633	13906
924.741	14731
924.849	13696
924.956	13864
925.064	13647
925.172	13651
925.279	13708
925.387	13746
925.494	13582
925.602	13780
925.709	13715
925.816	13556
925.924	13632
926.031	13719
926.138	13506
926.245	13643
926.352	13499
926.459	13715
926.566	13696
926.673	13533
926.779	13396
926.886	13449
926.993	13259
927.099	13217
927.206	13149
927.312	13072
927.419	13187
927.525	13206
927.631	13228
927.737	13160
927.843	12958
927.95	12954
928.056	12947
928.162	13019
928.267	13046
928.373	13575
928.479	13061
928.585	12802
928.69	12932
928.796	12985
928.901	12837
929.007	12772
929.112	12867
929.218	12829
929.323	12700
929.428	12642
929.533	12787
929.638	12566
929.743	12703
929.848	12604
929.953	12692
930.058	12593
930.163	12483
930.267	12418
930.372	12540
930.477	12285
930.581	12525
930.685	12437
930.79	12205
930.894	12304
930.998	12273
931.103	12437
931.207	12019
931.311	11946
931.415	11889
931.519	11646
931.623	11551
