Data from test_V78500241_2093.txt Node
Date: Fri Mar 25 15:56:18 CST 2022
User: usil
Spectrometer: V785-0024
Trigger mode: 0
Integration Time (sec): 4.000000E-1
Scans to average: 1
Nonlinearity correction enabled: false
Boxcar width: 0
Storing dark spectrum: false
XAxis mode: Wavelengths
Number of Pixels in Spectrum: 1024
>>>>>Begin Spectral Data<<<<<
801.071	28809
801.214	28649
801.356	28542
801.499	28382
801.641	28276
801.783	28299
801.926	28367
802.068	28109
802.211	28223
802.353	28101
802.496	28025
802.638	27876
802.78	28021
802.923	27876
803.065	27918
803.208	27937
803.35	27937
803.492	28002
803.635	28025
803.777	28025
803.919	28162
804.061	28523
804.204	28344
804.346	28074
804.488	28063
804.63	28131
804.773	28082
804.915	28162
805.057	28360
805.199	28268
805.341	28246
805.483	28276
805.626	28413
805.768	28265
805.91	28424
806.052	28493
806.194	28379
806.336	28493
806.478	28443
806.62	28428
806.762	28538
806.904	28706
807.046	28824
807.188	28812
807.33	28752
807.472	28930
807.614	28866
807.756	28809
807.898	28584
808.04	28459
808.182	28622
808.324	28790
808.465	28717
808.607	28946
808.749	28877
808.891	29117
809.033	29223
809.174	29102
809.316	28938
809.458	29174
809.6	28938
809.741	29155
809.883	29048
810.025	29337
810.166	29315
810.308	29501
810.45	29121
810.591	29223
810.733	29102
810.875	28987
811.016	28938
811.158	29033
811.299	29204
811.441	29197
811.582	29254
811.724	29140
811.865	29083
812.007	28980
812.148	29090
812.29	29140
812.431	29216
812.573	29368
812.714	29551
812.855	29627
812.997	29691
813.138	29817
813.279	29691
813.421	29459
813.562	29589
813.703	29505
813.845	29162
813.986	29010
814.127	28934
814.268	28790
814.41	28660
814.551	28622
814.692	28755
814.833	28702
814.974	28698
815.115	28820
815.256	28584
815.397	28489
815.539	28630
815.68	28485
815.821	28557
815.962	28466
816.103	28424
816.244	28367
816.385	28329
816.526	28557
816.666	28192
816.807	28032
816.948	28166
817.089	28188
817.23	27998
817.371	27918
817.512	28188
817.653	28044
817.793	28017
817.934	27972
818.075	27922
818.216	28074
818.356	27987
818.497	27797
818.638	27835
818.778	27797
818.919	27934
819.06	27873
819.2	27861
819.341	28120
819.481	28048
819.622	28207
819.762	28329
819.903	28246
820.043	28394
820.184	28185
820.324	28158
820.465	28253
820.605	28097
820.746	28120
820.886	27983
821.026	28253
821.167	28116
821.307	28207
821.447	28139
821.588	27934
821.728	27911
821.868	27641
822.008	27622
822.149	27587
822.289	27458
822.429	27245
822.569	27291
822.709	27272
822.849	27150
822.99	27070
823.13	27028
823.27	27032
823.41	26887
823.55	26777
823.69	26899
823.83	26872
823.97	26807
824.11	26838
824.25	26651
824.389	26617
824.529	26785
824.669	26811
824.809	26815
824.949	26804
825.089	26739
825.228	26792
825.368	26545
825.508	26507
825.648	26655
825.787	26560
825.927	26693
826.067	26609
826.206	26571
826.346	26705
826.485	26522
826.625	26461
826.765	26514
826.904	26587
827.044	26385
827.183	26248
827.323	26362
827.462	26214
827.601	26229
827.741	26434
827.88	26278
828.02	26218
828.159	26240
828.298	26408
828.437	26358
828.577	26336
828.716	26476
828.855	26240
828.994	26020
829.134	26084
829.273	25921
829.412	26027
829.551	25868
829.69	25856
829.829	26058
829.968	26077
830.107	26088
830.246	26096
830.385	25902
830.524	26016
830.663	25723
830.802	25750
830.941	25502
831.08	25491
831.219	25681
831.357	25639
831.496	25830
831.635	25548
831.774	25537
831.913	25483
832.051	25449
832.19	25358
832.329	25392
832.467	25114
832.606	25217
832.744	25190
832.883	25091
833.022	25263
833.16	25251
833.299	25297
833.437	25297
833.576	25263
833.714	25312
833.852	25464
833.991	25392
834.129	25487
834.267	25403
834.406	25430
834.544	25369
834.682	25339
834.821	25358
834.959	25304
835.097	25247
835.235	25221
835.373	25335
835.511	25388
835.65	25137
835.788	25240
835.926	25053
836.064	24966
836.202	25015
836.34	25164
836.478	25152
836.615	25240
836.753	25225
836.891	25095
837.029	25114
837.167	25046
837.305	24905
837.443	25019
837.58	24977
837.718	25000
837.856	24981
837.993	24856
838.131	25042
838.269	24878
838.406	24814
838.544	24791
838.681	24654
838.819	24566
838.956	24403
839.094	24460
839.231	24555
839.369	24608
839.506	24783
839.643	24623
839.781	24418
839.918	24433
840.055	24452
840.193	24330
840.33	24410
840.467	24486
840.604	24422
840.742	24544
840.879	24228
841.016	24266
841.153	24262
841.29	24525
841.427	24304
841.564	24391
841.701	24380
841.838	24273
841.975	24220
842.112	24346
842.249	24117
842.385	24083
842.522	24315
842.659	24007
842.796	24125
842.933	24155
843.069	24060
843.206	23969
843.343	24102
843.479	24148
843.616	24034
843.752	23805
843.889	23992
844.025	24003
844.162	23904
844.298	23954
844.435	23863
844.571	23722
844.708	23901
844.844	24095
844.98	23923
845.117	23901
845.253	23783
845.389	23695
845.525	23741
845.661	23680
845.798	23558
845.934	23760
846.07	23691
846.206	23760
846.342	23668
846.478	23547
846.614	23543
846.75	23322
846.886	23288
847.022	23318
847.158	23356
847.294	23402
847.429	23387
847.565	23322
847.701	23573
847.837	23124
847.972	23102
848.108	23113
848.244	23117
848.379	22934
848.515	22892
848.65	22835
848.786	22919
848.921	22930
849.057	23052
849.192	23124
849.328	22984
849.463	23014
849.598	22828
849.734	22748
849.869	22702
850.004	22668
850.14	22637
850.275	22778
850.41	22561
850.545	22672
850.68	22565
850.815	22755
850.95	22672
851.085	22854
851.22	22782
851.355	22683
851.49	22577
851.625	22660
851.76	22782
851.895	22630
852.03	22611
852.165	22736
852.299	22615
852.434	22698
852.569	22580
852.703	22584
852.838	22843
852.973	22778
853.107	22763
853.242	22645
853.376	22485
853.511	22405
853.645	22516
853.78	22664
853.914	22561
854.048	22470
854.183	22523
854.317	22462
854.451	22641
854.585	22573
854.72	22428
854.854	22580
854.988	22440
855.122	22527
855.256	22371
855.39	22348
855.524	22466
855.658	22592
855.792	22542
855.926	22516
856.06	22432
856.194	22615
856.327	22394
856.461	22436
856.595	22474
856.729	22557
856.862	22649
856.996	22519
857.13	22550
857.263	22538
857.397	22557
857.53	22421
857.664	22462
857.797	22504
857.931	22660
858.064	22481
858.197	22672
858.331	22413
858.464	22493
858.597	22413
858.731	22459
858.864	22386
858.997	22363
859.13	22379
859.263	22527
859.396	22546
859.529	22348
859.662	22474
859.795	22466
859.928	22470
860.061	22577
860.194	22660
860.327	22603
860.46	22462
860.592	22554
860.725	22596
860.858	22637
860.99	22451
861.123	22474
861.256	22375
861.388	22599
861.521	23341
861.653	22409
861.786	22265
861.918	22310
862.05	22390
862.183	22303
862.315	22481
862.447	22462
862.58	22390
862.712	22257
862.844	22272
862.976	22105
863.108	22253
863.24	22698
863.372	22128
863.504	22158
863.636	22143
863.768	22211
863.9	22246
864.032	22128
864.164	22093
864.296	22166
864.428	22253
864.559	22265
864.691	22329
864.823	22223
864.954	22230
865.086	22226
865.217	22166
865.349	22032
865.48	22135
865.612	22109
865.743	22280
865.875	22093
866.006	22124
866.137	22112
866.269	22090
866.4	21964
866.531	21960
866.662	21941
866.793	21960
866.924	21934
867.055	22044
867.186	22120
867.317	21926
867.448	21941
867.579	22013
867.71	22090
867.841	21819
867.972	22051
868.103	22013
868.233	21888
868.364	21945
868.495	22093
868.625	22291
868.756	22424
868.886	22158
869.017	22238
869.147	22341
869.278	22348
869.408	22287
869.539	22341
869.669	22166
869.799	22421
869.929	22363
870.06	22405
870.19	22531
870.32	22523
870.45	22527
870.58	22653
870.71	22694
870.84	22740
870.97	22702
871.1	22573
871.23	22778
871.36	22809
871.489	22649
871.619	22797
871.749	22839
871.879	22904
872.008	22976
872.138	22854
872.267	22831
872.397	22771
872.526	22607
872.656	22717
872.785	22721
872.915	22820
873.044	22889
873.173	22965
873.303	22938
873.432	22759
873.561	23018
873.69	22854
873.819	22850
873.948	22934
874.077	22919
874.206	22953
874.335	22911
874.464	23014
874.593	23079
874.722	23025
874.851	23105
874.979	23124
875.108	23113
875.237	22968
875.365	23113
875.494	23014
875.623	23265
875.751	23105
875.88	23086
876.008	23124
876.136	23299
876.265	23543
876.393	23661
876.521	23444
876.65	23577
876.778	23520
876.906	23410
877.034	23463
877.162	23429
877.29	23429
877.418	23345
877.546	23383
877.674	23402
877.802	23337
877.93	23383
878.058	23395
878.185	23269
878.313	23326
878.441	23406
878.568	23242
878.696	23368
878.824	23509
878.951	23440
879.079	23490
879.206	23737
879.333	23471
879.461	23410
879.588	23596
879.715	23535
879.842	23703
879.97	23433
880.097	23337
880.224	23178
880.351	23220
880.478	23315
880.605	23197
880.732	23391
880.859	23471
880.986	23330
881.112	23185
881.239	23124
881.366	22999
881.493	22866
881.619	22763
881.746	22847
881.872	22896
881.999	22854
882.125	22816
882.252	22953
882.378	22831
882.505	22953
882.631	22588
882.757	22352
882.883	22691
883.01	22424
883.136	22436
883.262	22379
883.388	22337
883.514	22375
883.64	22409
883.766	22470
883.892	22226
884.018	22268
884.143	22421
884.269	22409
884.395	22299
884.52	22051
884.646	22093
884.772	22074
884.897	22036
885.023	21968
885.148	22131
885.274	22059
885.399	22150
885.524	22074
885.65	22078
885.775	22120
885.9	22143
886.025	22223
886.15	22246
886.275	22139
886.4	21979
886.525	22059
886.65	22048
886.775	22055
886.9	22223
887.025	22284
887.149	22093
887.274	21854
887.399	21842
887.523	21907
887.648	21770
887.773	21759
887.897	21960
888.021	22002
888.146	21713
888.27	21865
888.395	21911
888.519	21922
888.643	21850
888.767	21739
888.891	21797
889.015	21625
889.139	21625
889.263	21557
889.387	21797
889.511	21865
889.635	21774
889.759	21629
889.883	21660
890.006	21644
890.13	21755
890.254	21549
890.377	21542
890.501	21401
890.624	21458
890.748	21420
890.871	21256
890.995	21165
891.118	21218
891.241	21256
891.364	21188
891.488	21359
891.611	21272
891.734	21325
891.857	21294
891.98	21207
892.103	21245
892.226	21351
892.349	21169
892.471	21017
892.594	21085
892.717	21165
892.839	21112
892.962	21096
893.085	21230
893.207	21062
893.33	21009
893.452	21051
893.575	21207
893.697	21009
893.819	21150
893.941	21302
894.064	21157
894.186	21055
894.308	20994
894.43	21093
894.552	21302
894.674	21108
894.796	21009
894.918	21093
895.04	20998
895.161	21195
895.283	21161
895.405	20986
895.526	21093
895.648	21058
895.769	21066
895.891	21188
896.012	21108
896.134	21108
896.255	21096
896.376	21013
896.498	21104
896.619	21070
896.74	21104
896.861	21070
896.982	21386
897.103	21511
897.224	21298
897.345	21268
897.466	21329
897.587	21344
897.708	21363
897.828	21302
897.949	21135
898.07	21211
898.19	21226
898.311	21306
898.431	21237
898.552	21176
898.672	21351
898.792	21397
898.913	21241
899.033	21192
899.153	21104
899.273	21028
899.393	21085
899.513	20963
899.633	21009
899.753	21039
899.873	20906
899.993	21104
900.113	20914
900.232	20975
900.352	20838
900.472	20826
900.591	20655
900.711	20887
900.83	20746
900.95	20849
901.069	20731
901.189	20663
901.308	20370
901.427	20336
901.546	20358
901.665	20362
901.784	20233
901.904	20191
902.023	20149
902.141	19982
902.26	19890
902.379	19909
902.498	19811
902.617	19742
902.735	19951
902.854	19860
902.973	19776
903.091	19578
903.21	19521
903.328	19419
903.446	19381
903.565	19407
903.683	19373
903.801	19183
903.919	19293
904.038	19297
904.156	19050
904.274	19076
904.392	19069
904.51	19000
904.627	19103
904.745	19072
904.863	19148
904.981	18916
905.098	18688
905.216	18730
905.334	18741
905.451	18738
905.569	18821
905.686	18757
905.803	18715
905.921	18544
906.038	18574
906.155	18616
906.272	18384
906.389	18376
906.506	18346
906.623	18308
906.74	18178
906.857	18068
906.974	18140
907.091	18262
907.208	18433
907.324	18292
907.441	18076
907.557	18060
907.674	17954
907.79	17885
907.907	17851
908.023	17809
908.139	18019
908.256	17866
908.372	17931
908.488	17840
908.604	17585
908.72	17634
908.836	17653
908.952	17627
909.068	17714
909.184	17764
909.3	17714
909.415	17802
909.531	17630
909.647	17395
909.762	17406
909.878	17463
909.993	17379
910.108	17356
910.224	17303
910.339	17406
910.454	17250
910.57	17174
910.685	17136
910.8	17391
910.915	17280
911.03	17143
911.145	17003
911.259	16991
911.374	17094
911.489	16915
911.604	16885
911.718	16645
911.833	16710
911.947	16637
912.062	16493
912.176	16774
912.291	16683
912.405	16713
912.519	16869
912.633	16927
912.748	16717
912.862	16653
912.976	16466
913.09	16337
913.204	16489
913.318	16519
913.431	16542
913.545	16664
913.659	16649
913.772	16443
913.886	16310
914	16333
914.113	16371
914.226	16363
914.34	16284
914.453	16219
914.566	16276
914.68	16207
914.793	16135
914.906	15930
915.019	15838
915.132	15778
915.245	15846
915.358	15884
915.47	15857
915.583	15892
915.696	15903
915.809	16078
915.921	15956
916.034	15751
916.146	15743
916.259	15614
916.371	15838
916.483	15755
916.595	15698
916.708	15648
916.82	15686
916.932	15557
917.044	15542
917.156	15610
917.268	15477
917.38	15454
917.491	15488
917.603	15420
917.715	15568
917.826	15553
917.938	15408
918.049	15378
918.161	15462
918.272	15466
918.384	15492
918.495	15405
918.606	15264
918.717	15233
918.828	15138
918.939	15226
919.05	15195
919.161	15268
919.272	15028
919.383	15154
919.494	15272
919.604	15355
919.715	15138
919.826	15150
919.936	15157
920.047	15249
920.157	15161
920.267	15473
920.378	15169
920.488	15211
920.598	15332
920.708	15401
920.818	15370
920.928	15218
921.038	15488
921.148	15382
921.258	15161
921.368	14963
921.477	14967
921.587	14880
921.697	14735
921.806	14941
921.916	14712
922.025	14514
922.134	14518
922.244	14438
922.353	14598
922.462	14404
922.571	14419
922.68	14237
922.789	14161
922.898	14206
923.007	14126
923.116	14191
923.224	14210
923.333	14191
923.442	14050
923.55	13963
923.659	14012
923.767	14043
923.876	13993
923.984	13997
924.092	13841
924.201	13868
924.309	13879
924.417	13906
924.525	13822
924.633	13830
924.741	14701
924.849	13693
924.956	13772
925.064	13677
925.172	13514
925.279	13556
925.387	13616
925.494	13518
925.602	13651
925.709	13674
925.816	13438
925.924	13575
926.031	13624
926.138	13510
926.245	13521
926.352	13460
926.459	13495
926.566	13480
926.673	13548
926.779	13259
926.886	13217
926.993	13114
927.099	13091
927.206	13053
927.312	13012
927.419	13042
927.525	13129
927.631	13046
927.737	12954
927.843	12985
927.95	12817
928.056	12909
928.162	12935
928.267	13019
928.373	13529
928.479	12966
928.585	12722
928.69	12871
928.796	12913
928.901	12783
929.007	12650
929.112	12776
929.218	12688
929.323	12646
929.428	12589
929.533	12783
929.638	12540
929.743	12551
929.848	12559
929.953	12547
930.058	12475
930.163	12342
930.267	12350
930.372	12350
930.477	12323
930.581	12464
930.685	12395
930.79	12068
930.894	12209
930.998	12167
931.103	12205
931.207	11961
931.311	11779
931.415	11771
931.519	11512
931.623	11539
