Data from test_V78500241_1001.txt Node
Date: Fri Mar 25 15:48:44 CST 2022
User: usil
Spectrometer: V785-0024
Trigger mode: 0
Integration Time (sec): 4.000000E-1
Scans to average: 1
Nonlinearity correction enabled: false
Boxcar width: 0
Storing dark spectrum: false
XAxis mode: Wavelengths
Number of Pixels in Spectrum: 1024
>>>>>Begin Spectral Data<<<<<
801.071	28238
801.214	28261
801.356	28036
801.499	27956
801.641	27842
801.783	27789
801.926	27827
802.068	27827
802.211	27823
802.353	27743
802.496	27580
802.638	27481
802.78	27504
802.923	27435
803.065	27427
803.208	27564
803.35	27492
803.492	27591
803.635	27701
803.777	27542
803.919	27705
804.061	28074
804.204	27816
804.346	27644
804.488	27549
804.63	27656
804.773	27667
804.915	27637
805.057	27846
805.199	27637
805.341	27804
805.483	27934
805.626	27922
805.768	27751
805.91	27869
806.052	27914
806.194	27838
806.336	28059
806.478	27857
806.62	27907
806.762	27930
806.904	28074
807.046	28401
807.188	28394
807.33	28196
807.472	28394
807.614	28280
807.756	28265
807.898	28265
808.04	27998
808.182	28158
808.324	28230
808.465	28150
808.607	28348
808.749	28611
808.891	28767
809.033	28694
809.174	28611
809.316	28394
809.458	28675
809.6	28470
809.741	28725
809.883	28687
810.025	28835
810.166	28881
810.308	28767
810.45	28888
810.591	28824
810.733	28611
810.875	28516
811.016	28470
811.158	28447
811.299	28809
811.441	28702
811.582	28641
811.724	28691
811.865	28611
812.007	28588
812.148	28580
812.29	28489
812.431	28706
812.573	28824
812.714	29044
812.855	28949
812.997	29349
813.138	29288
813.279	29197
813.421	29200
813.562	29098
813.703	29086
813.845	28835
813.986	28584
814.127	28303
814.268	28249
814.41	28371
814.551	28455
814.692	28379
814.833	28436
814.974	28105
815.115	28226
815.256	28268
815.397	28128
815.539	28177
815.68	28147
815.821	28120
815.962	28101
816.103	28017
816.244	27934
816.385	28036
816.526	27876
816.666	27557
816.807	27644
816.948	27736
817.089	27720
817.23	27663
817.371	27701
817.512	27660
817.653	27488
817.793	27538
817.934	27648
818.075	27637
818.216	27553
818.356	27488
818.497	27310
818.638	27325
818.778	27256
818.919	27329
819.06	27443
819.2	27424
819.341	27511
819.481	27656
819.622	27690
819.762	28032
819.903	27835
820.043	27819
820.184	27610
820.324	27709
820.465	27663
820.605	27656
820.746	27732
820.886	27492
821.026	27663
821.167	27686
821.307	27850
821.447	27538
821.588	27576
821.728	27481
821.868	27146
822.008	27123
822.149	27096
822.289	27051
822.429	26693
822.569	26644
822.709	26659
822.849	26590
822.99	26651
823.13	26560
823.27	26423
823.41	26389
823.55	26237
823.69	26492
823.83	26271
823.97	26309
824.11	26183
824.25	26157
824.389	26267
824.529	26358
824.669	26298
824.809	26450
824.949	26271
825.089	26381
825.228	26332
825.368	26164
825.508	26035
825.648	26005
825.787	26050
825.927	26199
826.067	25986
826.206	26062
826.346	26088
826.485	26183
826.625	26161
826.765	26229
826.904	26069
827.044	25932
827.183	25875
827.323	25868
827.462	25860
827.601	25841
827.741	25731
827.88	25696
828.02	25738
828.159	25670
828.298	25742
828.437	25902
828.577	25944
828.716	25925
828.855	25799
828.994	25438
829.134	25499
829.273	25540
829.412	25483
829.551	25449
829.69	25457
829.829	25567
829.968	25582
830.107	25639
830.246	25578
830.385	25556
830.524	25441
830.663	25270
830.802	25206
830.941	25198
831.08	25080
831.219	25244
831.357	25080
831.496	25544
831.635	25057
831.774	25103
831.913	24977
832.051	24958
832.19	24916
832.329	24840
832.467	24787
832.606	24802
832.744	24814
832.883	24821
833.022	24844
833.16	24783
833.299	24829
833.437	24833
833.576	24901
833.714	24795
833.852	24715
833.991	24848
834.129	25019
834.267	24958
834.406	24954
834.544	24939
834.682	24795
834.821	24848
834.959	25008
835.097	24620
835.235	24829
835.373	24760
835.511	24711
835.65	24741
835.788	24745
835.926	24467
836.064	24479
836.202	24456
836.34	24707
836.478	24829
836.615	24570
836.753	24532
836.891	24658
837.029	24692
837.167	24677
837.305	24441
837.443	24620
837.58	24532
837.718	24589
837.856	24521
837.993	24517
838.131	24471
838.269	24372
838.406	24509
838.544	24334
838.681	24064
838.819	24239
838.956	23977
839.094	24015
839.231	24087
839.369	24129
839.506	24254
839.643	24224
839.781	23969
839.918	23756
840.055	24011
840.193	23897
840.33	23969
840.467	23916
840.604	23977
840.742	24224
840.879	23729
841.016	23950
841.153	23748
841.29	23916
841.427	23824
841.564	23908
841.701	23885
841.838	23878
841.975	23752
842.112	23707
842.249	23843
842.385	23558
842.522	23885
842.659	23767
842.796	23604
842.933	23589
843.069	23467
843.206	23623
843.343	23657
843.479	23577
843.616	23615
843.752	23493
843.889	23516
844.025	23589
844.162	23318
844.298	23455
844.435	23379
844.571	23277
844.708	23448
844.844	23592
844.98	23551
845.117	23501
845.253	23307
845.389	23204
845.525	23239
845.661	23239
845.798	23284
845.934	23197
846.07	23109
846.206	23170
846.342	23360
846.478	23174
846.614	22930
846.75	22835
846.886	22900
847.022	22889
847.158	22892
847.294	23025
847.429	22976
847.565	22809
847.701	23159
847.837	22622
847.972	22596
848.108	22618
848.244	22725
848.379	22451
848.515	22493
848.65	22508
848.786	22436
848.921	22371
849.057	22637
849.192	22546
849.328	22588
849.463	22516
849.598	22306
849.734	22287
849.869	22352
850.004	22230
850.14	22360
850.275	22337
850.41	22097
850.545	22063
850.68	22162
850.815	22204
850.95	22154
851.085	22413
851.22	22360
851.355	22181
851.49	22188
851.625	22234
851.76	22166
851.895	22036
852.03	22143
852.165	22055
852.299	22166
852.434	22276
852.569	22314
852.703	22261
852.838	22261
852.973	22379
853.107	22230
853.242	22105
853.376	22120
853.511	21987
853.645	22048
853.78	22261
853.914	21915
854.048	22074
854.183	21941
854.317	21979
854.451	22291
854.585	22044
854.72	22036
854.854	22112
854.988	21895
855.122	22063
855.256	21903
855.39	21960
855.524	22116
855.658	22207
855.792	22135
855.926	22013
856.06	21968
856.194	22128
856.327	21968
856.461	21918
856.595	21983
856.729	21953
856.862	22173
856.996	22036
857.13	22196
857.263	22219
857.397	22128
857.53	22139
857.664	22090
857.797	22135
857.931	22154
858.064	22029
858.197	22162
858.331	22010
858.464	21975
858.597	21861
858.731	22025
858.864	21979
858.997	21953
859.13	22044
859.263	22032
859.396	22192
859.529	22040
859.662	22017
859.795	21911
859.928	22162
860.061	22280
860.194	22265
860.327	22124
860.46	22090
860.592	22192
860.725	22200
860.858	22105
860.99	22013
861.123	22040
861.256	21945
861.388	22116
861.521	22717
861.653	21915
861.786	21778
861.918	21918
862.05	21918
862.183	21945
862.315	21907
862.447	22093
862.58	22002
862.712	21797
862.844	21648
862.976	21892
863.108	21728
863.24	22131
863.372	21698
863.504	21679
863.636	21785
863.768	21762
863.9	21789
864.032	21743
864.164	21709
864.296	21652
864.428	21827
864.559	21732
864.691	21759
864.823	21724
864.954	21675
865.086	21694
865.217	21614
865.349	21599
865.48	21591
865.612	21511
865.743	21766
865.875	21629
866.006	21622
866.137	21690
866.269	21583
866.4	21618
866.531	21469
866.662	21599
866.793	21545
866.924	21534
867.055	21667
867.186	21572
867.317	21568
867.448	21462
867.579	21507
867.71	21523
867.841	21435
867.972	21576
868.103	21583
868.233	21610
868.364	21542
868.495	21694
868.625	21660
868.756	22017
868.886	21682
869.017	21804
869.147	22025
869.278	21842
869.408	21865
869.539	21831
869.669	21861
869.799	21793
869.929	21979
870.06	21960
870.19	21972
870.32	22090
870.45	22188
870.58	22268
870.71	22188
870.84	22337
870.97	22139
871.1	22242
871.23	22257
871.36	22344
871.489	22341
871.619	22379
871.749	22341
871.879	22443
872.008	22417
872.138	22440
872.267	22348
872.397	22226
872.526	22230
872.656	22120
872.785	22135
872.915	22352
873.044	22459
873.173	22390
873.303	22428
873.432	22436
873.561	22478
873.69	22413
873.819	22527
873.948	22455
874.077	22531
874.206	22375
874.335	22390
874.464	22557
874.593	22755
874.722	22436
874.851	22721
874.979	22615
875.108	22675
875.237	22611
875.365	22440
875.494	22649
875.623	22668
875.751	22611
875.88	22721
876.008	22683
876.136	22713
876.265	23143
876.393	23064
876.521	23170
876.65	23086
876.778	22968
876.906	23022
877.034	22892
877.162	22831
877.29	23006
877.418	22911
877.546	23003
877.674	22919
877.802	23086
877.93	22984
878.058	22999
878.185	22934
878.313	22991
878.441	22873
878.568	22835
878.696	22915
878.824	23086
878.951	22980
879.079	23147
879.206	23284
879.333	23155
879.461	23056
879.588	23094
879.715	23124
879.842	23246
879.97	23079
880.097	22797
880.224	22790
880.351	22892
880.478	22774
880.605	22831
880.732	22911
880.859	22999
880.986	22797
881.112	22793
881.239	22668
881.366	22436
881.493	22516
881.619	22341
881.746	22478
881.872	22265
881.999	22291
882.125	22207
882.252	22455
882.378	22238
882.505	22303
882.631	22173
882.757	22025
882.883	22017
883.01	22109
883.136	22074
883.262	21911
883.388	21918
883.514	22082
883.64	22200
883.766	21907
883.892	21842
884.018	21816
884.143	21953
884.269	22078
884.395	21701
884.52	21656
884.646	21660
884.772	21667
884.897	21583
885.023	21663
885.148	21808
885.274	21804
885.399	21694
885.524	21633
885.65	21694
885.775	21675
885.9	21656
886.025	21766
886.15	21804
886.275	21599
886.4	21564
886.525	21633
886.65	21644
886.775	21424
886.9	21873
887.025	21823
887.149	21667
887.274	21435
887.399	21477
887.523	21431
887.648	21332
887.773	21393
887.897	21504
888.021	21466
888.146	21367
888.27	21466
888.395	21625
888.519	21378
888.643	21454
888.767	21591
888.891	21401
889.015	21252
889.139	21173
889.263	21222
889.387	21374
889.511	21405
889.635	21272
889.759	21135
889.883	21154
890.006	21287
890.13	21374
890.254	21207
890.377	21241
890.501	20979
890.624	20769
890.748	21043
890.871	20952
890.995	20853
891.118	20750
891.241	20933
891.364	20743
891.488	20830
891.611	20861
891.734	20830
891.857	20807
891.98	20853
892.103	20777
892.226	20853
892.349	20754
892.471	20606
892.594	20701
892.717	20682
892.839	20781
892.962	20636
893.085	20849
893.207	20754
893.33	20541
893.452	20609
893.575	20674
893.697	20625
893.819	20868
893.941	20933
894.064	20792
894.186	20651
894.308	20640
894.43	20731
894.552	20910
894.674	20765
894.796	20613
894.918	20651
895.04	20731
895.161	20632
895.283	20788
895.405	20613
895.526	20708
895.648	20686
895.769	20743
895.891	20739
896.012	20689
896.134	20678
896.255	20682
896.376	20655
896.498	20583
896.619	20899
896.74	20632
896.861	20739
896.982	21047
897.103	21222
897.224	21093
897.345	20895
897.466	20868
897.587	20785
897.708	20918
897.828	20906
897.949	20876
898.07	20777
898.19	20838
898.311	21036
898.431	20845
898.552	21039
898.672	21001
898.792	20929
898.913	20918
899.033	20682
899.153	20724
899.273	20602
899.393	20689
899.513	20697
899.633	20636
899.753	20621
899.873	20571
899.993	20724
900.113	20686
900.232	20644
900.352	20686
900.472	20522
900.591	20461
900.711	20419
900.83	20271
900.95	20499
901.069	20484
901.189	20172
901.308	20062
901.427	19974
901.546	20054
901.665	19928
901.784	19989
901.904	19947
902.023	19746
902.141	19655
902.26	19601
902.379	19514
902.498	19487
902.617	19540
902.735	19445
902.854	19506
902.973	19373
903.091	19213
903.21	19175
903.328	19103
903.446	19023
903.565	18856
903.683	18886
903.801	18943
903.919	18878
904.038	18989
904.156	18639
904.274	18833
904.392	18715
904.51	18692
904.627	18665
904.745	18722
904.863	18692
904.981	18544
905.098	18418
905.216	18330
905.334	18372
905.451	18372
905.569	18338
905.686	18330
905.803	18414
905.921	18136
906.038	18270
906.155	18148
906.272	18163
906.389	18003
906.506	17927
906.623	17874
906.74	17878
906.857	17741
906.974	17824
907.091	18007
907.208	18068
907.324	17882
907.441	17783
907.557	17634
907.674	17646
907.79	17493
907.907	17520
908.023	17718
908.139	17649
908.256	17532
908.372	17501
908.488	17520
908.604	17269
908.72	17269
908.836	17402
908.952	17223
909.068	17311
909.184	17444
909.3	17315
909.415	17307
909.531	17315
909.647	17003
909.762	17060
909.878	16938
909.993	17094
910.108	17064
910.224	16991
910.339	17079
910.454	16927
910.57	16873
910.685	16824
910.8	17124
910.915	16995
911.03	16793
911.145	16793
911.259	16550
911.374	16630
911.489	16618
911.604	16443
911.718	16280
911.833	16306
911.947	16234
912.062	16272
912.176	16325
912.291	16405
912.405	16432
912.519	16630
912.633	16531
912.748	16375
912.862	16333
912.976	16010
913.09	16090
913.204	16192
913.318	16223
913.431	16265
913.545	16177
913.659	16261
913.772	16150
913.886	15968
914	15816
914.113	15953
914.226	16101
914.34	16013
914.453	15793
914.566	16006
914.68	15728
914.793	15800
914.906	15568
915.019	15511
915.132	15576
915.245	15572
915.358	15534
915.47	15580
915.583	15606
915.696	15561
915.809	15576
915.921	15698
916.034	15519
916.146	15469
916.259	15344
916.371	15568
916.483	15526
916.595	15306
916.708	15469
916.82	15367
916.932	15313
917.044	15351
917.156	15329
917.268	15135
917.38	15260
917.491	15184
917.603	15169
917.715	15188
917.826	15272
917.938	15070
918.049	15017
918.161	15100
918.272	15283
918.384	15138
918.495	15135
918.606	14864
918.717	14880
918.828	14929
918.939	14975
919.05	14887
919.161	14956
919.272	14682
919.383	14731
919.494	14872
919.604	15173
919.715	14857
919.826	14800
919.936	14910
920.047	14979
920.157	14857
920.267	15036
920.378	14830
920.488	14868
920.598	15074
920.708	15169
920.818	14971
920.928	15047
921.038	15169
921.148	15070
921.258	14842
921.368	14758
921.477	14678
921.587	14648
921.697	14427
921.806	14606
921.916	14419
922.025	14446
922.134	14324
922.244	14134
922.353	14355
922.462	14164
922.571	14161
922.68	13993
922.789	13833
922.898	13890
923.007	13795
923.116	13986
923.224	13864
923.333	13875
923.442	13696
923.55	13727
923.659	13738
923.767	13830
923.876	13723
923.984	13807
924.092	13567
924.201	13655
924.309	13624
924.417	13613
924.525	13525
924.633	13502
924.741	14465
924.849	13453
924.956	13506
925.064	13331
925.172	13244
925.279	13217
925.387	13270
925.494	13308
925.602	13430
925.709	13343
925.816	13213
925.924	13183
926.031	13339
926.138	13274
926.245	13301
926.352	13187
926.459	13282
926.566	13282
926.673	13160
926.779	13023
926.886	13031
926.993	12905
927.099	12905
927.206	12776
927.312	12738
927.419	12886
927.525	12856
927.631	12882
927.737	12707
927.843	12654
927.95	12642
928.056	12715
928.162	12658
928.267	12749
928.373	13221
928.479	12730
928.585	12525
928.69	12692
928.796	12673
928.901	12547
929.007	12365
929.112	12540
929.218	12494
929.323	12445
929.428	12433
929.533	12494
929.638	12258
929.743	12372
929.848	12441
929.953	12281
930.058	12232
930.163	12125
930.267	12019
930.372	12167
930.477	12083
930.581	12262
930.685	12155
930.79	11901
930.894	12007
930.998	11927
931.103	12019
931.207	11668
931.311	11638
931.415	11509
931.519	11273
931.623	11284
