Data from test_V78500241_3009.txt Node
Date: Fri Mar 25 16:02:38 CST 2022
User: usil
Spectrometer: V785-0024
Trigger mode: 0
Integration Time (sec): 4.000000E-1
Scans to average: 1
Nonlinearity correction enabled: false
Boxcar width: 0
Storing dark spectrum: false
XAxis mode: Wavelengths
Number of Pixels in Spectrum: 1024
>>>>>Begin Spectral Data<<<<<
801.071	28679
801.214	28713
801.356	28421
801.499	28363
801.641	28246
801.783	28371
801.926	28337
802.068	28322
802.211	28204
802.353	28139
802.496	27994
802.638	27914
802.78	27937
802.923	27926
803.065	27888
803.208	27892
803.35	28082
803.492	28090
803.635	28352
803.777	28154
803.919	28139
804.061	28489
804.204	28192
804.346	28169
804.488	28162
804.63	28329
804.773	28177
804.915	28249
805.057	28276
805.199	28185
805.341	28181
805.483	28337
805.626	28246
805.768	28382
805.91	28325
806.052	28325
806.194	28230
806.336	28428
806.478	28417
806.62	28348
806.762	28584
806.904	28580
807.046	28915
807.188	28729
807.33	28809
807.472	28782
807.614	28755
807.756	28877
807.898	28710
808.04	28687
808.182	28668
808.324	28717
808.465	28790
808.607	28862
808.749	28995
808.891	29022
809.033	29231
809.174	29109
809.316	29322
809.458	29071
809.6	29147
809.741	29235
809.883	29269
810.025	29269
810.166	29349
810.308	29353
810.45	29239
810.591	29212
810.733	29067
810.875	29022
811.016	28972
811.158	28888
811.299	29143
811.441	29162
811.582	29307
811.724	29109
811.865	29048
812.007	29094
812.148	29124
812.29	29105
812.431	29181
812.573	29410
812.714	29623
812.855	29608
812.997	29760
813.138	29878
813.279	29611
813.421	29589
813.562	29490
813.703	29356
813.845	29315
813.986	29044
814.127	28896
814.268	28713
814.41	28847
814.551	28702
814.692	28999
814.833	28713
814.974	28721
815.115	28835
815.256	28641
815.397	28675
815.539	28523
815.68	28603
815.821	28478
815.962	28653
816.103	28554
816.244	28443
816.385	28375
816.526	28440
816.666	28162
816.807	28013
816.948	28196
817.089	28276
817.23	28097
817.371	28166
817.512	28036
817.653	28147
817.793	28086
817.934	28044
818.075	28055
818.216	28116
818.356	27926
818.497	27937
818.638	27793
818.778	27953
818.919	27857
819.06	27937
819.2	27876
819.341	28093
819.481	28097
819.622	28291
819.762	28451
819.903	28348
820.043	28261
820.184	28188
820.324	28272
820.465	28200
820.605	28196
820.746	28188
820.886	28188
821.026	28078
821.167	28135
821.307	28341
821.447	28207
821.588	28063
821.728	27804
821.868	27698
822.008	27641
822.149	27633
822.289	27709
822.429	27260
822.569	27310
822.709	27256
822.849	27116
822.99	27142
823.13	27032
823.27	27165
823.41	26956
823.55	26845
823.69	27058
823.83	26998
823.97	26895
824.11	26655
824.25	26762
824.389	26640
824.529	26864
824.669	26735
824.809	26895
824.949	26849
825.089	26796
825.228	26663
825.368	26613
825.508	26568
825.648	26598
825.787	26686
825.927	26724
826.067	26579
826.206	26640
826.346	26693
826.485	26648
826.625	26743
826.765	26739
826.904	26648
827.044	26431
827.183	26434
827.323	26415
827.462	26336
827.601	26237
827.741	26465
827.88	26362
828.02	26088
828.159	26286
828.298	26221
828.437	26355
828.577	26343
828.716	26522
828.855	26206
828.994	26035
829.134	26107
829.273	26107
829.412	25921
829.551	25875
829.69	26191
829.829	25997
829.968	26069
830.107	26111
830.246	26043
830.385	25917
830.524	26008
830.663	25898
830.802	25791
830.941	25677
831.08	25537
831.219	25700
831.357	25734
831.496	25799
831.635	25674
831.774	25468
831.913	25438
832.051	25335
832.19	25350
832.329	25415
832.467	25362
832.606	25175
832.744	25316
832.883	25244
833.022	25419
833.16	25343
833.299	25453
833.437	25289
833.576	25282
833.714	25354
833.852	25381
833.991	25438
834.129	25476
834.267	25426
834.406	25457
834.544	25362
834.682	25384
834.821	25495
834.959	25518
835.097	25282
835.235	25365
835.373	25411
835.511	25293
835.65	25282
835.788	25228
835.926	25110
836.064	24943
836.202	25095
836.34	25179
836.478	25137
836.615	25179
836.753	25145
836.891	25213
837.029	25236
837.167	25072
837.305	25141
837.443	24943
837.58	24943
837.718	25012
837.856	25000
837.993	25050
838.131	25019
838.269	24890
838.406	24951
838.544	24757
838.681	24692
838.819	24658
838.956	24494
839.094	24369
839.231	24585
839.369	24620
839.506	24897
839.643	24658
839.781	24433
839.918	24372
840.055	24547
840.193	24494
840.33	24471
840.467	24342
840.604	24467
840.742	24711
840.879	24300
841.016	24304
841.153	24224
841.29	24525
841.427	24224
841.564	24407
841.701	24467
841.838	24277
841.975	24201
842.112	24304
842.249	24281
842.385	24053
842.522	24475
842.659	24216
842.796	24136
842.933	24197
843.069	24041
843.206	24106
843.343	24213
843.479	24152
843.616	24072
843.752	23961
843.889	23882
844.025	24064
844.162	23832
844.298	24152
844.435	23927
844.571	23851
844.708	23916
844.844	24068
844.98	24007
845.117	24007
845.253	23942
845.389	23802
845.525	23764
845.661	23745
845.798	23707
845.934	23733
846.07	23672
846.206	23623
846.342	23687
846.478	23505
846.614	23505
846.75	23414
846.886	23376
847.022	23436
847.158	23402
847.294	23273
847.429	23539
847.565	23322
847.701	23623
847.837	23060
847.972	23022
848.108	23162
848.244	23178
848.379	23052
848.515	23048
848.65	23025
848.786	22980
848.921	23064
849.057	23094
849.192	23003
849.328	23170
849.463	22877
849.598	22930
849.734	22896
849.869	22812
850.004	22763
850.14	22721
850.275	22687
850.41	22675
850.545	22763
850.68	22675
850.815	22812
850.95	22843
851.085	22873
851.22	22850
851.355	22831
851.49	22721
851.625	22721
851.76	22691
851.895	22683
852.03	22645
852.165	22805
852.299	22786
852.434	22854
852.569	22797
852.703	22752
852.838	22763
852.973	22820
853.107	22885
853.242	22687
853.376	22596
853.511	22497
853.645	22481
853.78	22687
853.914	22569
854.048	22436
854.183	22626
854.317	22531
854.451	22607
854.585	22599
854.72	22592
854.854	22710
854.988	22485
855.122	22656
855.256	22375
855.39	22523
855.524	22588
855.658	22584
855.792	22611
855.926	22611
856.06	22607
856.194	22542
856.327	22607
856.461	22542
856.595	22497
856.729	22447
856.862	22584
856.996	22588
857.13	22561
857.263	22725
857.397	22672
857.53	22615
857.664	22588
857.797	22565
857.931	22527
858.064	22538
858.197	22554
858.331	22493
858.464	22489
858.597	22440
858.731	22466
858.864	22584
858.997	22413
859.13	22554
859.263	22474
859.396	22615
859.529	22489
859.662	22478
859.795	22527
859.928	22588
860.061	22733
860.194	22744
860.327	22569
860.46	22596
860.592	22656
860.725	22683
860.858	22634
860.99	22588
861.123	22443
861.256	22447
861.388	22569
861.521	23311
861.653	22371
861.786	22367
861.918	22375
862.05	22272
862.183	22577
862.315	22474
862.447	22474
862.58	22413
862.712	22325
862.844	22097
862.976	22360
863.108	22219
863.24	22577
863.372	22230
863.504	22272
863.636	22246
863.768	22333
863.9	22284
864.032	22188
864.164	22223
864.296	22318
864.428	22360
864.559	22379
864.691	22303
864.823	22215
864.954	22257
865.086	22192
865.217	22219
865.349	22082
865.48	21998
865.612	22124
865.743	22200
865.875	22173
866.006	22112
866.137	22219
866.269	22101
866.4	22166
866.531	22055
866.662	22040
866.793	21918
866.924	22048
867.055	22173
867.186	22006
867.317	22082
867.448	21979
867.579	22101
867.71	21941
867.841	22002
867.972	22116
868.103	22036
868.233	22196
868.364	22032
868.495	22223
868.625	22242
868.756	22527
868.886	22246
869.017	22284
869.147	22409
869.278	22493
869.408	22405
869.539	22181
869.669	22386
869.799	22421
869.929	22356
870.06	22363
870.19	22656
870.32	22554
870.45	22698
870.58	22603
870.71	22725
870.84	22679
870.97	22679
871.1	22622
871.23	22767
871.36	22923
871.489	22839
871.619	22934
871.749	22866
871.879	22797
872.008	22999
872.138	22968
872.267	22900
872.397	22797
872.526	22816
872.656	22771
872.785	22782
872.915	22930
873.044	22946
873.173	22828
873.303	23006
873.432	22953
873.561	22911
873.69	22999
873.819	22984
873.948	22908
874.077	22885
874.206	23037
874.335	22976
874.464	23006
874.593	23109
874.722	23083
874.851	23178
874.979	23197
875.108	23250
875.237	23060
875.365	23052
875.494	23102
875.623	23239
875.751	23174
875.88	23159
876.008	23197
876.136	23372
876.265	23528
876.393	23699
876.521	23573
876.65	23596
876.778	23623
876.906	23337
877.034	23562
877.162	23482
877.29	23558
877.418	23596
877.546	23463
877.674	23531
877.802	23592
877.93	23406
878.058	23372
878.185	23528
878.313	23379
878.441	23516
878.568	23360
878.696	23444
878.824	23528
878.951	23604
879.079	23741
879.206	23805
879.333	23512
879.461	23535
879.588	23570
879.715	23649
879.842	23851
879.97	23627
880.097	23440
880.224	23379
880.351	23383
880.478	23299
880.605	23311
880.732	23425
880.859	23478
880.986	23334
881.112	23315
881.239	23143
881.366	23056
881.493	22999
881.619	22957
881.746	22980
881.872	22957
881.999	22927
882.125	22942
882.252	22968
882.378	22816
882.505	22934
882.631	22793
882.757	22641
882.883	22733
883.01	22538
883.136	22508
883.262	22470
883.388	22432
883.514	22672
883.64	22634
883.766	22451
883.892	22371
884.018	22455
884.143	22523
884.269	22615
884.395	22306
884.52	22128
884.646	22188
884.772	22196
884.897	22093
885.023	22246
885.148	22291
885.274	22299
885.399	22310
885.524	22166
885.65	22242
885.775	22287
885.9	22112
886.025	22181
886.15	22303
886.275	22219
886.4	22090
886.525	22150
886.65	22181
886.775	22097
886.9	22242
887.025	22314
887.149	22070
887.274	21960
887.399	22010
887.523	21991
887.648	21888
887.773	21869
887.897	22040
888.021	22059
888.146	21827
888.27	22120
888.395	21998
888.519	21922
888.643	21941
888.767	22017
888.891	21922
889.015	21755
889.139	21770
889.263	21793
889.387	21918
889.511	21915
889.635	21899
889.759	21781
889.883	21682
890.006	21762
890.13	21739
890.254	21682
890.377	21720
890.501	21485
890.624	21477
890.748	21485
890.871	21469
890.995	21279
891.118	21211
891.241	21268
891.364	21287
891.488	21424
891.611	21424
891.734	21127
891.857	21329
891.98	21340
892.103	21306
892.226	21298
892.349	21188
892.471	21218
892.594	21283
892.717	21157
892.839	21249
892.962	21180
893.085	21313
893.207	21157
893.33	21028
893.452	21127
893.575	21287
893.697	21157
893.819	21504
893.941	21378
894.064	21321
894.186	21077
894.308	21211
894.43	21241
894.552	21252
894.674	21211
894.796	21135
894.918	21127
895.04	21081
895.161	21195
895.283	21173
895.405	20986
895.526	21176
895.648	21233
895.769	21195
895.891	21188
896.012	21329
896.134	21245
896.255	21077
896.376	21024
896.498	21184
896.619	21188
896.74	21142
896.861	21245
896.982	21401
897.103	21663
897.224	21374
897.345	21256
897.466	21272
897.587	21348
897.708	21462
897.828	21424
897.949	21313
898.07	21131
898.19	21218
898.311	21420
898.431	21287
898.552	21249
898.672	21439
898.792	21389
898.913	21450
899.033	21348
899.153	21272
899.273	21123
899.393	21100
899.513	21131
899.633	21028
899.753	21112
899.873	21024
899.993	21116
900.113	20960
900.232	21036
900.352	21039
900.472	20857
900.591	20788
900.711	20887
900.83	20735
900.95	20887
901.069	20895
901.189	20724
901.308	20461
901.427	20457
901.546	20469
901.665	20434
901.784	20450
901.904	20339
902.023	20244
902.141	19909
902.26	19909
902.379	20088
902.498	19887
902.617	19928
902.735	19951
902.854	19917
902.973	19731
903.091	19647
903.21	19518
903.328	19662
903.446	19586
903.565	19419
903.683	19441
903.801	19346
903.919	19297
904.038	19392
904.156	19137
904.274	19213
904.392	19148
904.51	19080
904.627	19091
904.745	19206
904.863	19145
904.981	19034
905.098	18848
905.216	18859
905.334	18833
905.451	18897
905.569	18772
905.686	18867
905.803	18665
905.921	18642
906.038	18608
906.155	18639
906.272	18418
906.389	18464
906.506	18365
906.623	18330
906.74	18262
906.857	18338
906.974	18167
907.091	18391
907.208	18426
907.324	18342
907.441	18266
907.557	18098
907.674	18064
907.79	17904
907.907	18140
908.023	18019
908.139	18102
908.256	17954
908.372	17954
908.488	17942
908.604	17779
908.72	17665
908.836	17722
908.952	17794
909.068	17756
909.184	17832
909.3	17714
909.415	17828
909.531	17756
909.647	17528
909.762	17478
909.878	17452
909.993	17349
910.108	17303
910.224	17410
910.339	17318
910.454	17322
910.57	17280
910.685	17189
910.8	17482
910.915	17318
911.03	17330
911.145	17037
911.259	16957
911.374	17006
911.489	17045
911.604	16961
911.718	16847
911.833	16786
911.947	16649
912.062	16561
912.176	16664
912.291	16881
912.405	16771
912.519	17018
912.633	16972
912.748	16824
912.862	16786
912.976	16672
913.09	16535
913.204	16554
913.318	16599
913.431	16603
913.545	16653
913.659	16626
913.772	16535
913.886	16375
914	16325
914.113	16440
914.226	16432
914.34	16447
914.453	16223
914.566	16390
914.68	16287
914.793	16143
914.906	16067
915.019	15960
915.132	15873
915.245	15888
915.358	15960
915.47	15918
915.583	15915
915.696	15987
915.809	16086
915.921	16017
916.034	15964
916.146	15793
916.259	15781
916.371	15926
916.483	15876
916.595	15759
916.708	15736
916.82	15785
916.932	15682
917.044	15709
917.156	15633
917.268	15553
917.38	15614
917.491	15584
917.603	15629
917.715	15637
917.826	15568
917.938	15538
918.049	15359
918.161	15500
918.272	15633
918.384	15515
918.495	15507
918.606	15317
918.717	15165
918.828	15401
918.939	15313
919.05	15104
919.161	15233
919.272	15138
919.383	15157
919.494	15317
919.604	15511
919.715	15340
919.826	15272
919.936	15294
920.047	15302
920.157	15367
920.267	15412
920.378	15268
920.488	15245
920.598	15336
920.708	15466
920.818	15439
920.928	15405
921.038	15538
921.148	15435
921.258	15211
921.368	15097
921.477	15001
921.587	14944
921.697	14815
921.806	15024
921.916	14716
922.025	14606
922.134	14754
922.244	14606
922.353	14720
922.462	14533
922.571	14328
922.68	14263
922.789	14229
922.898	14355
923.007	14187
923.116	14275
923.224	14218
923.333	14115
923.442	14111
923.55	14069
923.659	14024
923.767	14096
923.876	13982
923.984	14088
924.092	13993
924.201	13944
924.309	14012
924.417	13913
924.525	13925
924.633	13898
924.741	14689
924.849	13715
924.956	13856
925.064	13750
925.172	13537
925.279	13639
925.387	13681
925.494	13670
925.602	13780
925.709	13670
925.816	13502
925.924	13563
926.031	13757
926.138	13571
926.245	13624
926.352	13468
926.459	13616
926.566	13605
926.673	13419
926.779	13491
926.886	13331
926.993	13187
927.099	13266
927.206	13198
927.312	13046
927.419	13190
927.525	13129
927.631	13202
927.737	13015
927.843	13004
927.95	12863
928.056	12939
928.162	12989
928.267	12867
928.373	13674
928.479	13031
928.585	12726
928.69	12878
928.796	13015
928.901	12779
929.007	12688
929.112	12806
929.218	12715
929.323	12593
929.428	12692
929.533	12852
929.638	12582
929.743	12635
929.848	12631
929.953	12612
930.058	12494
930.163	12346
930.267	12338
930.372	12452
930.477	12304
930.581	12623
930.685	12384
930.79	12254
930.894	12308
930.998	12342
931.103	12311
931.207	12003
931.311	11866
931.415	11809
931.519	11649
931.623	11585
