Data from test_V78500241_2072.txt Node
Date: Fri Mar 25 15:56:09 CST 2022
User: usil
Spectrometer: V785-0024
Trigger mode: 0
Integration Time (sec): 4.000000E-1
Scans to average: 1
Nonlinearity correction enabled: false
Boxcar width: 0
Storing dark spectrum: false
XAxis mode: Wavelengths
Number of Pixels in Spectrum: 1024
>>>>>Begin Spectral Data<<<<<
801.071	28930
801.214	28892
801.356	28778
801.499	28725
801.641	28493
801.783	28500
801.926	28557
802.068	28554
802.211	28470
802.353	28500
802.496	28386
802.638	28185
802.78	28211
802.923	28230
803.065	28162
803.208	28173
803.35	28238
803.492	28242
803.635	28443
803.777	28455
803.919	28478
804.061	28930
804.204	28493
804.346	28440
804.488	28428
804.63	28481
804.773	28337
804.915	28554
805.057	28542
805.199	28394
805.341	28660
805.483	28805
805.626	28573
805.768	28592
805.91	28588
806.052	28653
806.194	28516
806.336	28820
806.478	28702
806.62	28675
806.762	28904
806.904	28930
807.046	29216
807.188	28991
807.33	29037
807.472	29174
807.614	29086
807.756	29006
807.898	29098
808.04	28949
808.182	28927
808.324	29098
808.465	29006
808.607	29083
808.749	29284
808.891	29455
809.033	29528
809.174	29330
809.316	29258
809.458	29307
809.6	29269
809.741	29486
809.883	29524
810.025	29638
810.166	29752
810.308	29722
810.45	29665
810.591	29684
810.733	29391
810.875	29261
811.016	29315
811.158	29364
811.299	29448
811.441	29535
811.582	29543
811.724	29368
811.865	29379
812.007	29136
812.148	29387
812.29	29311
812.431	29459
812.573	29748
812.714	29752
812.855	29878
812.997	30064
813.138	29992
813.279	30106
813.421	29840
813.562	29767
813.703	29760
813.845	29676
813.986	29429
814.127	29197
814.268	28999
814.41	29033
814.551	29056
814.692	28995
814.833	29048
814.974	29102
815.115	29010
815.256	28896
815.397	28942
815.539	28972
815.68	28763
815.821	28812
815.962	28892
816.103	28965
816.244	28710
816.385	28752
816.526	28752
816.666	28500
816.807	28287
816.948	28417
817.089	28447
817.23	28485
817.371	28466
817.512	28379
817.653	28272
817.793	28352
817.934	28306
818.075	28405
818.216	28284
818.356	28367
818.497	28204
818.638	28059
818.778	28257
818.919	28207
819.06	28322
819.2	28211
819.341	28379
819.481	28375
819.622	28607
819.762	28687
819.903	28698
820.043	28489
820.184	28660
820.324	28447
820.465	28569
820.605	28622
820.746	28531
820.886	28284
821.026	28478
821.167	28485
821.307	28401
821.447	28352
821.588	28432
821.728	28154
821.868	28181
822.008	27819
822.149	27930
822.289	27774
822.429	27564
822.569	27450
822.709	27534
822.849	27291
822.99	27408
823.13	27367
823.27	27336
823.41	27268
823.55	27047
823.69	27192
823.83	27321
823.97	27116
824.11	26956
824.25	26948
824.389	27074
824.529	27161
824.669	27077
824.809	27184
824.949	27093
825.089	27074
825.228	27028
825.368	26811
825.508	26792
825.648	26849
825.787	26986
825.927	26998
826.067	26880
826.206	26716
826.346	26963
826.485	26902
826.625	26918
826.765	27047
826.904	27001
827.044	26701
827.183	26720
827.323	26678
827.462	26651
827.601	26682
827.741	26564
827.88	26621
828.02	26636
828.159	26533
828.298	26693
828.437	26670
828.577	26549
828.716	26762
828.855	26499
828.994	26362
829.134	26263
829.273	26396
829.412	26237
829.551	26202
829.69	26343
829.829	26286
829.968	26423
830.107	26370
830.246	26267
830.385	26324
830.524	26134
830.663	26248
830.802	26046
830.941	25921
831.08	25955
831.219	26050
831.357	26027
831.496	26084
831.635	25913
831.774	25841
831.913	25712
832.051	25708
832.19	25643
832.329	25693
832.467	25590
832.606	25460
832.744	25582
832.883	25514
833.022	25510
833.16	25533
833.299	25548
833.437	25666
833.576	25719
833.714	25738
833.852	25601
833.991	25776
834.129	25837
834.267	25776
834.406	25597
834.544	25521
834.682	25666
834.821	25685
834.959	25921
835.097	25563
835.235	25719
835.373	25772
835.511	25666
835.65	25537
835.788	25540
835.926	25415
836.064	25304
836.202	25221
836.34	25502
836.478	25571
836.615	25377
836.753	25445
836.891	25582
837.029	25510
837.167	25384
837.305	25354
837.443	25335
837.58	25373
837.718	25324
837.856	25255
837.993	25285
838.131	25449
838.269	25152
838.406	25278
838.544	25107
838.681	24928
838.819	24802
838.956	24806
839.094	24848
839.231	24810
839.369	24916
839.506	25126
839.643	24977
839.781	24707
839.918	24582
840.055	24844
840.193	24783
840.33	24646
840.467	24631
840.604	24631
840.742	24928
840.879	24555
841.016	24639
841.153	24570
841.29	24738
841.427	24627
841.564	24802
841.701	24608
841.838	24620
841.975	24536
842.112	24585
842.249	24475
842.385	24448
842.522	24745
842.659	24528
842.796	24285
842.933	24353
843.069	24289
843.206	24334
843.343	24353
843.479	24486
843.616	24437
843.752	24171
843.889	24262
844.025	24304
844.162	24133
844.298	24235
844.435	24186
844.571	24178
844.708	24197
844.844	24285
844.98	24350
845.117	24338
845.253	24076
845.389	24125
845.525	23950
845.661	24064
845.798	23931
845.934	24079
846.07	23885
846.206	24068
846.342	23969
846.478	23840
846.614	23707
846.75	23505
846.886	23657
847.022	23783
847.158	23657
847.294	23646
847.429	23653
847.565	23642
847.701	23870
847.837	23467
847.972	23235
848.108	23455
848.244	23318
848.379	23185
848.515	23277
848.65	23178
848.786	23296
848.921	23250
849.057	23345
849.192	23471
849.328	23254
849.463	23204
849.598	23212
849.734	23132
849.869	23155
850.004	22991
850.14	22949
850.275	22953
850.41	22889
850.545	22740
850.68	22896
850.815	22949
850.95	22911
851.085	23105
851.22	23064
851.355	23010
851.49	23102
851.625	22900
851.76	22991
851.895	22904
852.03	22965
852.165	23006
852.299	23006
852.434	23140
852.569	23037
852.703	23056
852.838	23109
852.973	23010
853.107	23003
853.242	22908
853.376	22828
853.511	22653
853.645	22733
853.78	22797
853.914	22828
854.048	22831
854.183	22782
854.317	22828
854.451	23003
854.585	22710
854.72	22816
854.854	22869
854.988	22748
855.122	22790
855.256	22740
855.39	22767
855.524	22991
855.658	22930
855.792	22953
855.926	22755
856.06	22847
856.194	22900
856.327	22778
856.461	22767
856.595	22774
856.729	22801
856.862	22748
856.996	22847
857.13	22896
857.263	22847
857.397	22915
857.53	22721
857.664	22805
857.797	22881
857.931	22854
858.064	22831
858.197	22889
858.331	22801
858.464	22679
858.597	22660
858.731	22782
858.864	22725
858.997	22786
859.13	22877
859.263	22729
859.396	22965
859.529	22767
859.662	22706
859.795	22710
859.928	22854
860.061	22816
860.194	22999
860.327	22885
860.46	22831
860.592	22896
860.725	23060
860.858	22946
860.99	22877
861.123	22824
861.256	22759
861.388	22843
861.521	23463
861.653	22634
861.786	22535
861.918	22679
862.05	22611
862.183	22752
862.315	22771
862.447	22763
862.58	22805
862.712	22459
862.844	22497
862.976	22603
863.108	22626
863.24	22873
863.372	22447
863.504	22611
863.636	22409
863.768	22550
863.9	22630
864.032	22322
864.164	22409
864.296	22470
864.428	22687
864.559	22554
864.691	22557
864.823	22436
864.954	22523
865.086	22440
865.217	22386
865.349	22382
865.48	22421
865.612	22436
865.743	22421
865.875	22478
866.006	22310
866.137	22481
866.269	22371
866.4	22394
866.531	22341
866.662	22280
866.793	22303
866.924	22367
867.055	22265
867.186	22360
867.317	22299
867.448	22200
867.579	22303
867.71	22276
867.841	22162
867.972	22242
868.103	22337
868.233	22257
868.364	22226
868.495	22337
868.625	22470
868.756	22656
868.886	22535
869.017	22554
869.147	22656
869.278	22641
869.408	22428
869.539	22542
869.669	22470
869.799	22584
869.929	22626
870.06	22733
870.19	22873
870.32	22839
870.45	22881
870.58	22991
870.71	23113
870.84	23025
870.97	23018
871.1	22824
871.23	23003
871.36	23098
871.489	23090
871.619	23064
871.749	23117
871.879	23136
872.008	23326
872.138	23235
872.267	23102
872.397	23064
872.526	22968
872.656	23010
872.785	22927
872.915	23132
873.044	23261
873.173	23105
873.303	23178
873.432	23147
873.561	23223
873.69	23159
873.819	23094
873.948	23322
874.077	23254
874.206	23083
874.335	23204
874.464	23292
874.593	23414
874.722	23345
874.851	23307
874.979	23368
875.108	23391
875.237	23318
875.365	23193
875.494	23368
875.623	23391
875.751	23353
875.88	23280
876.008	23448
876.136	23512
876.265	23802
876.393	23836
876.521	23866
876.65	23882
876.778	23756
876.906	23737
877.034	23718
877.162	23649
877.29	23630
877.418	23737
877.546	23710
877.674	23642
877.802	23661
877.93	23737
878.058	23813
878.185	23535
878.313	23687
878.441	23501
878.568	23528
878.696	23630
878.824	23657
878.951	23718
879.079	23893
879.206	23954
879.333	23866
879.461	23771
879.588	23786
879.715	23901
879.842	23923
879.97	23817
880.097	23349
880.224	23516
880.351	23570
880.478	23627
880.605	23417
880.732	23490
880.859	23741
880.986	23516
881.112	23528
881.239	23531
881.366	23341
881.493	23109
881.619	23079
881.746	23147
881.872	23060
881.999	23010
882.125	23060
882.252	23208
882.378	23109
882.505	23140
882.631	23018
882.757	22683
882.883	22664
883.01	22736
883.136	22771
883.262	22580
883.388	22516
883.514	22725
883.64	22679
883.766	22710
883.892	22493
884.018	22653
884.143	22702
884.269	22824
884.395	22455
884.52	22375
884.646	22519
884.772	22337
884.897	22284
885.023	22375
885.148	22405
885.274	22394
885.399	22569
885.524	22386
885.65	22436
885.775	22428
885.9	22299
886.025	22508
886.15	22379
886.275	22440
886.4	22386
886.525	22287
886.65	22059
886.775	22363
886.9	22390
887.025	22504
887.149	22219
887.274	22173
887.399	22185
887.523	22120
887.648	21960
887.773	22067
887.897	22230
888.021	22169
888.146	22116
888.27	22173
888.395	22211
888.519	22219
888.643	22147
888.767	22158
888.891	22074
889.015	22002
889.139	21918
889.263	21876
889.387	22021
889.511	22124
889.635	22074
889.759	21785
889.883	21895
890.006	21998
890.13	21922
890.254	21785
890.377	21842
890.501	21747
890.624	21644
890.748	21759
890.871	21515
890.995	21397
891.118	21397
891.241	21507
891.364	21557
891.488	21587
891.611	21473
891.734	21367
891.857	21367
891.98	21481
892.103	21561
892.226	21526
892.349	21412
892.471	21207
892.594	21359
892.717	21389
892.839	21351
892.962	21313
893.085	21428
893.207	21302
893.33	21291
893.452	21233
893.575	21393
893.697	21226
893.819	21538
893.941	21549
894.064	21477
894.186	21264
894.308	21275
894.43	21412
894.552	21431
894.674	21389
894.796	21222
894.918	21302
895.04	21279
895.161	21412
895.283	21317
895.405	21260
895.526	21355
895.648	21401
895.769	21435
895.891	21389
896.012	21405
896.134	21329
896.255	21237
896.376	21313
896.498	21382
896.619	21405
896.74	21367
896.861	21435
896.982	21644
897.103	21694
897.224	21549
897.345	21389
897.466	21424
897.587	21538
897.708	21587
897.828	21523
897.949	21492
898.07	21359
898.19	21420
898.311	21507
898.431	21393
898.552	21507
898.672	21637
898.792	21576
898.913	21603
899.033	21291
899.153	21214
899.273	21214
899.393	21211
899.513	21188
899.633	21340
899.753	21222
899.873	21154
899.993	21325
900.113	21142
900.232	21237
900.352	21077
900.472	21123
900.591	20853
900.711	21047
900.83	20933
900.95	21180
901.069	21119
901.189	20899
901.308	20743
901.427	20499
901.546	20678
901.665	20640
901.784	20667
901.904	20431
902.023	20362
902.141	20142
902.26	20130
902.379	20199
902.498	20100
902.617	20058
902.735	20084
902.854	20027
902.973	19978
903.091	19643
903.21	19681
903.328	19677
903.446	19693
903.565	19628
903.683	19597
903.801	19422
903.919	19464
904.038	19502
904.156	19331
904.274	19278
904.392	19209
904.51	19183
904.627	19244
904.745	19388
904.863	19293
904.981	19088
905.098	19046
905.216	18909
905.334	18985
905.451	18970
905.569	18932
905.686	19027
905.803	19042
905.921	18741
906.038	18837
906.155	18665
906.272	18635
906.389	18722
906.506	18498
906.623	18437
906.74	18475
906.857	18361
906.974	18422
907.091	18536
907.208	18570
907.324	18407
907.441	18403
907.557	18239
907.674	18194
907.79	18117
907.907	18114
908.023	18102
908.139	18213
908.256	18155
908.372	18068
908.488	18068
908.604	17901
908.72	17916
908.836	17965
908.952	17916
909.068	17843
909.184	17927
909.3	17866
909.415	17954
909.531	17942
909.647	17600
909.762	17676
909.878	17604
909.993	17649
910.108	17585
910.224	17581
910.339	17623
910.454	17410
910.57	17334
910.685	17356
910.8	17623
910.915	17425
911.03	17269
911.145	17170
911.259	17223
911.374	17250
911.489	17083
911.604	17094
911.718	16896
911.833	16896
911.947	16820
912.062	16729
912.176	16839
912.291	16828
912.405	16858
912.519	17018
912.633	17006
912.748	16881
912.862	16873
912.976	16725
913.09	16577
913.204	16763
913.318	16630
913.431	16733
913.545	16774
913.659	16683
913.772	16611
913.886	16558
914	16558
914.113	16573
914.226	16558
914.34	16558
914.453	16398
914.566	16462
914.68	16310
914.793	16249
914.906	16139
915.019	16067
915.132	16021
915.245	16017
915.358	16086
915.47	16082
915.583	16036
915.696	16032
915.809	16196
915.921	16207
916.034	15975
916.146	15880
916.259	15953
916.371	16067
916.483	15979
916.595	15831
916.708	15930
916.82	15846
916.932	15789
917.044	15766
917.156	15838
917.268	15663
917.38	15720
917.491	15625
917.603	15641
917.715	15766
917.826	15842
917.938	15572
918.049	15595
918.161	15507
918.272	15774
918.384	15694
918.495	15538
918.606	15526
918.717	15317
918.828	15458
918.939	15530
919.05	15298
919.161	15367
919.272	15184
919.383	15268
919.494	15405
919.604	15526
919.715	15359
919.826	15275
919.936	15260
920.047	15473
920.157	15355
920.267	15549
920.378	15294
920.488	15393
920.598	15568
920.708	15648
920.818	15450
920.928	15477
921.038	15694
921.148	15561
921.258	15245
921.368	15184
921.477	15081
921.587	15097
921.697	15058
921.806	15108
921.916	14956
922.025	14842
922.134	14743
922.244	14739
922.353	14754
922.462	14655
922.571	14499
922.68	14313
922.789	14374
922.898	14415
923.007	14256
923.116	14290
923.224	14328
923.333	14229
923.442	14210
923.55	14126
923.659	14126
923.767	14195
923.876	14100
923.984	14218
924.092	14119
924.201	14073
924.309	14088
924.417	14081
924.525	14062
924.633	13974
924.741	14872
924.849	13856
924.956	13909
925.064	13826
925.172	13666
925.279	13696
925.387	13700
925.494	13658
925.602	13887
925.709	13727
925.816	13670
925.924	13643
926.031	13757
926.138	13624
926.245	13753
926.352	13483
926.459	13628
926.566	13674
926.673	13575
926.779	13480
926.886	13548
926.993	13285
927.099	13236
927.206	13293
927.312	13259
927.419	13259
927.525	13259
927.631	13187
927.737	13168
927.843	13084
927.95	12989
928.056	12985
928.162	13053
928.267	13034
928.373	13753
928.479	13118
928.585	12932
928.69	13000
928.796	13004
928.901	12943
929.007	12840
929.112	12890
929.218	12928
929.323	12802
929.428	12726
929.533	12871
929.638	12677
929.743	12673
929.848	12798
929.953	12734
930.058	12642
930.163	12399
930.267	12426
930.372	12604
930.477	12391
930.581	12677
930.685	12509
930.79	12315
930.894	12296
930.998	12281
931.103	12437
931.207	12030
931.311	12007
931.415	11901
931.519	11627
931.623	11577
