Data from test_V78500241_2573.txt Node
Date: Fri Mar 25 15:59:37 CST 2022
User: usil
Spectrometer: V785-0024
Trigger mode: 0
Integration Time (sec): 4.000000E-1
Scans to average: 1
Nonlinearity correction enabled: false
Boxcar width: 0
Storing dark spectrum: false
XAxis mode: Wavelengths
Number of Pixels in Spectrum: 1024
>>>>>Begin Spectral Data<<<<<
801.071	28900
801.214	28991
801.356	28641
801.499	28519
801.641	28428
801.783	28371
801.926	28546
802.068	28367
802.211	28363
802.353	28314
802.496	28261
802.638	28234
802.78	28181
802.923	28086
803.065	28143
803.208	28154
803.35	28177
803.492	28268
803.635	28421
803.777	28322
803.919	28325
804.061	28664
804.204	28565
804.346	28367
804.488	28249
804.63	28379
804.773	28375
804.915	28459
805.057	28512
805.199	28451
805.341	28459
805.483	28588
805.626	28497
805.768	28375
805.91	28660
806.052	28500
806.194	28519
806.336	28736
806.478	28504
806.62	28550
806.762	28687
806.904	28835
807.046	29113
807.188	29147
807.33	28946
807.472	29174
807.614	29117
807.756	28930
807.898	28953
808.04	28923
808.182	28839
808.324	28896
808.465	28778
808.607	29220
808.749	29269
808.891	29372
809.033	29505
809.174	29452
809.316	29349
809.458	29440
809.6	29349
809.741	29467
809.883	29547
810.025	29627
810.166	29573
810.308	29596
810.45	29417
810.591	29471
810.733	29273
810.875	29379
811.016	29326
811.158	29132
811.299	29299
811.441	29459
811.582	29383
811.724	29311
811.865	29162
812.007	29181
812.148	29356
812.29	29368
812.431	29539
812.573	29554
812.714	29680
812.855	29920
812.997	29836
813.138	29999
813.279	29996
813.421	29710
813.562	29714
813.703	29619
813.845	29623
813.986	29223
814.127	29105
814.268	29041
814.41	28968
814.551	28923
814.692	29155
814.833	28965
814.974	28911
815.115	28919
815.256	29022
815.397	28942
815.539	28934
815.68	28881
815.821	28656
815.962	28790
816.103	28801
816.244	28630
816.385	28565
816.526	28428
816.666	28390
816.807	28268
816.948	28363
817.089	28337
817.23	28344
817.371	28352
817.512	28253
817.653	28436
817.793	28318
817.934	28211
818.075	28401
818.216	28280
818.356	28257
818.497	28371
818.638	28078
818.778	28051
818.919	28303
819.06	28090
819.2	28158
819.341	28341
819.481	28329
819.622	28424
819.762	28763
819.903	28550
820.043	28485
820.184	28542
820.324	28478
820.465	28569
820.605	28493
820.746	28382
820.886	28086
821.026	28440
821.167	28303
821.307	28519
821.447	28432
821.588	28314
821.728	28109
821.868	28006
822.008	27884
822.149	27766
822.289	27892
822.429	27504
822.569	27408
822.709	27492
822.849	27310
822.99	27237
823.13	27157
823.27	27317
823.41	27211
823.55	27108
823.69	27055
823.83	27036
823.97	26948
824.11	26921
824.25	27039
824.389	26979
824.529	26902
824.669	26963
824.809	27001
824.949	27039
825.089	27070
825.228	27017
825.368	26857
825.508	26826
825.648	26819
825.787	26807
825.927	26925
826.067	26937
826.206	26796
826.346	26998
826.485	26902
826.625	26895
826.765	26906
826.904	26868
827.044	26514
827.183	26632
827.323	26537
827.462	26514
827.601	26651
827.741	26571
827.88	26693
828.02	26461
828.159	26579
828.298	26476
828.437	26651
828.577	26571
828.716	26476
828.855	26404
828.994	26324
829.134	26259
829.273	26461
829.412	26195
829.551	26244
829.69	26240
829.829	26324
829.968	26275
830.107	26362
830.246	26206
830.385	26229
830.524	26164
830.663	26081
830.802	25898
830.941	25761
831.08	25742
831.219	25875
831.357	26012
831.496	26103
831.635	25902
831.774	25841
831.913	25879
832.051	25734
832.19	25655
832.329	25662
832.467	25628
832.606	25578
832.744	25441
832.883	25533
833.022	25476
833.16	25578
833.299	25540
833.437	25453
833.576	25715
833.714	25712
833.852	25590
833.991	25719
834.129	25594
834.267	25731
834.406	25712
834.544	25635
834.682	25590
834.821	25571
834.959	25761
835.097	25506
835.235	25651
835.373	25609
835.511	25594
835.65	25510
835.788	25449
835.926	25396
836.064	25110
836.202	25213
836.34	25434
836.478	25377
836.615	25339
836.753	25434
836.891	25518
837.029	25407
837.167	25381
837.305	25506
837.443	25187
837.58	25133
837.718	25244
837.856	25339
837.993	25179
838.131	25194
838.269	25190
838.406	25038
838.544	24958
838.681	24844
838.819	24821
838.956	24779
839.094	24772
839.231	24688
839.369	24810
839.506	25103
839.643	24867
839.781	24783
839.918	24593
840.055	24646
840.193	24696
840.33	24650
840.467	24620
840.604	24749
840.742	24791
840.879	24505
841.016	24688
841.153	24616
841.29	24741
841.427	24555
841.564	24570
841.701	24684
841.838	24532
841.975	24521
842.112	24494
842.249	24467
842.385	24429
842.522	24616
842.659	24315
842.796	24251
842.933	24296
843.069	24350
843.206	24300
843.343	24399
843.479	24277
843.616	24289
843.752	24022
843.889	24155
844.025	24365
844.162	24159
844.298	24216
844.435	24144
844.571	24007
844.708	24159
844.844	24273
844.98	24201
845.117	24209
845.253	24114
845.389	24038
845.525	24072
845.661	23973
845.798	23824
845.934	23935
846.07	23752
846.206	23912
846.342	23996
846.478	23840
846.614	23710
846.75	23634
846.886	23562
847.022	23710
847.158	23600
847.294	23497
847.429	23611
847.565	23547
847.701	23733
847.837	23433
847.972	23216
848.108	23414
848.244	23486
848.379	23151
848.515	23159
848.65	23014
848.786	23098
848.921	23124
849.057	23421
849.192	23284
849.328	23174
849.463	23220
849.598	23193
849.734	23132
849.869	23109
850.004	22980
850.14	22919
850.275	23010
850.41	22847
850.545	23018
850.68	22843
850.815	22980
850.95	22999
851.085	23037
851.22	23048
851.355	22949
851.49	22782
851.625	22927
851.76	22869
851.895	22946
852.03	22896
852.165	22915
852.299	23029
852.434	22927
852.569	22965
852.703	22873
852.838	23041
852.973	23121
853.107	23071
853.242	22801
853.376	22847
853.511	22561
853.645	22641
853.78	22839
853.914	22797
854.048	22736
854.183	22748
854.317	22801
854.451	23052
854.585	22816
854.72	22706
854.854	22862
854.988	22774
855.122	22694
855.256	22702
855.39	22694
855.524	22801
855.658	22736
855.792	22763
855.926	22763
856.06	22866
856.194	22831
856.327	22740
856.461	22771
856.595	22740
856.729	22641
856.862	22790
856.996	22771
857.13	22793
857.263	22809
857.397	22771
857.53	22763
857.664	22805
857.797	22782
857.931	22934
858.064	22706
858.197	22991
858.331	22816
858.464	22615
858.597	22675
858.731	22793
858.864	22717
858.997	22717
859.13	22759
859.263	22854
859.396	22843
859.529	22691
859.662	22744
859.795	22752
859.928	22850
860.061	22889
860.194	22930
860.327	22824
860.46	22805
860.592	22820
860.725	22957
860.858	22866
860.99	22740
861.123	22637
861.256	22702
861.388	22698
861.521	23436
861.653	22584
861.786	22489
861.918	22535
862.05	22596
862.183	22641
862.315	22645
862.447	22580
862.58	22588
862.712	22485
862.844	22344
862.976	22599
863.108	22649
863.24	22965
863.372	22394
863.504	22485
863.636	22375
863.768	22535
863.9	22440
864.032	22299
864.164	22436
864.296	22470
864.428	22664
864.559	22550
864.691	22561
864.823	22421
864.954	22466
865.086	22440
865.217	22417
865.349	22261
865.48	22363
865.612	22272
865.743	22527
865.875	22329
866.006	22318
866.137	22272
866.269	22280
866.4	22306
866.531	22303
866.662	22246
866.793	22272
866.924	22314
867.055	22268
867.186	22306
867.317	22101
867.448	22234
867.579	22211
867.71	22185
867.841	22166
867.972	22276
868.103	22124
868.233	22268
868.364	22280
868.495	22424
868.625	22417
868.756	22497
868.886	22493
869.017	22379
869.147	22618
869.278	22557
869.408	22599
869.539	22504
869.669	22569
869.799	22523
869.929	22634
870.06	22622
870.19	22812
870.32	22778
870.45	22923
870.58	22995
870.71	23014
870.84	23003
870.97	22835
871.1	22911
871.23	23064
871.36	23151
871.489	23037
871.619	22991
871.749	23193
871.879	23204
872.008	23239
872.138	23155
872.267	23033
872.397	22984
872.526	22786
872.656	23037
872.785	22908
872.915	23132
873.044	23181
873.173	23075
873.303	23113
873.432	23181
873.561	23235
873.69	23079
873.819	22999
873.948	23140
874.077	23147
874.206	23079
874.335	23113
874.464	23212
874.593	23292
874.722	23395
874.851	23341
874.979	23379
875.108	23307
875.237	23185
875.365	23147
875.494	23193
875.623	23391
875.751	23261
875.88	23353
876.008	23471
876.136	23539
876.265	23729
876.393	23726
876.521	23695
876.65	23786
876.778	23733
876.906	23714
877.034	23592
877.162	23699
877.29	23649
877.418	23703
877.546	23710
877.674	23558
877.802	23691
877.93	23672
878.058	23547
878.185	23585
878.313	23638
878.441	23524
878.568	23490
878.696	23566
878.824	23642
878.951	23821
879.079	23767
879.206	23783
879.333	23878
879.461	23760
879.588	23866
879.715	23790
879.842	24007
879.97	23752
880.097	23585
880.224	23520
880.351	23505
880.478	23562
880.605	23505
880.732	23376
880.859	23646
880.986	23558
881.112	23474
881.239	23360
881.366	23197
881.493	23242
881.619	23033
881.746	23037
881.872	23204
881.999	22999
882.125	23041
882.252	23117
882.378	23124
882.505	23162
882.631	22866
882.757	22824
882.883	22759
883.01	22752
883.136	22653
883.262	22546
883.388	22573
883.514	22599
883.64	22687
883.766	22554
883.892	22481
884.018	22557
884.143	22542
884.269	22702
884.395	22432
884.52	22310
884.646	22356
884.772	22516
884.897	22230
885.023	22379
885.148	22462
885.274	22440
885.399	22379
885.524	22325
885.65	22375
885.775	22325
885.9	22295
886.025	22451
886.15	22417
886.275	22249
886.4	22249
886.525	22284
886.65	22249
886.775	22188
886.9	22402
887.025	22485
887.149	22314
887.274	22120
887.399	22131
887.523	22131
887.648	22029
887.773	22044
887.897	22173
888.021	22139
888.146	22040
888.27	22101
888.395	22154
888.519	22185
888.643	22124
888.767	22048
888.891	21945
889.015	21876
889.139	21983
889.263	21873
889.387	22048
889.511	22070
889.635	22040
889.759	22006
889.883	21861
890.006	21899
890.13	21934
890.254	21793
890.377	21701
890.501	21660
890.624	21614
890.748	21686
890.871	21568
890.995	21412
891.118	21458
891.241	21412
891.364	21431
891.488	21477
891.611	21473
891.734	21424
891.857	21523
891.98	21545
892.103	21454
892.226	21401
892.349	21344
892.471	21325
892.594	21359
892.717	21355
892.839	21408
892.962	21306
893.085	21431
893.207	21268
893.33	21184
893.452	21283
893.575	21306
893.697	21226
893.819	21363
893.941	21504
894.064	21393
894.186	21237
894.308	21340
894.43	21367
894.552	21511
894.674	21412
894.796	21192
894.918	21344
895.04	21077
895.161	21252
895.283	21287
895.405	21325
895.526	21275
895.648	21348
895.769	21230
895.891	21378
896.012	21428
896.134	21367
896.255	21291
896.376	21203
896.498	21378
896.619	21256
896.74	21340
896.861	21424
896.982	21641
897.103	21705
897.224	21625
897.345	21454
897.466	21382
897.587	21515
897.708	21614
897.828	21500
897.949	21439
898.07	21310
898.19	21370
898.311	21641
898.431	21500
898.552	21466
898.672	21542
898.792	21553
898.913	21500
899.033	21283
899.153	21294
899.273	21157
899.393	21214
899.513	21294
899.633	21302
899.753	21275
899.873	21180
899.993	21184
900.113	21176
900.232	21157
900.352	21146
900.472	21043
900.591	21047
900.711	21009
900.83	20967
900.95	21066
901.069	21058
901.189	20914
901.308	20667
901.427	20571
901.546	20659
901.665	20598
901.784	20571
901.904	20484
902.023	20347
902.141	20161
902.26	20157
902.379	20271
902.498	20088
902.617	20027
902.735	20008
902.854	19997
902.973	20001
903.091	19765
903.21	19704
903.328	19670
903.446	19628
903.565	19567
903.683	19480
903.801	19403
903.919	19556
904.038	19525
904.156	19244
904.274	19297
904.392	19247
904.51	19179
904.627	19259
904.745	19282
904.863	19293
904.981	19110
905.098	18951
905.216	18924
905.334	19000
905.451	19031
905.569	18924
905.686	18878
905.803	18867
905.921	18620
906.038	18749
906.155	18760
906.272	18616
906.389	18593
906.506	18532
906.623	18486
906.74	18490
906.857	18346
906.974	18399
907.091	18525
907.208	18517
907.324	18426
907.441	18369
907.557	18220
907.674	18194
907.79	18030
907.907	18110
908.023	18136
908.139	18110
908.256	18239
908.372	18041
908.488	17984
908.604	17885
908.72	17851
908.836	17821
908.952	17824
909.068	17912
909.184	18030
909.3	17786
909.415	17923
909.531	17882
909.647	17600
909.762	17573
909.878	17611
909.993	17581
910.108	17551
910.224	17528
910.339	17444
910.454	17398
910.57	17269
910.685	17273
910.8	17512
910.915	17478
911.03	17318
911.145	17109
911.259	17048
911.374	17235
911.489	17105
911.604	17025
911.718	16896
911.833	16866
911.947	16778
912.062	16706
912.176	16900
912.291	16999
912.405	16850
912.519	17018
912.633	17060
912.748	16801
912.862	16797
912.976	16706
913.09	16603
913.204	16607
913.318	16668
913.431	16786
913.545	16660
913.659	16824
913.772	16611
913.886	16558
914	16466
914.113	16584
914.226	16493
914.34	16535
914.453	16398
914.566	16462
914.68	16360
914.793	16253
914.906	16090
915.019	16036
915.132	15956
915.245	16044
915.358	15895
915.47	16036
915.583	16181
915.696	16101
915.809	16090
915.921	16185
916.034	16032
916.146	15888
916.259	15850
916.371	15926
916.483	16002
916.595	15934
916.708	15884
916.82	15838
916.932	15766
917.044	15797
917.156	15789
917.268	15641
917.38	15751
917.491	15644
917.603	15652
917.715	15759
917.826	15648
917.938	15515
918.049	15622
918.161	15545
918.272	15713
918.384	15762
918.495	15641
918.606	15401
918.717	15386
918.828	15370
918.939	15488
919.05	15313
919.161	15268
919.272	15165
919.383	15306
919.494	15416
919.604	15572
919.715	15321
919.826	15245
919.936	15367
920.047	15424
920.157	15408
920.267	15557
920.378	15321
920.488	15412
920.598	15515
920.708	15606
920.818	15542
920.928	15374
921.038	15656
921.148	15507
921.258	15370
921.368	15131
921.477	15043
921.587	15070
921.697	14948
921.806	15036
921.916	14956
922.025	14674
922.134	14678
922.244	14651
922.353	14705
922.462	14511
922.571	14549
922.68	14290
922.789	14389
922.898	14301
923.007	14290
923.116	14396
923.224	14324
923.333	14332
923.442	14199
923.55	14195
923.659	14183
923.767	14210
923.876	14107
923.984	14164
924.092	14046
924.201	14062
924.309	14100
924.417	14043
924.525	13902
924.633	13906
924.741	14929
924.849	13761
924.956	13849
925.064	13772
925.172	13738
925.279	13723
925.387	13772
925.494	13674
925.602	13852
925.709	13772
925.816	13540
925.924	13613
926.031	13704
926.138	13639
926.245	13578
926.352	13556
926.459	13658
926.566	13700
926.673	13643
926.779	13415
926.886	13411
926.993	13365
927.099	13266
927.206	13217
927.312	13209
927.419	13274
927.525	13228
927.631	13194
927.737	13168
927.843	13122
927.95	13000
928.056	13034
928.162	13038
928.267	13061
928.373	13537
928.479	13084
928.585	12833
928.69	13057
928.796	13050
928.901	12916
929.007	12757
929.112	12871
929.218	12825
929.323	12707
929.428	12760
929.533	12909
929.638	12658
929.743	12631
929.848	12787
929.953	12589
930.058	12532
930.163	12422
930.267	12376
930.372	12513
930.477	12338
930.581	12620
930.685	12448
930.79	12243
930.894	12350
930.998	12357
931.103	12399
931.207	11961
931.311	11988
931.415	11870
931.519	11718
931.623	11596
