Data from test_V78500241_2601.txt Node
Date: Fri Mar 25 15:59:49 CST 2022
User: usil
Spectrometer: V785-0024
Trigger mode: 0
Integration Time (sec): 4.000000E-1
Scans to average: 1
Nonlinearity correction enabled: false
Boxcar width: 0
Storing dark spectrum: false
XAxis mode: Wavelengths
Number of Pixels in Spectrum: 1024
>>>>>Begin Spectral Data<<<<<
801.071	28721
801.214	28660
801.356	28481
801.499	28478
801.641	28204
801.783	28246
801.926	28489
802.068	28246
802.211	28295
802.353	28261
802.496	28067
802.638	28070
802.78	28048
802.923	27945
803.065	27880
803.208	27998
803.35	27869
803.492	28246
803.635	28200
803.777	28063
803.919	28234
804.061	28409
804.204	28379
804.346	28124
804.488	28048
804.63	28185
804.773	28139
804.915	28185
805.057	28276
805.199	28352
805.341	28215
805.483	28466
805.626	28493
805.768	28246
805.91	28363
806.052	28447
806.194	28512
806.336	28519
806.478	28462
806.62	28462
806.762	28569
806.904	28710
807.046	28923
807.188	28877
807.33	28896
807.472	28953
807.614	28896
807.756	28869
807.898	28679
808.04	28710
808.182	28637
808.324	28790
808.465	28824
808.607	28843
808.749	29056
808.891	29155
809.033	29277
809.174	29204
809.316	29170
809.458	28980
809.6	28980
809.741	29216
809.883	29204
810.025	29421
810.166	29414
810.308	29318
810.45	29273
810.591	29212
810.733	29090
810.875	29200
811.016	29109
811.158	29090
811.299	29269
811.441	29242
811.582	29242
811.724	29170
811.865	29204
812.007	29098
812.148	29155
812.29	29273
812.431	29220
812.573	29505
812.714	29566
812.855	29646
812.997	29707
813.138	29798
813.279	29729
813.421	29790
813.562	29619
813.703	29402
813.845	29254
813.986	29090
814.127	28733
814.268	28824
814.41	28873
814.551	28733
814.692	28972
814.833	28736
814.974	28755
815.115	28881
815.256	28736
815.397	28561
815.539	28691
815.68	28622
815.821	28615
815.962	28660
816.103	28599
816.244	28459
816.385	28436
816.526	28424
816.666	28253
816.807	28154
816.948	28261
817.089	28371
817.23	28169
817.371	28013
817.512	28295
817.653	28078
817.793	28101
817.934	28147
818.075	28143
818.216	28063
818.356	28101
818.497	27998
818.638	27941
818.778	27968
818.919	27808
819.06	27903
819.2	28032
819.341	28082
819.481	28223
819.622	28424
819.762	28432
819.903	28371
820.043	28299
820.184	28390
820.324	28128
820.465	28287
820.605	28257
820.746	28230
820.886	28120
821.026	28238
821.167	28090
821.307	28284
821.447	28169
821.588	28143
821.728	27953
821.868	27884
822.008	27580
822.149	27610
822.289	27504
822.429	27389
822.569	27397
822.709	27355
822.849	27051
822.99	27237
823.13	27085
823.27	27043
823.41	26834
823.55	26842
823.69	27001
823.83	26933
823.97	26777
824.11	26655
824.25	26674
824.389	26724
824.529	26857
824.669	26686
824.809	26876
824.949	26845
825.089	26986
825.228	26724
825.368	26518
825.508	26590
825.648	26667
825.787	26735
825.927	26693
826.067	26655
826.206	26629
826.346	26811
826.485	26636
826.625	26670
826.765	26739
826.904	26743
827.044	26446
827.183	26423
827.323	26339
827.462	26446
827.601	26423
827.741	26366
827.88	26568
828.02	26233
828.159	26320
828.298	26339
828.437	26404
828.577	26259
828.716	26385
828.855	26377
828.994	25917
829.134	25989
829.273	26111
829.412	25959
829.551	25966
829.69	26058
829.829	26100
829.968	26039
830.107	26081
830.246	26115
830.385	25974
830.524	25963
830.663	25887
830.802	25811
830.941	25689
831.08	25601
831.219	25719
831.357	25769
831.496	25875
831.635	25685
831.774	25556
831.913	25518
832.051	25529
832.19	25426
832.329	25411
832.467	25346
832.606	25320
832.744	25251
832.883	25236
833.022	25430
833.16	25346
833.299	25293
833.437	25320
833.576	25316
833.714	25559
833.852	25537
833.991	25369
834.129	25339
834.267	25495
834.406	25422
834.544	25373
834.682	25502
834.821	25419
834.959	25578
835.097	25365
835.235	25396
835.373	25346
835.511	25304
835.65	25293
835.788	25301
835.926	25126
836.064	25023
836.202	25057
836.34	25244
836.478	25259
836.615	25263
836.753	25293
836.891	25304
837.029	25293
837.167	25206
837.305	24928
837.443	25103
837.58	25042
837.718	25046
837.856	25099
837.993	25042
838.131	25076
838.269	24913
838.406	24909
838.544	24859
838.681	24738
838.819	24749
838.956	24559
839.094	24547
839.231	24658
839.369	24715
839.506	24894
839.643	24829
839.781	24410
839.918	24486
840.055	24544
840.193	24429
840.33	24338
840.467	24414
840.604	24486
840.742	24677
840.879	24235
841.016	24304
841.153	24422
841.29	24559
841.427	24433
841.564	24403
841.701	24422
841.838	24380
841.975	24388
842.112	24490
842.249	24372
842.385	24197
842.522	24380
842.659	24338
842.796	24152
842.933	24228
843.069	24057
843.206	24117
843.343	24114
843.479	24129
843.616	24251
843.752	23980
843.889	24083
844.025	24026
844.162	23897
844.298	24022
844.435	23965
844.571	23901
844.708	24049
844.844	24060
844.98	24133
845.117	24155
845.253	23779
845.389	23699
845.525	23893
845.661	23817
845.798	23570
845.934	23824
846.07	23687
846.206	23729
846.342	23794
846.478	23657
846.614	23467
846.75	23364
846.886	23429
847.022	23551
847.158	23474
847.294	23337
847.429	23562
847.565	23414
847.701	23596
847.837	23124
847.972	23060
848.108	23242
848.244	23189
848.379	23064
848.515	23006
848.65	22999
848.786	23041
848.921	23014
849.057	23102
849.192	23132
849.328	23029
849.463	23060
849.598	22858
849.734	22942
849.869	22809
850.004	22748
850.14	22858
850.275	22866
850.41	22618
850.545	22790
850.68	22599
850.815	22691
850.95	22763
851.085	22938
851.22	22858
851.355	22801
851.49	22721
851.625	22767
851.76	22881
851.895	22812
852.03	22649
852.165	22793
852.299	22816
852.434	22793
852.569	22839
852.703	22759
852.838	22850
852.973	22900
853.107	22927
853.242	22599
853.376	22721
853.511	22531
853.645	22508
853.78	22675
853.914	22698
854.048	22588
854.183	22599
854.317	22653
854.451	22881
854.585	22546
854.72	22664
854.854	22649
854.988	22447
855.122	22538
855.256	22360
855.39	22466
855.524	22672
855.658	22596
855.792	22554
855.926	22622
856.06	22706
856.194	22603
856.327	22615
856.461	22421
856.595	22683
856.729	22516
856.862	22603
856.996	22596
857.13	22679
857.263	22584
857.397	22736
857.53	22459
857.664	22565
857.797	22637
857.931	22588
858.064	22596
858.197	22596
858.331	22371
858.464	22557
858.597	22421
858.731	22489
858.864	22512
858.997	22588
859.13	22561
859.263	22538
859.396	22569
859.529	22531
859.662	22512
859.795	22519
859.928	22580
860.061	22675
860.194	22748
860.327	22527
860.46	22466
860.592	22592
860.725	22763
860.858	22721
860.99	22637
861.123	22557
861.256	22451
861.388	22535
861.521	23391
861.653	22500
861.786	22246
861.918	22402
862.05	22447
862.183	22462
862.315	22459
862.447	22519
862.58	22481
862.712	22272
862.844	22105
862.976	22356
863.108	22363
863.24	22801
863.372	22352
863.504	22261
863.636	22268
863.768	22421
863.9	22367
864.032	22181
864.164	22215
864.296	22299
864.428	22379
864.559	22348
864.691	22462
864.823	22234
864.954	22101
865.086	22265
865.217	22032
865.349	22055
865.48	22169
865.612	22090
865.743	22276
865.875	22223
866.006	22128
866.137	22093
866.269	22101
866.4	22128
866.531	21964
866.662	22097
866.793	22124
866.924	22044
867.055	22074
867.186	21998
867.317	22078
867.448	21953
867.579	21994
867.71	21945
867.841	22021
867.972	22120
868.103	22093
868.233	22116
868.364	21987
868.495	22143
868.625	22188
868.756	22466
868.886	22280
869.017	22291
869.147	22352
869.278	22379
869.408	22436
869.539	22234
869.669	22246
869.799	22310
869.929	22470
870.06	22382
870.19	22653
870.32	22527
870.45	22736
870.58	22645
870.71	22797
870.84	22900
870.97	22660
871.1	22767
871.23	22896
871.36	22858
871.489	22835
871.619	22809
871.749	23006
871.879	22820
872.008	22908
872.138	22919
872.267	22816
872.397	22809
872.526	22748
872.656	22725
872.785	22691
872.915	22938
873.044	23075
873.173	22987
873.303	22786
873.432	22999
873.561	23060
873.69	22923
873.819	22972
873.948	22965
874.077	22999
874.206	22927
874.335	22896
874.464	23014
874.593	23193
874.722	23143
874.851	23227
874.979	23315
875.108	23296
875.237	23098
875.365	23037
875.494	23166
875.623	23242
875.751	23056
875.88	23174
876.008	23227
876.136	23322
876.265	23520
876.393	23665
876.521	23589
876.65	23627
876.778	23482
876.906	23524
877.034	23497
877.162	23672
877.29	23448
877.418	23505
877.546	23539
877.674	23566
877.802	23535
877.93	23505
878.058	23573
878.185	23395
878.313	23433
878.441	23467
878.568	23261
878.696	23330
878.824	23524
878.951	23592
879.079	23615
879.206	23786
879.333	23615
879.461	23570
879.588	23547
879.715	23642
879.842	23729
879.97	23653
880.097	23261
880.224	23261
880.351	23288
880.478	23410
880.605	23140
880.732	23311
880.859	23478
880.986	23383
881.112	23246
881.239	23208
881.366	23014
881.493	22957
881.619	22904
881.746	23010
881.872	22869
881.999	22790
882.125	22816
882.252	22930
882.378	22889
882.505	22942
882.631	22725
882.757	22440
882.883	22702
883.01	22550
883.136	22443
883.262	22481
883.388	22443
883.514	22512
883.64	22535
883.766	22489
883.892	22280
884.018	22314
884.143	22535
884.269	22607
884.395	22287
884.52	22154
884.646	22143
884.772	22173
884.897	22097
885.023	22090
885.148	22265
885.274	22238
885.399	22402
885.524	22223
885.65	22188
885.775	22135
885.9	22131
886.025	22325
886.15	22169
886.275	22238
886.4	22051
886.525	22181
886.65	22109
886.775	21926
886.9	22299
887.025	22367
887.149	22135
887.274	21979
887.399	21998
887.523	21907
887.648	21873
887.773	21861
887.897	22002
888.021	21949
888.146	21907
888.27	21918
888.395	21937
888.519	22021
888.643	21941
888.767	22105
888.891	21937
889.015	21583
889.139	21808
889.263	21793
889.387	21789
889.511	21838
889.635	21979
889.759	21713
889.883	21656
890.006	21736
890.13	21846
890.254	21511
890.377	21660
890.501	21424
890.624	21473
890.748	21545
890.871	21302
890.995	21279
891.118	21275
891.241	21268
891.364	21306
891.488	21370
891.611	21378
891.734	21325
891.857	21367
891.98	21195
892.103	21340
892.226	21233
892.349	21131
892.471	21009
892.594	21222
892.717	21135
892.839	21150
892.962	21131
893.085	21268
893.207	21123
893.33	21180
893.452	21062
893.575	21192
893.697	21157
893.819	21340
893.941	21458
894.064	21237
894.186	21127
894.308	21024
894.43	21199
894.552	21363
894.674	21256
894.796	20918
894.918	21222
895.04	21203
895.161	21096
895.283	21226
895.405	20960
895.526	21192
895.648	21165
895.769	21142
895.891	21157
896.012	21245
896.134	21207
896.255	21180
896.376	21146
896.498	21150
896.619	21154
896.74	21165
896.861	21214
896.982	21481
897.103	21557
897.224	21344
897.345	21264
897.466	21279
897.587	21367
897.708	21454
897.828	21408
897.949	21287
898.07	21032
898.19	21233
898.311	21428
898.431	21321
898.552	21329
898.672	21469
898.792	21405
898.913	21363
899.033	21176
899.153	21176
899.273	21096
899.393	21077
899.513	21077
899.633	21184
899.753	21032
899.873	21009
899.993	21047
900.113	20921
900.232	20944
900.352	21096
900.472	20804
900.591	20716
900.711	20963
900.83	20724
900.95	20853
901.069	20975
901.189	20663
901.308	20492
901.427	20457
901.546	20328
901.665	20461
901.784	20381
901.904	20267
902.023	20187
902.141	19909
902.26	19989
902.379	20126
902.498	19993
902.617	19765
902.735	19913
902.854	19898
902.973	19776
903.091	19635
903.21	19510
903.328	19632
903.446	19445
903.565	19415
903.683	19335
903.801	19187
903.919	19244
904.038	19274
904.156	19187
904.274	19213
904.392	19088
904.51	19061
904.627	19046
904.745	19148
904.863	19107
904.981	18852
905.098	18779
905.216	18817
905.334	18802
905.451	18795
905.569	18734
905.686	18829
905.803	18779
905.921	18623
906.038	18627
906.155	18578
906.272	18456
906.389	18445
906.506	18437
906.623	18372
906.74	18277
906.857	18057
906.974	18285
907.091	18456
907.208	18403
907.324	18407
907.441	18209
907.557	17931
907.674	18064
907.79	17954
907.907	17977
908.023	17961
908.139	18129
908.256	18030
908.372	17954
908.488	17843
908.604	17722
908.72	17562
908.836	17764
908.952	17646
909.068	17843
909.184	17756
909.3	17786
909.415	17786
909.531	17760
909.647	17402
909.762	17455
909.878	17356
909.993	17459
910.108	17436
910.224	17368
910.339	17322
910.454	17208
910.57	17178
910.685	17299
910.8	17337
910.915	17315
911.03	17200
911.145	17121
911.259	16949
911.374	17022
911.489	17018
911.604	16877
911.718	16881
911.833	16850
911.947	16721
912.062	16702
912.176	16717
912.291	16672
912.405	16801
912.519	16904
912.633	16904
912.748	16778
912.862	16668
912.976	16596
913.09	16535
913.204	16466
913.318	16527
913.431	16580
913.545	16649
913.659	16630
913.772	16538
913.886	16299
914	16367
914.113	16443
914.226	16462
914.34	16402
914.453	16219
914.566	16512
914.68	16329
914.793	16261
914.906	16010
915.019	15975
915.132	15892
915.245	15937
915.358	16002
915.47	15960
915.583	15888
915.696	15907
915.809	16006
915.921	16063
916.034	15831
916.146	15819
916.259	15831
916.371	15850
916.483	15857
916.595	15778
916.708	15720
916.82	15766
916.932	15667
917.044	15587
917.156	15599
917.268	15599
917.38	15515
917.491	15500
917.603	15496
917.715	15523
917.826	15675
917.938	15595
918.049	15348
918.161	15568
918.272	15633
918.384	15599
918.495	15386
918.606	15272
918.717	15199
918.828	15233
918.939	15329
919.05	15180
919.161	15268
919.272	15070
919.383	15188
919.494	15344
919.604	15477
919.715	15310
919.826	15157
919.936	15203
920.047	15355
920.157	15230
920.267	15462
920.378	15211
920.488	15138
920.598	15393
920.708	15549
920.818	15428
920.928	15393
921.038	15542
921.148	15485
921.258	15233
921.368	15093
921.477	14956
921.587	14842
921.697	14838
921.806	14956
921.916	14823
922.025	14636
922.134	14606
922.244	14541
922.353	14648
922.462	14488
922.571	14442
922.68	14225
922.789	14225
922.898	14229
923.007	14210
923.116	14263
923.224	14206
923.333	14202
923.442	14065
923.55	14062
923.659	14115
923.767	14054
923.876	14024
923.984	14111
924.092	13978
924.201	14016
924.309	13978
924.417	13955
924.525	13852
924.633	13944
924.741	14849
924.849	13731
924.956	13814
925.064	13616
925.172	13491
925.279	13616
925.387	13613
925.494	13571
925.602	13772
925.709	13674
925.816	13506
925.924	13559
926.031	13586
926.138	13510
926.245	13639
926.352	13381
926.459	13544
926.566	13613
926.673	13403
926.779	13411
926.886	13324
926.993	13221
927.099	13061
927.206	13137
927.312	13065
927.419	13228
927.525	13152
927.631	13027
927.737	13027
927.843	12996
927.95	12897
928.056	12943
928.162	12966
928.267	13008
928.373	13472
928.479	13053
928.585	12829
928.69	12951
928.796	12939
928.901	12856
929.007	12703
929.112	12802
929.218	12734
929.323	12654
929.428	12665
929.533	12821
929.638	12642
929.743	12528
929.848	12589
929.953	12642
930.058	12471
930.163	12365
930.267	12327
930.372	12494
930.477	12300
930.581	12585
930.685	12323
930.79	12247
930.894	12232
930.998	12175
931.103	12258
931.207	11977
931.311	11969
931.415	11783
931.519	11653
931.623	11558
