Data from test_V78500241_1355.txt Node
Date: Fri Mar 25 15:51:11 CST 2022
User: usil
Spectrometer: V785-0024
Trigger mode: 0
Integration Time (sec): 4.000000E-1
Scans to average: 1
Nonlinearity correction enabled: false
Boxcar width: 0
Storing dark spectrum: false
XAxis mode: Wavelengths
Number of Pixels in Spectrum: 1024
>>>>>Begin Spectral Data<<<<<
801.071	28207
801.214	27953
801.356	27766
801.499	27778
801.641	27762
801.783	27682
801.926	27618
802.068	27587
802.211	27545
802.353	27519
802.496	27348
802.638	27355
802.78	27150
802.923	27131
803.065	27405
803.208	27241
803.35	27272
803.492	27450
803.635	27485
803.777	27321
803.919	27572
804.061	27842
804.204	27519
804.346	27443
804.488	27412
804.63	27595
804.773	27355
804.915	27454
805.057	27671
805.199	27435
805.341	27496
805.483	27568
805.626	27538
805.768	27568
805.91	27591
806.052	27542
806.194	27523
806.336	27846
806.478	27618
806.62	27614
806.762	27747
806.904	27983
807.046	27991
807.188	28070
807.33	28067
807.472	28322
807.614	28154
807.756	28059
807.898	28010
808.04	27907
808.182	27869
808.324	27800
808.465	27956
808.607	28158
808.749	28287
808.891	28257
809.033	28489
809.174	28268
809.316	28318
809.458	28291
809.6	28299
809.741	28451
809.883	28371
810.025	28634
810.166	28584
810.308	28565
810.45	28584
810.591	28386
810.733	28188
810.875	28192
811.016	28154
811.158	28177
811.299	28363
811.441	28474
811.582	28440
811.724	28287
811.865	28196
812.007	28303
812.148	28226
812.29	28257
812.431	28497
812.573	28512
812.714	28725
812.855	28782
812.997	28843
813.138	29185
813.279	28961
813.421	28725
813.562	28729
813.703	28641
813.845	28516
813.986	28337
814.127	28139
814.268	28010
814.41	27987
814.551	28048
814.692	28067
814.833	27934
814.974	28044
815.115	28063
815.256	27869
815.397	27812
815.539	27854
815.68	27732
815.821	27747
815.962	27705
816.103	27766
816.244	27682
816.385	27648
816.526	27656
816.666	27427
816.807	27249
816.948	27370
817.089	27325
817.23	27313
817.371	27355
817.512	27062
817.653	27272
817.793	27032
817.934	27272
818.075	27344
818.216	27272
818.356	27252
818.497	27127
818.638	27028
818.778	26998
818.919	27157
819.06	27161
819.2	27135
819.341	27306
819.481	27237
819.622	27450
819.762	27580
819.903	27435
820.043	27420
820.184	27389
820.324	27405
820.465	27576
820.605	27332
820.746	27283
820.886	27325
821.026	27405
821.167	27336
821.307	27416
821.447	27298
821.588	27146
821.728	27081
821.868	27028
822.008	26754
822.149	26857
822.289	26724
822.429	26461
822.569	26545
822.709	26431
822.849	26400
822.99	26252
823.13	26256
823.27	26176
823.41	26100
823.55	25871
823.69	26077
823.83	26145
823.97	26027
824.11	25894
824.25	25818
824.389	26043
824.529	25883
824.669	25898
824.809	25974
824.949	25860
825.089	26043
825.228	25902
825.368	25750
825.508	25738
825.648	25830
825.787	25936
825.927	25856
826.067	25723
826.206	25723
826.346	25765
826.485	25849
826.625	25693
826.765	25917
826.904	25826
827.044	25491
827.183	25400
827.323	25381
827.462	25662
827.601	25449
827.741	25407
827.88	25499
828.02	25381
828.159	25438
828.298	25400
828.437	25601
828.577	25502
828.716	25495
828.855	25525
828.994	25274
829.134	25202
829.273	25358
829.412	25145
829.551	25228
829.69	25228
829.829	25301
829.968	25194
830.107	25274
830.246	25232
830.385	25061
830.524	25004
830.663	24897
830.802	24932
830.941	24776
831.08	24654
831.219	24878
831.357	24905
831.496	24992
831.635	24795
831.774	24593
831.913	24574
832.051	24658
832.19	24555
832.329	24688
832.467	24475
832.606	24338
832.744	24422
832.883	24475
833.022	24464
833.16	24490
833.299	24608
833.437	24483
833.576	24551
833.714	24448
833.852	24563
833.991	24559
834.129	24616
834.267	24486
834.406	24513
834.544	24570
834.682	24566
834.821	24536
834.959	24631
835.097	24372
835.235	24677
835.373	24536
835.511	24555
835.65	24410
835.788	24475
835.926	24243
836.064	24178
836.202	24201
836.34	24270
836.478	24410
836.615	24292
836.753	24369
836.891	24376
837.029	24391
837.167	24281
837.305	24239
837.443	24159
837.58	24152
837.718	24072
837.856	24174
837.993	24182
838.131	24049
838.269	24095
838.406	24007
838.544	23923
838.681	23783
838.819	23855
838.956	23703
839.094	23691
839.231	23722
839.369	23802
839.506	23942
839.643	23939
839.781	23585
839.918	23657
840.055	23558
840.193	23478
840.33	23547
840.467	23687
840.604	23665
840.742	23843
840.879	23573
841.016	23524
841.153	23478
841.29	23570
841.427	23562
841.564	23630
841.701	23490
841.838	23528
841.975	23482
842.112	23505
842.249	23322
842.385	23334
842.522	23535
842.659	23326
842.796	23212
842.933	23284
843.069	23269
843.206	23326
843.343	23402
843.479	23220
843.616	23296
843.752	23094
843.889	23060
844.025	23193
844.162	23083
844.298	23147
844.435	23132
844.571	23094
844.708	23166
844.844	23273
844.98	23155
845.117	23254
845.253	23033
845.389	23037
845.525	23041
845.661	22968
845.798	22923
845.934	22881
846.07	22927
846.206	22835
846.342	22854
846.478	22729
846.614	22634
846.75	22470
846.886	22504
847.022	22664
847.158	22535
847.294	22596
847.429	22637
847.565	22371
847.701	22850
847.837	22356
847.972	22268
848.108	22398
848.244	22253
848.379	22010
848.515	22051
848.65	22070
848.786	22051
848.921	22067
849.057	22268
849.192	22196
849.328	22185
849.463	22097
849.598	22074
849.734	21930
849.869	21915
850.004	21876
850.14	21972
850.275	21846
850.41	21671
850.545	21888
850.68	21949
850.815	21816
850.95	21865
851.085	22097
851.22	21979
851.355	21831
851.49	21861
851.625	21998
851.76	21884
851.895	21762
852.03	21915
852.165	21915
852.299	21911
852.434	21979
852.569	21926
852.703	21922
852.838	21991
852.973	21987
853.107	21972
853.242	21785
853.376	21595
853.511	21431
853.645	21751
853.78	21800
853.914	21789
854.048	21694
854.183	21660
854.317	21812
854.451	21869
854.585	21854
854.72	21819
854.854	21690
854.988	21694
855.122	21656
855.256	21606
855.39	21759
855.524	21812
855.658	21778
855.792	21717
855.926	21736
856.06	21781
856.194	21827
856.327	21652
856.461	21599
856.595	21633
856.729	21717
856.862	21850
856.996	21698
857.13	21728
857.263	21667
857.397	21804
857.53	21720
857.664	21770
857.797	21774
857.931	21827
858.064	21804
858.197	21854
858.331	21660
858.464	21610
858.597	21755
858.731	21717
858.864	21694
858.997	21675
859.13	21656
859.263	21827
859.396	21804
859.529	21648
859.662	21641
859.795	21595
859.928	21743
860.061	21884
860.194	21816
860.327	21686
860.46	21717
860.592	21892
860.725	21656
860.858	21941
860.99	21766
861.123	21530
861.256	21629
861.388	21625
861.521	22466
861.653	21644
861.786	21545
861.918	21511
862.05	21591
862.183	21633
862.315	21564
862.447	21675
862.58	21671
862.712	21466
862.844	21454
862.976	21447
863.108	21526
863.24	21800
863.372	21412
863.504	21462
863.636	21355
863.768	21473
863.9	21568
864.032	21344
864.164	21370
864.296	21568
864.428	21580
864.559	21485
864.691	21557
864.823	21348
864.954	21367
865.086	21428
865.217	21447
865.349	21226
865.48	21211
865.612	21359
865.743	21458
865.875	21408
866.006	21264
866.137	21340
866.269	21332
866.4	21336
866.531	21138
866.662	21245
866.793	21237
866.924	21226
867.055	21298
867.186	21173
867.317	21123
867.448	21245
867.579	21203
867.71	21184
867.841	21142
867.972	21211
868.103	21199
868.233	21405
868.364	21412
868.495	21363
868.625	21500
868.756	21633
868.886	21367
869.017	21435
869.147	21614
869.278	21618
869.408	21492
869.539	21485
869.669	21496
869.799	21583
869.929	21660
870.06	21591
870.19	21838
870.32	21793
870.45	21880
870.58	21831
870.71	22010
870.84	21960
870.97	21861
871.1	21895
871.23	21979
871.36	22006
871.489	21998
871.619	22112
871.749	22116
871.879	22177
872.008	22048
872.138	22021
872.267	22036
872.397	21979
872.526	21808
872.656	21918
872.785	21846
872.915	22040
873.044	22109
873.173	22131
873.303	22078
873.432	22181
873.561	22211
873.69	22128
873.819	22116
873.948	22207
874.077	22120
874.206	22124
874.335	22143
874.464	22223
874.593	22417
874.722	22291
874.851	22280
874.979	22409
875.108	22337
875.237	22306
875.365	22207
875.494	22253
875.623	22356
875.751	22295
875.88	22402
876.008	22508
876.136	22618
876.265	22752
876.393	22733
876.521	22980
876.65	22927
876.778	22615
876.906	22683
877.034	22607
877.162	22740
877.29	22611
877.418	22630
877.546	22763
877.674	22702
877.802	22675
877.93	22740
878.058	22546
878.185	22607
878.313	22725
878.441	22637
878.568	22561
878.696	22691
878.824	22653
878.951	22710
879.079	22972
879.206	22984
879.333	22843
879.461	22828
879.588	22793
879.715	22771
879.842	22908
879.97	22733
880.097	22504
880.224	22455
880.351	22478
880.478	22523
880.605	22523
880.732	22607
880.859	22649
880.986	22462
881.112	22512
881.239	22329
881.366	22246
881.493	22135
881.619	22063
881.746	22124
881.872	22044
881.999	22093
882.125	22006
882.252	22101
882.378	22131
882.505	22124
882.631	21937
882.757	21816
882.883	21800
883.01	21774
883.136	21652
883.262	21679
883.388	21553
883.514	21743
883.64	21675
883.766	21778
883.892	21447
884.018	21606
884.143	21762
884.269	21743
884.395	21462
884.52	21473
884.646	21351
884.772	21317
884.897	21302
885.023	21386
885.148	21469
885.274	21591
885.399	21477
885.524	21428
885.65	21416
885.775	21359
885.9	21321
886.025	21576
886.15	21325
886.275	21408
886.4	21287
886.525	21523
886.65	21378
886.775	21329
886.9	21443
887.025	21572
887.149	21488
887.274	21188
887.399	21062
887.523	21256
887.648	21020
887.773	21066
887.897	21283
888.021	21260
888.146	21104
888.27	21195
888.395	21226
888.519	21233
888.643	21127
888.767	21131
888.891	21165
889.015	21020
889.139	21062
889.263	20952
889.387	20971
889.511	21222
889.635	21184
889.759	20975
889.883	20952
890.006	20963
890.13	21112
890.254	20861
890.377	21036
890.501	20720
890.624	20739
890.748	20826
890.871	20541
890.995	20587
891.118	20590
891.241	20488
891.364	20556
891.488	20678
891.611	20606
891.734	20415
891.857	20545
891.98	20564
892.103	20495
892.226	20514
892.349	20431
892.471	20347
892.594	20431
892.717	20537
892.839	20309
892.962	20461
893.085	20404
893.207	20415
893.33	20294
893.452	20358
893.575	20469
893.697	20495
893.819	20598
893.941	20602
894.064	20518
894.186	20438
894.308	20290
894.43	20541
894.552	20564
894.674	20571
894.796	20271
894.918	20389
895.04	20457
895.161	20465
895.283	20419
895.405	20358
895.526	20431
895.648	20408
895.769	20370
895.891	20518
896.012	20541
896.134	20446
896.255	20454
896.376	20473
896.498	20427
896.619	20396
896.74	20438
896.861	20522
896.982	20705
897.103	20842
897.224	20838
897.345	20674
897.466	20632
897.587	20621
897.708	20693
897.828	20625
897.949	20507
898.07	20457
898.19	20583
898.311	20693
898.431	20560
898.552	20583
898.672	20781
898.792	20651
898.913	20556
899.033	20461
899.153	20412
899.273	20282
899.393	20495
899.513	20442
899.633	20240
899.753	20488
899.873	20286
899.993	20423
900.113	20282
900.232	20431
900.352	20229
900.472	20103
900.591	20077
900.711	20252
900.83	20069
900.95	20225
901.069	20419
901.189	19967
901.308	19909
901.427	19765
901.546	19814
901.665	19947
901.784	19757
901.904	19544
902.023	19476
902.141	19362
902.26	19335
902.379	19304
902.498	19274
902.617	19270
902.735	19266
902.854	19221
902.973	19213
903.091	19057
903.21	18894
903.328	18878
903.446	18764
903.565	18741
903.683	18635
903.801	18528
903.919	18734
904.038	18631
904.156	18509
904.274	18616
904.392	18494
904.51	18361
904.627	18464
904.745	18525
904.863	18437
904.981	18342
905.098	18228
905.216	18182
905.334	18247
905.451	18228
905.569	18114
905.686	18289
905.803	18133
905.921	17870
906.038	18079
906.155	17958
906.272	17813
906.389	17813
906.506	17699
906.623	17634
906.74	17649
906.857	17592
906.974	17570
907.091	17710
907.208	17657
907.324	17710
907.441	17570
907.557	17490
907.674	17379
907.79	17117
907.907	17376
908.023	17429
908.139	17265
908.256	17269
908.372	17159
908.488	17318
908.604	17147
908.72	16961
908.836	17060
908.952	17018
909.068	17174
909.184	17239
909.3	17052
909.415	17159
909.531	17079
909.647	16824
909.762	16850
909.878	16755
909.993	16801
910.108	16809
910.224	16786
910.339	16748
910.454	16656
910.57	16546
910.685	16497
910.8	16828
910.915	16774
911.03	16607
911.145	16462
911.259	16363
911.374	16409
911.489	16352
911.604	16253
911.718	16093
911.833	16082
911.947	16082
912.062	15956
912.176	16082
912.291	16105
912.405	16128
912.519	16318
912.633	16333
912.748	16223
912.862	16055
912.976	15907
913.09	15819
913.204	15831
913.318	15941
913.431	16097
913.545	16036
913.659	15979
913.772	15842
913.886	15766
914	15781
914.113	15850
914.226	15793
914.34	15846
914.453	15644
914.566	15789
914.68	15591
914.793	15591
914.906	15359
915.019	15294
915.132	15283
915.245	15329
915.358	15416
915.47	15332
915.583	15275
915.696	15447
915.809	15500
915.921	15397
916.034	15275
916.146	15241
916.259	15226
916.371	15252
916.483	15256
916.595	15142
916.708	15097
916.82	15237
916.932	15146
917.044	15112
917.156	15047
917.268	15017
917.38	15017
917.491	14906
917.603	14944
917.715	15020
917.826	15047
917.938	14963
918.049	14887
918.161	14918
918.272	15131
918.384	15039
918.495	14967
918.606	14788
918.717	14708
918.828	14788
918.939	14815
919.05	14640
919.161	14705
919.272	14492
919.383	14636
919.494	14731
919.604	14857
919.715	14693
919.826	14625
919.936	14773
920.047	14823
920.157	14678
920.267	14872
920.378	14746
920.488	14621
920.598	14872
920.708	15020
920.818	14842
920.928	14762
921.038	14979
921.148	14967
921.258	14697
921.368	14522
921.477	14431
921.587	14442
921.697	14259
921.806	14545
921.916	14317
922.025	14168
922.134	14164
922.244	13970
922.353	14092
922.462	13921
922.571	13928
922.68	13845
922.789	13822
922.898	13723
923.007	13643
923.116	13780
923.224	13674
923.333	13689
923.442	13609
923.55	13597
923.659	13613
923.767	13548
923.876	13540
923.984	13609
924.092	13377
924.201	13544
924.309	13365
924.417	13502
924.525	13362
924.633	13343
924.741	14214
924.849	13103
924.956	13293
925.064	13236
925.172	13072
925.279	13065
925.387	13114
925.494	13198
925.602	13274
925.709	13183
925.816	12958
925.924	13168
926.031	13160
926.138	13050
926.245	13126
926.352	13050
926.459	13198
926.566	13198
926.673	12973
926.779	12928
926.886	12924
926.993	12665
927.099	12700
927.206	12703
927.312	12608
927.419	12696
927.525	12662
927.631	12719
927.737	12563
927.843	12540
927.95	12410
928.056	12494
928.162	12517
928.267	12498
928.373	13202
928.479	12528
928.585	12384
928.69	12479
928.796	12471
928.901	12338
929.007	12304
929.112	12391
929.218	12285
929.323	12346
929.428	12273
929.533	12266
929.638	12163
929.743	12266
929.848	12235
929.953	12133
930.058	12114
930.163	11866
930.267	11965
930.372	12091
930.477	11859
930.581	12091
930.685	12003
930.79	11764
930.894	11794
930.998	11779
931.103	11870
931.207	11543
931.311	11433
931.415	11376
931.519	11212
931.623	11136
