Data from test_V78500241_3082.txt Node
Date: Fri Mar 25 16:03:09 CST 2022
User: usil
Spectrometer: V785-0024
Trigger mode: 0
Integration Time (sec): 4.000000E-1
Scans to average: 1
Nonlinearity correction enabled: false
Boxcar width: 0
Storing dark spectrum: false
XAxis mode: Wavelengths
Number of Pixels in Spectrum: 1024
>>>>>Begin Spectral Data<<<<<
801.071	28763
801.214	28873
801.356	28554
801.499	28470
801.641	28478
801.783	28470
801.926	28409
802.068	28538
802.211	28398
802.353	28310
802.496	28128
802.638	28185
802.78	28097
802.923	28006
803.065	28013
803.208	28048
803.35	28291
803.492	28344
803.635	28367
803.777	28257
803.919	28284
804.061	28634
804.204	28417
804.346	28257
804.488	28322
804.63	28421
804.773	28337
804.915	28424
805.057	28569
805.199	28204
805.341	28348
805.483	28519
805.626	28618
805.768	28474
805.91	28508
806.052	28565
806.194	28443
806.336	28812
806.478	28641
806.62	28634
806.762	28698
806.904	28930
807.046	28961
807.188	28965
807.33	29136
807.472	29079
807.614	28987
807.756	29060
807.898	28904
808.04	28778
808.182	28820
808.324	28839
808.465	28900
808.607	29143
808.749	29208
808.891	29337
809.033	29379
809.174	29242
809.316	29273
809.458	29246
809.6	29212
809.741	29292
809.883	29459
810.025	29543
810.166	29551
810.308	29444
810.45	29493
810.591	29379
810.733	29280
810.875	29124
811.016	29140
811.158	29216
811.299	29414
811.441	29471
811.582	29539
811.724	29044
811.865	29204
812.007	29284
812.148	29349
812.29	29353
812.431	29398
812.573	29604
812.714	29615
812.855	29855
812.997	29908
813.138	29942
813.279	29870
813.421	29786
813.562	29589
813.703	29493
813.845	29440
813.986	29220
814.127	29109
814.268	28942
814.41	29025
814.551	28930
814.692	29094
814.833	28946
814.974	29071
815.115	28839
815.256	28793
815.397	28740
815.539	28869
815.68	28869
815.821	28580
815.962	28942
816.103	28786
816.244	28664
816.385	28618
816.526	28626
816.666	28474
816.807	28196
816.948	28329
817.089	28424
817.23	28314
817.371	28200
817.512	28185
817.653	28181
817.793	28223
817.934	28192
818.075	28375
818.216	28181
818.356	28086
818.497	28253
818.638	28044
818.778	27991
818.919	27979
819.06	28078
819.2	28215
819.341	28265
819.481	28242
819.622	28478
819.762	28679
819.903	28451
820.043	28447
820.184	28390
820.324	28409
820.465	28569
820.605	28337
820.746	28447
820.886	28386
821.026	28348
821.167	28462
821.307	28535
821.447	28344
821.588	28112
821.728	28120
821.868	27865
822.008	27816
822.149	27736
822.289	27865
822.429	27504
822.569	27447
822.709	27500
822.849	27256
822.99	27245
823.13	27306
823.27	27116
823.41	27131
823.55	27119
823.69	26960
823.83	27127
823.97	27169
824.11	26910
824.25	26800
824.389	26937
824.529	27032
824.669	26990
824.809	27024
824.949	27043
825.089	26971
825.228	26963
825.368	26708
825.508	26800
825.648	26834
825.787	26819
825.927	26830
826.067	26746
826.206	26906
826.346	26792
826.485	26861
826.625	26872
826.765	26944
826.904	26845
827.044	26473
827.183	26651
827.323	26522
827.462	26492
827.601	26682
827.741	26514
827.88	26583
828.02	26450
828.159	26476
828.298	26716
828.437	26640
828.577	26476
828.716	26545
828.855	26434
828.994	26130
829.134	26317
829.273	26187
829.412	26111
829.551	26062
829.69	26202
829.829	26206
829.968	26252
830.107	26355
830.246	26244
830.385	26103
830.524	26145
830.663	26084
830.802	25940
830.941	25818
831.08	25742
831.219	25928
831.357	25909
831.496	26027
831.635	25723
831.774	25738
831.913	25712
832.051	25609
832.19	25639
832.329	25693
832.467	25647
832.606	25453
832.744	25381
832.883	25476
833.022	25449
833.16	25457
833.299	25601
833.437	25426
833.576	25696
833.714	25567
833.852	25575
833.991	25567
834.129	25689
834.267	25575
834.406	25472
834.544	25647
834.682	25529
834.821	25601
834.959	25742
835.097	25632
835.235	25651
835.373	25567
835.511	25552
835.65	25282
835.788	25460
835.926	25316
836.064	25206
836.202	25209
836.34	25407
836.478	25502
836.615	25350
836.753	25282
836.891	25430
837.029	25434
837.167	25331
837.305	25354
837.443	25141
837.58	25160
837.718	25190
837.856	25225
837.993	25103
838.131	25110
838.269	25183
838.406	25110
838.544	25027
838.681	24943
838.819	24871
838.956	24604
839.094	24677
839.231	24760
839.369	24837
839.506	25122
839.643	24909
839.781	24665
839.918	24692
840.055	24536
840.193	24616
840.33	24623
840.467	24631
840.604	24559
840.742	24924
840.879	24448
841.016	24448
841.153	24365
841.29	24833
841.427	24532
841.564	24593
841.701	24597
841.838	24384
841.975	24456
842.112	24350
842.249	24372
842.385	24292
842.522	24593
842.659	24311
842.796	24296
842.933	24334
843.069	24315
843.206	24330
843.343	24353
843.479	24285
843.616	24258
843.752	23992
843.889	24079
844.025	24289
844.162	24068
844.298	24213
844.435	24091
844.571	24117
844.708	24197
844.844	24213
844.98	24095
845.117	24197
845.253	24015
845.389	23912
845.525	24030
845.661	23904
845.798	23855
845.934	23916
846.07	23817
846.206	23718
846.342	23931
846.478	23771
846.614	23634
846.75	23520
846.886	23482
847.022	23581
847.158	23684
847.294	23547
847.429	23649
847.565	23573
847.701	23737
847.837	23330
847.972	23204
848.108	23414
848.244	23364
848.379	23151
848.515	23094
848.65	23269
848.786	23197
848.921	23235
849.057	23330
849.192	23261
849.328	23060
849.463	23155
849.598	23128
849.734	22934
849.869	22862
850.004	22877
850.14	22984
850.275	22858
850.41	22889
850.545	22942
850.68	22919
850.815	23018
850.95	22930
851.085	23083
851.22	22953
851.355	22923
851.49	22866
851.625	22881
851.76	22862
851.895	22790
852.03	22816
852.165	22999
852.299	22904
852.434	22961
852.569	22984
852.703	22877
852.838	22938
852.973	23022
853.107	23006
853.242	22824
853.376	22672
853.511	22573
853.645	22713
853.78	22675
853.914	22835
854.048	22691
854.183	22706
854.317	22752
854.451	22850
854.585	22889
854.72	22774
854.854	22828
854.988	22668
855.122	22702
855.256	22523
855.39	22748
855.524	22736
855.658	22748
855.792	22801
855.926	22717
856.06	22698
856.194	22911
856.327	22656
856.461	22710
856.595	22592
856.729	22763
856.862	22790
856.996	22740
857.13	22710
857.263	22961
857.397	22809
857.53	22653
857.664	22763
857.797	22866
857.931	22809
858.064	22869
858.197	22881
858.331	22588
858.464	22675
858.597	22611
858.731	22660
858.864	22679
858.997	22713
859.13	22729
859.263	22653
859.396	22885
859.529	22850
859.662	22615
859.795	22675
859.928	22729
860.061	22881
860.194	22881
860.327	22839
860.46	22755
860.592	22961
860.725	22881
860.858	22862
860.99	22691
861.123	22599
861.256	22611
861.388	22805
861.521	23292
861.653	22668
861.786	22557
861.918	22592
862.05	22664
862.183	22672
862.315	22729
862.447	22713
862.58	22694
862.712	22390
862.844	22405
862.976	22497
863.108	22470
863.24	22763
863.372	22344
863.504	22333
863.636	22356
863.768	22440
863.9	22466
864.032	22295
864.164	22417
864.296	22519
864.428	22348
864.559	22516
864.691	22588
864.823	22287
864.954	22386
865.086	22360
865.217	22424
865.349	22299
865.48	22386
865.612	22371
865.743	22424
865.875	22375
866.006	22219
866.137	22280
866.269	22249
866.4	22337
866.531	22230
866.662	22360
866.793	22204
866.924	22154
867.055	22173
867.186	22204
867.317	22306
867.448	22185
867.579	22253
867.71	22017
867.841	22246
867.972	22356
868.103	22158
868.233	22188
868.364	22287
868.495	22242
868.625	22405
868.756	22360
868.886	22329
869.017	22318
869.147	22740
869.278	22512
869.408	22493
869.539	22409
869.669	22527
869.799	22588
869.929	22637
870.06	22618
870.19	22763
870.32	22885
870.45	22763
870.58	22885
870.71	22908
870.84	22957
870.97	22771
871.1	22843
871.23	22892
871.36	23140
871.489	22942
871.619	23109
871.749	23147
871.879	23265
872.008	23239
872.138	23212
872.267	23052
872.397	23006
872.526	22866
872.656	23014
872.785	22858
872.915	23159
873.044	23208
873.173	23155
873.303	23102
873.432	23170
873.561	23170
873.69	23140
873.819	23048
873.948	23235
874.077	23178
874.206	23071
874.335	23113
874.464	23170
874.593	23421
874.722	23261
874.851	23345
874.979	23326
875.108	23269
875.237	23292
875.365	23075
875.494	23341
875.623	23455
875.751	23162
875.88	23223
876.008	23505
876.136	23509
876.265	23714
876.393	23855
876.521	23779
876.65	23752
876.778	23676
876.906	23668
877.034	23657
877.162	23596
877.29	23528
877.418	23672
877.546	23771
877.674	23611
877.802	23703
877.93	23577
878.058	23589
878.185	23520
878.313	23600
878.441	23665
878.568	23490
878.696	23600
878.824	23665
878.951	23589
879.079	23866
879.206	23866
879.333	23866
879.461	23707
879.588	23733
879.715	23741
879.842	23882
879.97	23608
880.097	23581
880.224	23429
880.351	23448
880.478	23482
880.605	23425
880.732	23459
880.859	23737
880.986	23444
881.112	23497
881.239	23208
881.366	23239
881.493	23083
881.619	22999
881.746	23105
881.872	23041
881.999	22919
882.125	23033
882.252	22961
882.378	22919
882.505	23132
882.631	22748
882.757	22698
882.883	22767
883.01	22603
883.136	22637
883.262	22687
883.388	22550
883.514	22634
883.64	22679
883.766	22603
883.892	22451
884.018	22478
884.143	22694
884.269	22656
884.395	22527
884.52	22322
884.646	22375
884.772	22265
884.897	22287
885.023	22299
885.148	22295
885.274	22459
885.399	22363
885.524	22325
885.65	22318
885.775	22341
885.9	22341
886.025	22497
886.15	22390
886.275	22280
886.4	22154
886.525	22310
886.65	22181
886.775	22276
886.9	22322
887.025	22455
887.149	22185
887.274	22105
887.399	21960
887.523	21968
887.648	21968
887.773	21998
887.897	22139
888.021	21994
888.146	22013
888.27	22158
888.395	22086
888.519	22090
888.643	22090
888.767	22169
888.891	21926
889.015	21953
889.139	21934
889.263	21800
889.387	21934
889.511	22040
889.635	21831
889.759	21778
889.883	21785
890.006	21842
890.13	21983
890.254	21808
890.377	21766
890.501	21660
890.624	21553
890.748	21694
890.871	21469
890.995	21428
891.118	21511
891.241	21443
891.364	21348
891.488	21458
891.611	21325
891.734	21340
891.857	21534
891.98	21412
892.103	21405
892.226	21397
892.349	21306
892.471	21180
892.594	21469
892.717	21458
892.839	21313
892.962	21291
893.085	21233
893.207	21291
893.33	21150
893.452	21340
893.575	21325
893.697	21275
893.819	21344
893.941	21485
894.064	21469
894.186	21291
894.308	21188
894.43	21348
894.552	21458
894.674	21260
894.796	21218
894.918	21279
895.04	21104
895.161	21386
895.283	21367
895.405	21207
895.526	21184
895.648	21264
895.769	21214
895.891	21386
896.012	21462
896.134	21256
896.255	21138
896.376	21192
896.498	21306
896.619	21294
896.74	21214
896.861	21298
896.982	21652
897.103	21545
897.224	21477
897.345	21549
897.466	21408
897.587	21397
897.708	21557
897.828	21591
897.949	21332
898.07	21412
898.19	21477
898.311	21439
898.431	21363
898.552	21477
898.672	21481
898.792	21671
898.913	21431
899.033	21416
899.153	21302
899.273	21214
899.393	21138
899.513	21195
899.633	21165
899.753	21123
899.873	21093
899.993	21214
900.113	20994
900.232	21161
900.352	21100
900.472	20986
900.591	20929
900.711	21024
900.83	20834
900.95	20986
901.069	21020
901.189	20838
901.308	20587
901.427	20575
901.546	20495
901.665	20389
901.784	20541
901.904	20355
902.023	20347
902.141	20077
902.26	20103
902.379	20084
902.498	19917
902.617	19944
902.735	20046
902.854	19982
902.973	19940
903.091	19696
903.21	19719
903.328	19613
903.446	19597
903.565	19556
903.683	19480
903.801	19358
903.919	19521
904.038	19365
904.156	19148
904.274	19381
904.392	19156
904.51	19259
904.627	19266
904.745	19228
904.863	19297
904.981	19012
905.098	18840
905.216	18821
905.334	18859
905.451	18890
905.569	18768
905.686	18848
905.803	18779
905.921	18654
906.038	18802
906.155	18722
906.272	18582
906.389	18521
906.506	18483
906.623	18414
906.74	18437
906.857	18277
906.974	18342
907.091	18407
907.208	18483
907.324	18460
907.441	18258
907.557	18190
907.674	18186
907.79	18129
907.907	18136
908.023	18155
908.139	18121
908.256	18034
908.372	17916
908.488	18007
908.604	17954
908.72	17779
908.836	17821
908.952	17733
909.068	17874
909.184	17927
909.3	17908
909.415	17866
909.531	17885
909.647	17611
909.762	17623
909.878	17440
909.993	17501
910.108	17573
910.224	17532
910.339	17592
910.454	17379
910.57	17334
910.685	17334
910.8	17596
910.915	17455
911.03	17296
911.145	17052
911.259	17143
911.374	17098
911.489	17014
911.604	17045
911.718	16831
911.833	16873
911.947	16717
912.062	16618
912.176	16938
912.291	16824
912.405	16847
912.519	17029
912.633	17086
912.748	16919
912.862	16831
912.976	16645
913.09	16550
913.204	16641
913.318	16702
913.431	16782
913.545	16774
913.659	16710
913.772	16573
913.886	16455
914	16390
914.113	16493
914.226	16535
914.34	16580
914.453	16325
914.566	16489
914.68	16417
914.793	16143
914.906	16124
915.019	16002
915.132	15926
915.245	16002
915.358	16090
915.47	16048
915.583	16048
915.696	16010
915.809	16032
915.921	16135
916.034	15979
916.146	15857
916.259	15907
916.371	15934
916.483	15953
916.595	15762
916.708	15781
916.82	15770
916.932	15827
917.044	15778
917.156	15759
917.268	15698
917.38	15705
917.491	15629
917.603	15705
917.715	15728
917.826	15800
917.938	15534
918.049	15500
918.161	15568
918.272	15736
918.384	15663
918.495	15561
918.606	15454
918.717	15374
918.828	15370
918.939	15344
919.05	15192
919.161	15264
919.272	15097
919.383	15222
919.494	15351
919.604	15507
919.715	15393
919.826	15283
919.936	15336
920.047	15351
920.157	15310
920.267	15492
920.378	15264
920.488	15363
920.598	15526
920.708	15663
920.818	15447
920.928	15450
921.038	15564
921.148	15447
921.258	15367
921.368	15180
921.477	15028
921.587	15062
921.697	14921
921.806	15081
921.916	14849
922.025	14811
922.134	14689
922.244	14625
922.353	14804
922.462	14621
922.571	14404
922.68	14282
922.789	14202
922.898	14393
923.007	14240
923.116	14301
923.224	14366
923.333	14229
923.442	14195
923.55	14145
923.659	14039
923.767	14221
923.876	14096
923.984	14168
924.092	14088
924.201	14088
924.309	13936
924.417	14020
924.525	14024
924.633	13925
924.741	14682
924.849	13772
924.956	13909
925.064	13731
925.172	13651
925.279	13677
925.387	13746
925.494	13731
925.602	13799
925.709	13761
925.816	13521
925.924	13575
926.031	13696
926.138	13651
926.245	13681
926.352	13537
926.459	13704
926.566	13632
926.673	13624
926.779	13441
926.886	13346
926.993	13293
927.099	13137
927.206	13164
927.312	13133
927.419	13221
927.525	13274
927.631	13312
927.737	13038
927.843	13084
927.95	12867
928.056	13072
928.162	13133
928.267	13168
928.373	13719
928.479	13114
928.585	12825
928.69	12867
928.796	13061
928.901	12840
929.007	12654
929.112	12844
929.218	12798
929.323	12859
929.428	12749
929.533	12798
929.638	12563
929.743	12662
929.848	12768
929.953	12707
930.058	12589
930.163	12376
930.267	12414
930.372	12551
930.477	12357
930.581	12563
930.685	12445
930.79	12266
930.894	12235
930.998	12289
931.103	12372
931.207	12007
931.311	11904
931.415	11847
931.519	11566
931.623	11680
