Data from test_V78500241_365.txt Node
Date: Fri Mar 25 15:44:19 CST 2022
User: usil
Spectrometer: V785-0024
Trigger mode: 0
Integration Time (sec): 4.000000E-1
Scans to average: 1
Nonlinearity correction enabled: false
Boxcar width: 0
Storing dark spectrum: false
XAxis mode: Wavelengths
Number of Pixels in Spectrum: 1024
>>>>>Begin Spectral Data<<<<<
801.071	29786
801.214	29809
801.356	29368
801.499	29547
801.641	29459
801.783	29486
801.926	29440
802.068	29345
802.211	29189
802.353	29322
802.496	29113
802.638	29216
802.78	29056
802.923	29006
803.065	28942
803.208	29200
803.35	29128
803.492	29375
803.635	29273
803.777	29094
803.919	29299
804.061	29691
804.204	29539
804.346	29277
804.488	29223
804.63	29189
804.773	29318
804.915	29375
805.057	29455
805.199	29337
805.341	29406
805.483	29444
805.626	29383
805.768	29372
805.91	29436
806.052	29379
806.194	29490
806.336	29615
806.478	29436
806.62	29383
806.762	29661
806.904	29882
807.046	30015
807.188	29942
807.33	29958
807.472	30068
807.614	29950
807.756	29771
807.898	29703
808.04	29794
808.182	29714
808.324	29878
808.465	29767
808.607	29969
808.749	30083
808.891	30243
809.033	30251
809.174	30224
809.316	30079
809.458	30167
809.6	30129
809.741	30311
809.883	30197
810.025	30372
810.166	30395
810.308	30395
810.45	30429
810.591	30281
810.733	30171
810.875	30186
811.016	30087
811.158	30049
811.299	30152
811.441	30353
811.582	30327
811.724	30232
811.865	30136
812.007	30083
812.148	30232
812.29	30041
812.431	30323
812.573	30429
812.714	30635
812.855	30608
812.997	30734
813.138	30886
813.279	30894
813.421	30707
813.562	30692
813.703	30441
813.845	30319
813.986	30079
814.127	29901
814.268	29859
814.41	29771
814.551	29805
814.692	29851
814.833	29752
814.974	29836
815.115	29866
815.256	29695
815.397	29642
815.539	29710
815.68	29695
815.821	29490
815.962	29615
816.103	29566
816.244	29505
816.385	29547
816.526	29311
816.666	29132
816.807	29041
816.948	29075
817.089	29086
817.23	29048
817.371	29018
817.512	29140
817.653	28968
817.793	28972
817.934	29105
818.075	29212
818.216	29162
818.356	28961
818.497	28908
818.638	28843
818.778	28771
818.919	28774
819.06	28885
819.2	28904
819.341	28995
819.481	29029
819.622	29136
819.762	29391
819.903	29220
820.043	29166
820.184	29273
820.324	29136
820.465	29109
820.605	29166
820.746	29235
820.886	29010
821.026	29025
821.167	29147
821.307	29121
821.447	29083
821.588	28957
821.728	28801
821.868	28630
822.008	28504
822.149	28356
822.289	28577
822.429	28242
822.569	28200
822.709	28105
822.849	27979
822.99	27934
823.13	27945
823.27	27785
823.41	27835
823.55	27679
823.69	27785
823.83	27865
823.97	27709
824.11	27610
824.25	27545
824.389	27477
824.529	27656
824.669	27629
824.809	27739
824.949	27728
825.089	27595
825.228	27660
825.368	27382
825.508	27439
825.648	27397
825.787	27458
825.927	27363
826.067	27454
826.206	27344
826.346	27530
826.485	27523
826.625	27599
826.765	27564
826.904	27545
827.044	27329
827.183	27332
827.323	27089
827.462	27123
827.601	27127
827.741	27058
827.88	27214
828.02	27017
828.159	27135
828.298	27081
828.437	27252
828.577	27123
828.716	27207
828.855	26975
828.994	26876
829.134	26910
829.273	26842
829.412	26788
829.551	26686
829.69	26864
829.829	26876
829.968	26986
830.107	26792
830.246	26773
830.385	26796
830.524	26670
830.663	26579
830.802	26549
830.941	26393
831.08	26488
831.219	26404
831.357	26465
831.496	26689
831.635	26358
831.774	26457
831.913	26218
832.051	26221
832.19	26073
832.329	26221
832.467	26058
832.606	26039
832.744	26069
832.883	26008
833.022	26035
833.16	25982
833.299	26062
833.437	26050
833.576	26130
833.714	26142
833.852	26069
833.991	26248
834.129	26100
834.267	26077
834.406	25959
834.544	25913
834.682	26012
834.821	26016
834.959	26187
835.097	25955
835.235	26096
835.373	26024
835.511	25986
835.65	25887
835.788	25917
835.926	25666
836.064	25746
836.202	25788
836.34	25890
836.478	25906
836.615	25742
836.753	25936
836.891	25898
837.029	25925
837.167	25670
837.305	25826
837.443	25791
837.58	25795
837.718	25685
837.856	25597
837.993	25639
838.131	25681
838.269	25567
838.406	25563
838.544	25510
838.681	25145
838.819	25324
838.956	25175
839.094	25107
839.231	25084
839.369	25301
839.506	25537
839.643	25206
839.781	25069
839.918	24916
840.055	25095
840.193	25057
840.33	24928
840.467	25072
840.604	25118
840.742	25209
840.879	24863
841.016	24901
841.153	24833
841.29	25004
841.427	24958
841.564	25027
841.701	24920
841.838	25114
841.975	24787
842.112	24814
842.249	24760
842.385	24738
842.522	25072
842.659	24681
842.796	24753
842.933	24658
843.069	24513
843.206	24604
843.343	24650
843.479	24711
843.616	24635
843.752	24471
843.889	24532
844.025	24601
844.162	24525
844.298	24505
844.435	24464
844.571	24418
844.708	24559
844.844	24585
844.98	24627
845.117	24376
845.253	24277
845.389	24273
845.525	24251
845.661	24319
845.798	24049
845.934	24186
846.07	24262
846.206	24254
846.342	24091
846.478	24178
846.614	23893
846.75	23767
846.886	23863
847.022	23931
847.158	23904
847.294	23935
847.429	23878
847.565	23840
847.701	23984
847.837	23539
847.972	23535
848.108	23680
848.244	23649
848.379	23414
848.515	23486
848.65	23360
848.786	23501
848.921	23486
849.057	23585
849.192	23611
849.328	23486
849.463	23391
849.598	23318
849.734	23235
849.869	23284
850.004	23185
850.14	23166
850.275	23246
850.41	22911
850.545	23098
850.68	23124
850.815	23239
850.95	23109
851.085	23307
851.22	23159
851.355	23178
851.49	23121
851.625	23117
851.76	23124
851.895	22987
852.03	23044
852.165	23109
852.299	23193
852.434	23239
852.569	23052
852.703	23117
852.838	23288
852.973	23197
853.107	23318
853.242	22869
853.376	22866
853.511	22824
853.645	22938
853.78	23098
853.914	22820
854.048	22938
854.183	22961
854.317	22900
854.451	22995
854.585	23010
854.72	22923
854.854	22991
854.988	22828
855.122	23033
855.256	22866
855.39	22942
855.524	23006
855.658	22961
855.792	22957
855.926	22999
856.06	23048
856.194	23029
856.327	22896
856.461	22896
856.595	22767
856.729	22869
856.862	23033
856.996	22965
857.13	22911
857.263	23109
857.397	22919
857.53	22896
857.664	23022
857.797	23193
857.931	23056
858.064	22987
858.197	22968
858.331	22938
858.464	22816
858.597	22786
858.731	22839
858.864	22965
858.997	22850
859.13	22866
859.263	22885
859.396	22946
859.529	22892
859.662	22869
859.795	22911
859.928	22801
860.061	23258
860.194	23166
860.327	22972
860.46	22942
860.592	22968
860.725	23098
860.858	22999
860.99	22904
861.123	22869
861.256	22858
861.388	22930
861.521	23372
861.653	22858
861.786	22710
861.918	22782
862.05	22729
862.183	22961
862.315	22858
862.447	22953
862.58	22873
862.712	22653
862.844	22649
862.976	22778
863.108	22637
863.24	22976
863.372	22649
863.504	22531
863.636	22725
863.768	22645
863.9	22660
864.032	22508
864.164	22527
864.296	22618
864.428	22675
864.559	22527
864.691	22698
864.823	22451
864.954	22550
865.086	22542
865.217	22451
865.349	22436
865.48	22386
865.612	22322
865.743	22538
865.875	22557
866.006	22443
866.137	22466
866.269	22557
866.4	22386
866.531	22295
866.662	22280
866.793	22371
866.924	22474
867.055	22538
867.186	22375
867.317	22421
867.448	22398
867.579	22322
867.71	22287
867.841	22185
867.972	22382
868.103	22242
868.233	22360
868.364	22432
868.495	22474
868.625	22596
868.756	22706
868.886	22550
869.017	22565
869.147	22675
869.278	22725
869.408	22637
869.539	22626
869.669	22694
869.799	22672
869.929	22653
870.06	22580
870.19	22968
870.32	22938
870.45	22805
870.58	23048
870.71	23151
870.84	23018
870.97	22968
871.1	22995
871.23	23212
871.36	23280
871.489	22946
871.619	23197
871.749	23220
871.879	23159
872.008	23174
872.138	23277
872.267	23098
872.397	23090
872.526	23060
872.656	23083
872.785	23056
872.915	23273
873.044	23220
873.173	23349
873.303	23220
873.432	23360
873.561	23345
873.69	23364
873.819	23254
873.948	23406
874.077	23208
874.206	23181
874.335	23379
874.464	23098
874.593	23383
874.722	23406
874.851	23463
874.979	23440
875.108	23414
875.237	23242
875.365	23429
875.494	23421
875.623	23448
875.751	23341
875.88	23509
876.008	23608
876.136	23634
876.265	23824
876.393	23859
876.521	23870
876.65	23878
876.778	23775
876.906	23646
877.034	23775
877.162	23638
877.29	23623
877.418	23798
877.546	23901
877.674	23863
877.802	23718
877.93	23809
878.058	23813
878.185	23592
878.313	23623
878.441	23809
878.568	23619
878.696	23627
878.824	23707
878.951	23843
879.079	23942
879.206	24087
879.333	23847
879.461	23786
879.588	23931
879.715	23832
879.842	24171
879.97	23851
880.097	23733
880.224	23528
880.351	23611
880.478	23524
880.605	23497
880.732	23707
880.859	23748
880.986	23596
881.112	23531
881.239	23436
881.366	23322
881.493	23200
881.619	23181
881.746	23094
881.872	23071
881.999	23033
882.125	23083
882.252	23136
882.378	23162
882.505	23193
882.631	23029
882.757	22824
882.883	22976
883.01	22957
883.136	22748
883.262	22660
883.388	22592
883.514	22820
883.64	22892
883.766	22679
883.892	22660
884.018	22683
884.143	22672
884.269	22740
884.395	22508
884.52	22474
884.646	22485
884.772	22413
884.897	22272
885.023	22398
885.148	22546
885.274	22516
885.399	22428
885.524	22447
885.65	22451
885.775	22398
885.9	22379
886.025	22557
886.15	22592
886.275	22356
886.4	22295
886.525	22478
886.65	22371
886.775	22280
886.9	22382
887.025	22736
887.149	22436
887.274	22116
887.399	22268
887.523	22135
887.648	22029
887.773	22188
887.897	22219
888.021	22238
888.146	22112
888.27	22238
888.395	22131
888.519	22234
888.643	22154
888.767	22196
888.891	22154
889.015	21892
889.139	22070
889.263	21968
889.387	22086
889.511	22169
889.635	22063
889.759	21915
889.883	21960
890.006	21911
890.13	22017
890.254	21808
890.377	21850
890.501	21732
890.624	21606
890.748	21606
890.871	21641
890.995	21511
891.118	21462
891.241	21530
891.364	21511
891.488	21557
891.611	21557
891.734	21530
891.857	21496
891.98	21492
892.103	21515
892.226	21485
892.349	21431
892.471	21252
892.594	21351
892.717	21481
892.839	21408
892.962	21306
893.085	21450
893.207	21416
893.33	21336
893.452	21306
893.575	21412
893.697	21359
893.819	21485
893.941	21424
894.064	21496
894.186	21272
894.308	21180
894.43	21416
894.552	21443
894.674	21355
894.796	21325
894.918	21389
895.04	21264
895.161	21393
895.283	21294
895.405	21211
895.526	21256
895.648	21405
895.769	21310
895.891	21393
896.012	21424
896.134	21443
896.255	21313
896.376	21344
896.498	21408
896.619	21424
896.74	21420
896.861	21386
896.982	21793
897.103	21743
897.224	21652
897.345	21481
897.466	21557
897.587	21599
897.708	21648
897.828	21595
897.949	21397
898.07	21332
898.19	21500
898.311	21743
898.431	21386
898.552	21500
898.672	21637
898.792	21679
898.913	21462
899.033	21408
899.153	21443
899.273	21142
899.393	21275
899.513	21439
899.633	21173
899.753	21310
899.873	21119
899.993	21230
900.113	21207
900.232	21192
900.352	21119
900.472	21081
900.591	20872
900.711	20998
900.83	20952
900.95	21123
901.069	21085
901.189	20823
901.308	20693
901.427	20609
901.546	20560
901.665	20606
901.784	20697
901.904	20499
902.023	20370
902.141	20176
902.26	20172
902.379	20168
902.498	19993
902.617	19967
902.735	20096
902.854	19940
902.973	20001
903.091	19753
903.21	19746
903.328	19852
903.446	19544
903.565	19514
903.683	19571
903.801	19422
903.919	19510
904.038	19487
904.156	19304
904.274	19373
904.392	19327
904.51	19335
904.627	19213
904.745	19228
904.863	19270
904.981	19129
905.098	18886
905.216	18951
905.334	18966
905.451	19027
905.569	18962
905.686	19038
905.803	18947
905.921	18741
906.038	18779
906.155	18654
906.272	18559
906.389	18673
906.506	18441
906.623	18479
906.74	18502
906.857	18384
906.974	18300
907.091	18506
907.208	18540
907.324	18456
907.441	18380
907.557	18148
907.674	18235
907.79	18125
907.907	18068
908.023	18121
908.139	18079
908.256	18136
908.372	18045
908.488	18015
908.604	17699
908.72	17840
908.836	17882
908.952	17786
909.068	17893
909.184	17961
909.3	17760
909.415	17836
909.531	17775
909.647	17539
909.762	17452
909.878	17459
909.993	17630
910.108	17490
910.224	17406
910.339	17303
910.454	17326
910.57	17402
910.685	17216
910.8	17516
910.915	17452
911.03	17284
911.145	17136
911.259	17041
911.374	17140
911.489	17003
911.604	16965
911.718	16672
911.833	16801
911.947	16679
912.062	16683
912.176	16759
912.291	16816
912.405	16892
912.519	16999
912.633	16995
912.748	16847
912.862	16843
912.976	16603
913.09	16440
913.204	16641
913.318	16550
913.431	16691
913.545	16573
913.659	16710
913.772	16481
913.886	16428
914	16329
914.113	16462
914.226	16478
914.34	16500
914.453	16386
914.566	16497
914.68	16200
914.793	16238
914.906	16162
915.019	15956
915.132	15998
915.245	15922
915.358	16036
915.47	15956
915.583	16044
915.696	16040
915.809	16040
915.921	16181
916.034	15895
916.146	15918
916.259	15876
916.371	15892
916.483	15861
916.595	15854
916.708	15797
916.82	15804
916.932	15759
917.044	15755
917.156	15793
917.268	15637
917.38	15652
917.491	15538
917.603	15618
917.715	15663
917.826	15679
917.938	15507
918.049	15477
918.161	15545
918.272	15660
918.384	15713
918.495	15538
918.606	15332
918.717	15386
918.828	15374
918.939	15348
919.05	15245
919.161	15298
919.272	15131
919.383	15176
919.494	15416
919.604	15523
919.715	15313
919.826	15138
919.936	15245
920.047	15351
920.157	15359
920.267	15401
920.378	15264
920.488	15184
920.598	15469
920.708	15515
920.818	15359
920.928	15378
921.038	15526
921.148	15492
921.258	15173
921.368	15020
921.477	15028
921.587	15062
921.697	14826
921.806	14979
921.916	14727
922.025	14701
922.134	14731
922.244	14610
922.353	14610
922.462	14484
922.571	14355
922.68	14271
922.789	14263
922.898	14229
923.007	14115
923.116	14332
923.224	14180
923.333	14256
923.442	14142
923.55	13993
923.659	14062
923.767	14077
923.876	13951
923.984	14043
924.092	13963
924.201	13951
924.309	13959
924.417	14016
924.525	13826
924.633	13818
924.741	14648
924.849	13609
924.956	13814
925.064	13651
925.172	13521
925.279	13696
925.387	13693
925.494	13609
925.602	13704
925.709	13647
925.816	13529
925.924	13537
926.031	13647
926.138	13567
926.245	13582
926.352	13460
926.459	13567
926.566	13639
926.673	13422
926.779	13343
926.886	13320
926.993	13160
927.099	13164
927.206	13126
927.312	13149
927.419	13175
927.525	13194
927.631	13225
927.737	12966
927.843	13008
927.95	12844
928.056	12958
928.162	12985
928.267	13027
928.373	13521
928.479	12962
928.585	12798
928.69	12943
928.796	12905
928.901	12810
929.007	12589
929.112	12932
929.218	12772
929.323	12654
929.428	12593
929.533	12806
929.638	12597
929.743	12658
929.848	12582
929.953	12616
930.058	12422
930.163	12285
930.267	12380
930.372	12479
930.477	12277
930.581	12494
930.685	12365
930.79	12190
930.894	12308
930.998	12194
931.103	12262
931.207	11965
931.311	11904
931.415	11752
931.519	11596
931.623	11516
