Data from test_V78500241_2419.txt Node
Date: Fri Mar 25 15:58:33 CST 2022
User: usil
Spectrometer: V785-0024
Trigger mode: 0
Integration Time (sec): 4.000000E-1
Scans to average: 1
Nonlinearity correction enabled: false
Boxcar width: 0
Storing dark spectrum: false
XAxis mode: Wavelengths
Number of Pixels in Spectrum: 1024
>>>>>Begin Spectral Data<<<<<
801.071	28847
801.214	28961
801.356	28478
801.499	28405
801.641	28466
801.783	28230
801.926	28405
802.068	28451
802.211	28413
802.353	28443
802.496	28086
802.638	28124
802.78	27960
802.923	27934
803.065	27979
803.208	28006
803.35	28070
803.492	28234
803.635	28310
803.777	28265
803.919	28325
804.061	28630
804.204	28379
804.346	28375
804.488	28230
804.63	28348
804.773	28363
804.915	28466
805.057	28432
805.199	28333
805.341	28424
805.483	28459
805.626	28584
805.768	28379
805.91	28436
806.052	28603
806.194	28462
806.336	28641
806.478	28569
806.62	28504
806.762	28694
806.904	28828
807.046	28995
807.188	29044
807.33	28927
807.472	28987
807.614	28892
807.756	28854
807.898	28835
808.04	28683
808.182	28854
808.324	28915
808.465	28862
808.607	28999
808.749	29151
808.891	29337
809.033	29303
809.174	29292
809.316	29147
809.458	29094
809.6	29185
809.741	29356
809.883	29459
810.025	29452
810.166	29444
810.308	29554
810.45	29455
810.591	29375
810.733	29166
810.875	29200
811.016	29010
811.158	29155
811.299	29398
811.441	29486
811.582	29455
811.724	29181
811.865	29109
812.007	29143
812.148	29334
812.29	29280
812.431	29490
812.573	29608
812.714	29608
812.855	29707
812.997	29760
813.138	29996
813.279	29961
813.421	29710
813.562	29707
813.703	29505
813.845	29501
813.986	29181
814.127	29140
814.268	28923
814.41	28915
814.551	28866
814.692	28976
814.833	28995
814.974	28980
815.115	28976
815.256	28858
815.397	28664
815.539	28862
815.68	28691
815.821	28706
815.962	28915
816.103	28759
816.244	28683
816.385	28687
816.526	28702
816.666	28299
816.807	28112
816.948	28287
817.089	28223
817.23	28169
817.371	28390
817.512	28341
817.653	28173
817.793	28169
817.934	28238
818.075	28287
818.216	28341
818.356	28405
818.497	28158
818.638	28063
818.778	28173
818.919	28162
819.06	28025
819.2	28143
819.341	28268
819.481	28196
819.622	28455
819.762	28557
819.903	28481
820.043	28535
820.184	28516
820.324	28382
820.465	28668
820.605	28394
820.746	28284
820.886	28405
821.026	28443
821.167	28322
821.307	28428
821.447	28230
821.588	28276
821.728	27983
821.868	27842
822.008	27690
822.149	27736
822.289	27766
822.429	27408
822.569	27477
822.709	27298
822.849	27405
822.99	27192
823.13	27192
823.27	27268
823.41	27001
823.55	26887
823.69	27062
823.83	27085
823.97	27062
824.11	26830
824.25	26792
824.389	26925
824.529	26921
824.669	26937
824.809	27055
824.949	26998
825.089	26845
825.228	26918
825.368	26887
825.508	26644
825.648	26845
825.787	26796
825.927	26899
826.067	26735
826.206	26899
826.346	26769
826.485	26845
826.625	26834
826.765	27005
826.904	26701
827.044	26621
827.183	26636
827.323	26442
827.462	26476
827.601	26408
827.741	26324
827.88	26537
828.02	26358
828.159	26473
828.298	26644
828.437	26530
828.577	26343
828.716	26575
828.855	26431
828.994	26233
829.134	26206
829.273	26172
829.412	26088
829.551	26126
829.69	26183
829.829	26240
829.968	26218
830.107	26336
830.246	26244
830.385	26039
830.524	26027
830.663	26016
830.802	25860
830.941	25651
831.08	25807
831.219	25959
831.357	25757
831.496	25997
831.635	25879
831.774	25746
831.913	25552
832.051	25613
832.19	25662
832.329	25689
832.467	25464
832.606	25438
832.744	25422
832.883	25502
833.022	25449
833.16	25616
833.299	25362
833.437	25411
833.576	25556
833.714	25635
833.852	25533
833.991	25651
834.129	25552
834.267	25544
834.406	25635
834.544	25537
834.682	25609
834.821	25506
834.959	25670
835.097	25392
835.235	25571
835.373	25495
835.511	25609
835.65	25282
835.788	25495
835.926	25187
836.064	25141
836.202	25213
836.34	25312
836.478	25445
836.615	25343
836.753	25449
836.891	25346
837.029	25354
837.167	25285
837.305	25285
837.443	25289
837.58	25137
837.718	25213
837.856	25129
837.993	25027
838.131	25050
838.269	25076
838.406	25183
838.544	24943
838.681	24916
838.819	24852
838.956	24684
839.094	24646
839.231	24604
839.369	24760
839.506	25027
839.643	24943
839.781	24661
839.918	24559
840.055	24589
840.193	24486
840.33	24517
840.467	24490
840.604	24631
840.742	24753
840.879	24353
841.016	24555
841.153	24426
841.29	24707
841.427	24490
841.564	24517
841.701	24467
841.838	24369
841.975	24319
842.112	24418
842.249	24372
842.385	24327
842.522	24422
842.659	24521
842.796	24315
842.933	24308
843.069	24308
843.206	24235
843.343	24254
843.479	24323
843.616	24262
843.752	23946
843.889	24102
844.025	24277
844.162	24163
844.298	24159
844.435	23996
844.571	24057
844.708	24144
844.844	24201
844.98	24209
845.117	24194
845.253	23961
845.389	23737
845.525	23988
845.661	23920
845.798	23809
845.934	23691
846.07	23710
846.206	23828
846.342	23901
846.478	23691
846.614	23615
846.75	23478
846.886	23562
847.022	23653
847.158	23512
847.294	23436
847.429	23543
847.565	23509
847.701	23802
847.837	23231
847.972	23239
848.108	23296
848.244	23193
848.379	23136
848.515	23041
848.65	23105
848.786	23056
848.921	23029
849.057	23261
849.192	23124
849.328	23151
849.463	22995
849.598	23113
849.734	22995
849.869	22862
850.004	22740
850.14	22911
850.275	22972
850.41	22752
850.545	22805
850.68	22763
850.815	22965
850.95	22946
851.085	23170
851.22	22911
851.355	22858
851.49	22793
851.625	22847
851.76	22900
851.895	22774
852.03	22786
852.165	22839
852.299	22892
852.434	22831
852.569	22965
852.703	22824
852.838	22839
852.973	22831
853.107	22987
853.242	22805
853.376	22664
853.511	22557
853.645	22679
853.78	22786
853.914	22793
854.048	22607
854.183	22653
854.317	22835
854.451	22866
854.585	22634
854.72	22561
854.854	22763
854.988	22691
855.122	22786
855.256	22626
855.39	22694
855.524	22672
855.658	22721
855.792	22649
855.926	22752
856.06	22702
856.194	22771
856.327	22694
856.461	22687
856.595	22763
856.729	22782
856.862	22763
856.996	22736
857.13	22713
857.263	22763
857.397	22748
857.53	22679
857.664	22592
857.797	22672
857.931	22839
858.064	22706
858.197	22831
858.331	22713
858.464	22573
858.597	22565
858.731	22820
858.864	22653
858.997	22512
859.13	22717
859.263	22683
859.396	22660
859.529	22706
859.662	22626
859.795	22706
859.928	22694
860.061	22801
860.194	22987
860.327	22744
860.46	22649
860.592	22763
860.725	22858
860.858	22831
860.99	22664
861.123	22679
861.256	22664
861.388	22569
861.521	23337
861.653	22550
861.786	22519
861.918	22474
862.05	22443
862.183	22516
862.315	22630
862.447	22664
862.58	22550
862.712	22333
862.844	22379
862.976	22432
863.108	22333
863.24	22793
863.372	22363
863.504	22394
863.636	22276
863.768	22459
863.9	22306
864.032	22261
864.164	22280
864.296	22344
864.428	22478
864.559	22443
864.691	22413
864.823	22337
864.954	22390
865.086	22291
865.217	22318
865.349	22246
865.48	22211
865.612	22265
865.743	22440
865.875	22226
866.006	22219
866.137	22272
866.269	22249
866.4	22211
866.531	22162
866.662	22204
866.793	22162
866.924	22215
867.055	22215
867.186	22082
867.317	22147
867.448	22086
867.579	22173
867.71	22101
867.841	22048
867.972	22211
868.103	22101
868.233	22177
868.364	22147
868.495	22265
868.625	22299
868.756	22455
868.886	22497
869.017	22512
869.147	22588
869.278	22592
869.408	22417
869.539	22333
869.669	22512
869.799	22542
869.929	22565
870.06	22478
870.19	22816
870.32	22725
870.45	22858
870.58	22649
870.71	23003
870.84	22797
870.97	22694
871.1	22862
871.23	22999
871.36	23067
871.489	22869
871.619	22930
871.749	23029
871.879	23113
872.008	23261
872.138	23102
872.267	23071
872.397	22915
872.526	22793
872.656	22740
872.785	22774
872.915	23052
873.044	23105
873.173	23174
873.303	23098
873.432	23037
873.561	23143
873.69	23140
873.819	23136
873.948	23094
874.077	23064
874.206	22961
874.335	23208
874.464	23181
874.593	23200
874.722	23136
874.851	23254
874.979	23239
875.108	23239
875.237	23250
875.365	23090
875.494	23193
875.623	23345
875.751	23227
875.88	23250
876.008	23353
876.136	23444
876.265	23528
876.393	23878
876.521	23638
876.65	23695
876.778	23627
876.906	23547
877.034	23554
877.162	23600
877.29	23577
877.418	23653
877.546	23649
877.674	23627
877.802	23535
877.93	23512
878.058	23379
878.185	23471
878.313	23459
878.441	23562
878.568	23307
878.696	23471
878.824	23573
878.951	23695
879.079	23745
879.206	23942
879.333	23691
879.461	23714
879.588	23623
879.715	23684
879.842	23920
879.97	23718
880.097	23353
880.224	23433
880.351	23376
880.478	23402
880.605	23349
880.732	23474
880.859	23630
880.986	23486
881.112	23345
881.239	23322
881.366	23105
881.493	23029
881.619	23033
881.746	22965
881.872	22980
881.999	22873
882.125	22908
882.252	22976
882.378	22946
882.505	23029
882.631	22702
882.757	22618
882.883	22767
883.01	22660
883.136	22675
883.262	22421
883.388	22596
883.514	22565
883.64	22588
883.766	22497
883.892	22360
884.018	22459
884.143	22531
884.269	22592
884.395	22360
884.52	22268
884.646	22371
884.772	22276
884.897	22234
885.023	22310
885.148	22276
885.274	22512
885.399	22398
885.524	22139
885.65	22314
885.775	22299
885.9	22280
886.025	22325
886.15	22485
886.275	22249
886.4	22192
886.525	22314
886.65	22207
886.775	22067
886.9	22390
887.025	22421
887.149	22272
887.274	22032
887.399	22090
887.523	22017
887.648	21926
887.773	21903
887.897	22090
888.021	21998
888.146	21949
888.27	22234
888.395	22105
888.519	21972
888.643	21922
888.767	22021
888.891	21915
889.015	21819
889.139	22017
889.263	21778
889.387	21945
889.511	22040
889.635	21991
889.759	21720
889.883	21797
890.006	21686
890.13	21865
890.254	21819
890.377	21861
890.501	21587
890.624	21564
890.748	21633
890.871	21473
890.995	21405
891.118	21214
891.241	21275
891.364	21370
891.488	21420
891.611	21397
891.734	21431
891.857	21492
891.98	21408
892.103	21469
892.226	21393
892.349	21332
892.471	21131
892.594	21363
892.717	21275
892.839	21188
892.962	21325
893.085	21241
893.207	21218
893.33	21195
893.452	21188
893.575	21355
893.697	21214
893.819	21374
893.941	21469
894.064	21466
894.186	21062
894.308	21085
894.43	21329
894.552	21386
894.674	21332
894.796	21135
894.918	21150
895.04	21165
895.161	21241
895.283	21214
895.405	21116
895.526	21214
895.648	21165
895.769	21211
895.891	21214
896.012	21230
896.134	21165
896.255	21173
896.376	21237
896.498	21214
896.619	21256
896.74	21260
896.861	21439
896.982	21439
897.103	21603
897.224	21454
897.345	21408
897.466	21389
897.587	21473
897.708	21652
897.828	21466
897.949	21317
898.07	21119
898.19	21332
898.311	21473
898.431	21310
898.552	21481
898.672	21416
898.792	21420
898.913	21351
899.033	21272
899.153	21135
899.273	21017
899.393	21176
899.513	21237
899.633	21233
899.753	21116
899.873	21138
899.993	21256
900.113	20967
900.232	21127
900.352	20994
900.472	20880
900.591	20876
900.711	20937
900.83	20880
900.95	20986
901.069	20986
901.189	20743
901.308	20609
901.427	20549
901.546	20533
901.665	20469
901.784	20537
901.904	20206
902.023	20206
902.141	20096
902.26	20065
902.379	20084
902.498	19940
902.617	19921
902.735	19963
902.854	20016
902.973	19940
903.091	19628
903.21	19685
903.328	19696
903.446	19578
903.565	19495
903.683	19354
903.801	19384
903.919	19483
904.038	19472
904.156	19259
904.274	19282
904.392	19126
904.51	19179
904.627	19183
904.745	19179
904.863	19175
904.981	18989
905.098	18913
905.216	18802
905.334	18821
905.451	18878
905.569	18806
905.686	18875
905.803	18913
905.921	18601
906.038	18722
906.155	18692
906.272	18456
906.389	18521
906.506	18391
906.623	18289
906.74	18452
906.857	18178
906.974	18319
907.091	18372
907.208	18490
907.324	18422
907.441	18251
907.557	18285
907.674	18045
907.79	17988
907.907	18076
908.023	18098
908.139	18083
908.256	18053
908.372	17977
908.488	17965
908.604	17832
908.72	17836
908.836	17866
908.952	17805
909.068	17786
909.184	17870
909.3	17741
909.415	17783
909.531	17729
909.647	17608
909.762	17505
909.878	17528
909.993	17478
910.108	17573
910.224	17387
910.339	17452
910.454	17326
910.57	17223
910.685	17299
910.8	17406
910.915	17360
911.03	17227
911.145	17102
911.259	17003
911.374	17022
911.489	17018
911.604	17056
911.718	16805
911.833	16843
911.947	16641
912.062	16630
912.176	16889
912.291	16843
912.405	16778
912.519	17052
912.633	16999
912.748	16752
912.862	16824
912.976	16668
913.09	16516
913.204	16649
913.318	16596
913.431	16721
913.545	16694
913.659	16733
913.772	16542
913.886	16466
914	16413
914.113	16531
914.226	16466
914.34	16417
914.453	16409
914.566	16417
914.68	16398
914.793	16303
914.906	16105
915.019	16048
915.132	15911
915.245	15953
915.358	15915
915.47	15991
915.583	15915
915.696	16044
915.809	16082
915.921	16128
916.034	15941
916.146	15876
916.259	15850
916.371	15899
916.483	15907
916.595	15762
916.708	15797
916.82	15827
916.932	15694
917.044	15637
917.156	15660
917.268	15595
917.38	15553
917.491	15545
917.603	15614
917.715	15743
917.826	15671
917.938	15397
918.049	15519
918.161	15530
918.272	15797
918.384	15644
918.495	15519
918.606	15313
918.717	15279
918.828	15389
918.939	15431
919.05	15237
919.161	15332
919.272	15066
919.383	15184
919.494	15367
919.604	15553
919.715	15325
919.826	15161
919.936	15252
920.047	15264
920.157	15348
920.267	15401
920.378	15386
920.488	15264
920.598	15393
920.708	15591
920.818	15382
920.928	15321
921.038	15553
921.148	15492
921.258	15237
921.368	15085
921.477	15013
921.587	15005
921.697	14906
921.806	14876
921.916	14902
922.025	14686
922.134	14617
922.244	14636
922.353	14701
922.462	14583
922.571	14533
922.68	14286
922.789	14286
922.898	14305
923.007	14107
923.116	14347
923.224	14278
923.333	14191
923.442	14168
923.55	14111
923.659	14092
923.767	14123
923.876	14016
923.984	14206
924.092	13913
924.201	13951
924.309	13955
924.417	14016
924.525	13925
924.633	13936
924.741	14610
924.849	13693
924.956	13906
925.064	13765
925.172	13616
925.279	13696
925.387	13662
925.494	13601
925.602	13757
925.709	13708
925.816	13582
925.924	13708
926.031	13674
926.138	13609
926.245	13533
926.352	13483
926.459	13597
926.566	13613
926.673	13502
926.779	13457
926.886	13308
926.993	13266
927.099	13164
927.206	13171
927.312	13149
927.419	13247
927.525	13240
927.631	13221
927.737	13042
927.843	13103
927.95	12909
928.056	13000
928.162	12996
928.267	13019
928.373	13719
928.479	13114
928.585	12867
928.69	12932
928.796	12935
928.901	12909
929.007	12700
929.112	12878
929.218	12844
929.323	12783
929.428	12722
929.533	12837
929.638	12662
929.743	12627
929.848	12730
929.953	12719
930.058	12623
930.163	12452
930.267	12410
930.372	12486
930.477	12365
930.581	12483
930.685	12372
930.79	12338
930.894	12232
930.998	12277
931.103	12380
931.207	12003
931.311	11946
931.415	11798
931.519	11611
931.623	11577
