Data from test_V78500241_984.txt Node
Date: Fri Mar 25 15:48:37 CST 2022
User: usil
Spectrometer: V785-0024
Trigger mode: 0
Integration Time (sec): 4.000000E-1
Scans to average: 1
Nonlinearity correction enabled: false
Boxcar width: 0
Storing dark spectrum: false
XAxis mode: Wavelengths
Number of Pixels in Spectrum: 1024
>>>>>Begin Spectral Data<<<<<
801.071	28462
801.214	28417
801.356	28230
801.499	28097
801.641	28025
801.783	28074
801.926	28177
802.068	28128
802.211	28048
802.353	27937
802.496	27831
802.638	27728
802.78	27816
802.923	27762
803.065	27724
803.208	27751
803.35	27679
803.492	27835
803.635	27930
803.777	27827
803.919	27857
804.061	28272
804.204	28070
804.346	28074
804.488	27922
804.63	27914
804.773	27816
804.915	27945
805.057	28097
805.199	27895
805.341	28067
805.483	28169
805.626	28207
805.768	27975
805.91	28147
806.052	28017
806.194	28230
806.336	28318
806.478	28143
806.62	28166
806.762	28352
806.904	28455
807.046	28569
807.188	28592
807.33	28618
807.472	28740
807.614	28592
807.756	28500
807.898	28489
808.04	28413
808.182	28409
808.324	28542
808.465	28577
808.607	28660
808.749	28793
808.891	28858
809.033	28980
809.174	28923
809.316	28771
809.458	28786
809.6	28710
809.741	28820
809.883	28968
810.025	29113
810.166	29147
810.308	29025
810.45	29242
810.591	28965
810.733	28869
810.875	28869
811.016	28835
811.158	28694
811.299	28881
811.441	28934
811.582	28839
811.724	28866
811.865	28755
812.007	28778
812.148	28748
812.29	28957
812.431	29064
812.573	29014
812.714	29200
812.855	29315
812.997	29471
813.138	29566
813.279	29577
813.421	29402
813.562	29353
813.703	29071
813.845	29052
813.986	28953
814.127	28683
814.268	28508
814.41	28694
814.551	28512
814.692	28721
814.833	28470
814.974	28523
815.115	28516
815.256	28493
815.397	28451
815.539	28436
815.68	28246
815.821	28390
815.962	28462
816.103	28306
816.244	28188
816.385	28135
816.526	28158
816.666	27949
816.807	27732
816.948	27895
817.089	28082
817.23	27743
817.371	27812
817.512	27774
817.653	27964
817.793	27892
817.934	27914
818.075	27949
818.216	27835
818.356	27800
818.497	27720
818.638	27564
818.778	27698
818.919	27743
819.06	27797
819.2	27861
819.341	27804
819.481	27926
819.622	28051
819.762	28112
819.903	28112
820.043	28120
820.184	28219
820.324	27930
820.465	28211
820.605	28051
820.746	27907
820.886	27686
821.026	27991
821.167	27941
821.307	27956
821.447	27926
821.588	27739
821.728	27625
821.868	27435
822.008	27332
822.149	27306
822.289	27291
822.429	27142
822.569	26998
822.709	27036
822.849	26864
822.99	26842
823.13	26864
823.27	26823
823.41	26579
823.55	26613
823.69	26613
823.83	26682
823.97	26648
824.11	26332
824.25	26408
824.389	26514
824.529	26575
824.669	26492
824.809	26613
824.949	26594
825.089	26682
825.228	26583
825.368	26290
825.508	26313
825.648	26404
825.787	26389
825.927	26438
826.067	26290
826.206	26408
826.346	26419
826.485	26419
826.625	26446
826.765	26480
826.904	26412
827.044	26195
827.183	26031
827.323	25986
827.462	26050
827.601	26115
827.741	26001
827.88	26073
828.02	26046
828.159	26096
828.298	26058
828.437	26145
828.577	25966
828.716	26050
828.855	26084
828.994	25921
829.134	25814
829.273	25826
829.412	25742
829.551	25681
829.69	25811
829.829	25727
829.968	25856
830.107	25753
830.246	25738
830.385	25822
830.524	25643
830.663	25578
830.802	25616
830.941	25453
831.08	25362
831.219	25506
831.357	25556
831.496	25586
831.635	25301
831.774	25350
831.913	25278
832.051	25137
832.19	25247
832.329	25088
832.467	25103
832.606	24905
832.744	24954
832.883	24966
833.022	24901
833.16	25137
833.299	25168
833.437	25156
833.576	25069
833.714	24958
833.852	25255
833.991	25122
834.129	25152
834.267	25183
834.406	25141
834.544	25206
834.682	25141
834.821	24977
834.959	25187
835.097	24966
835.235	25171
835.373	25145
835.511	25015
835.65	24962
835.788	24920
835.926	24890
836.064	24749
836.202	24829
836.34	24939
836.478	25031
836.615	24867
836.753	24943
836.891	25053
837.029	24992
837.167	24894
837.305	24973
837.443	24741
837.58	24791
837.718	24806
837.856	24730
837.993	24627
838.131	24753
838.269	24688
838.406	24696
838.544	24593
838.681	24395
838.819	24369
838.956	24235
839.094	24281
839.231	24330
839.369	24292
839.506	24646
839.643	24467
839.781	24243
839.918	24186
840.055	24152
840.193	24220
840.33	24228
840.467	24121
840.604	24232
840.742	24448
840.879	23999
841.016	24102
841.153	24087
841.29	24281
841.427	24197
841.564	24133
841.701	24060
841.838	24095
841.975	24064
842.112	24136
842.249	24057
842.385	23965
842.522	24163
842.659	23840
842.796	23851
842.933	23874
843.069	23726
843.206	23733
843.343	23874
843.479	23866
843.616	23843
843.752	23737
843.889	23745
844.025	23821
844.162	23600
844.298	23726
844.435	23695
844.571	23722
844.708	23802
844.844	23840
844.98	23748
845.117	23824
845.253	23733
845.389	23490
845.525	23520
845.661	23592
845.798	23280
845.934	23376
846.07	23459
846.206	23391
846.342	23455
846.478	23471
846.614	23193
846.75	22961
846.886	23197
847.022	23239
847.158	23056
847.294	23094
847.429	23064
847.565	23044
847.701	23315
847.837	22816
847.972	22790
848.108	22908
848.244	22877
848.379	22740
848.515	22740
848.65	22630
848.786	22706
848.921	22759
849.057	22809
849.192	22820
849.328	22725
849.463	22687
849.598	22771
849.734	22447
849.869	22402
850.004	22535
850.14	22504
850.275	22459
850.41	22322
850.545	22432
850.68	22375
850.815	22500
850.95	22557
851.085	22611
851.22	22649
851.355	22367
851.49	22436
851.625	22592
851.76	22375
851.895	22470
852.03	22413
852.165	22417
852.299	22443
852.434	22493
852.569	22451
852.703	22432
852.838	22592
852.973	22546
853.107	22523
853.242	22459
853.376	22291
853.511	22287
853.645	22295
853.78	22318
853.914	22329
854.048	22261
854.183	22291
854.317	22280
854.451	22481
854.585	22219
854.72	22382
854.854	22341
854.988	22173
855.122	22207
855.256	22188
855.39	22306
855.524	22268
855.658	22253
855.792	22424
855.926	22329
856.06	22261
856.194	22314
856.327	22207
856.461	22135
856.595	22192
856.729	22284
856.862	22394
856.996	22238
857.13	22314
857.263	22318
857.397	22382
857.53	22306
857.664	22386
857.797	22234
857.931	22360
858.064	22485
858.197	22428
858.331	22272
858.464	22120
858.597	22154
858.731	22303
858.864	22192
858.997	22200
859.13	22314
859.263	22211
859.396	22440
859.529	22280
859.662	22200
859.795	22211
859.928	22265
860.061	22371
860.194	22447
860.327	22291
860.46	22344
860.592	22428
860.725	22382
860.858	22402
860.99	22459
861.123	22284
861.256	22204
861.388	22303
861.521	22881
861.653	22135
861.786	22067
861.918	22124
862.05	22067
862.183	22242
862.315	22154
862.447	22287
862.58	22200
862.712	21994
862.844	21911
862.976	22082
863.108	22025
863.24	22310
863.372	21918
863.504	21994
863.636	21930
863.768	22006
863.9	21953
864.032	21857
864.164	21915
864.296	22040
864.428	22196
864.559	22177
864.691	21899
864.823	21991
864.954	22002
865.086	21922
865.217	22013
865.349	21857
865.48	21865
865.612	21800
865.743	22044
865.875	21907
866.006	21869
866.137	21831
866.269	21724
866.4	21808
866.531	21736
866.662	21770
866.793	21850
866.924	21831
867.055	21759
867.186	21766
867.317	21641
867.448	21671
867.579	21682
867.71	21717
867.841	21717
867.972	21785
868.103	21720
868.233	21846
868.364	21778
868.495	21789
868.625	21987
868.756	22166
868.886	21949
869.017	22017
869.147	22139
869.278	22166
869.408	22116
869.539	21972
869.669	22131
869.799	22124
869.929	22207
870.06	22207
870.19	22432
870.32	22344
870.45	22443
870.58	22386
870.71	22580
870.84	22615
870.97	22535
871.1	22459
871.23	22656
871.36	22618
871.489	22596
871.619	22424
871.749	22436
871.879	22580
872.008	22774
872.138	22527
872.267	22664
872.397	22459
872.526	22299
872.656	22512
872.785	22607
872.915	22622
873.044	22622
873.173	22675
873.303	22752
873.432	22771
873.561	22740
873.69	22611
873.819	22733
873.948	22710
874.077	22607
874.206	22565
874.335	22733
874.464	22748
874.593	22801
874.722	22812
874.851	22774
874.979	22866
875.108	22850
875.237	22915
875.365	22839
875.494	22816
875.623	22999
875.751	22953
875.88	22847
876.008	22961
876.136	23033
876.265	23200
876.393	23372
876.521	23341
876.65	23239
876.778	23109
876.906	23143
877.034	23246
877.162	23181
877.29	23102
877.418	23216
877.546	23200
877.674	23128
877.802	23105
877.93	23147
878.058	23193
878.185	22961
878.313	23075
878.441	23170
878.568	23022
878.696	23216
878.824	23212
878.951	23277
879.079	23284
879.206	23615
879.333	23379
879.461	23284
879.588	23391
879.715	23353
879.842	23566
879.97	23296
880.097	23018
880.224	22987
880.351	23064
880.478	22930
880.605	23029
880.732	22991
880.859	23166
880.986	23048
881.112	23128
881.239	22942
881.366	22755
881.493	22660
881.619	22516
881.746	22679
881.872	22592
881.999	22512
882.125	22622
882.252	22500
882.378	22512
882.505	22740
882.631	22413
882.757	22352
882.883	22421
883.01	22192
883.136	22215
883.262	22200
883.388	22082
883.514	22246
883.64	22375
883.766	22162
883.892	22090
884.018	22097
884.143	22166
884.269	22204
884.395	22032
884.52	21831
884.646	21770
884.772	21926
884.897	21736
885.023	21960
885.148	22025
885.274	21994
885.399	21934
885.524	21781
885.65	21850
885.775	21930
885.9	21865
886.025	22029
886.15	22070
886.275	21755
886.4	21800
886.525	21785
886.65	21823
886.775	21873
886.9	22025
887.025	22078
887.149	21953
887.274	21713
887.399	21641
887.523	21652
887.648	21713
887.773	21648
887.897	21736
888.021	21637
888.146	21641
888.27	21694
888.395	21637
888.519	21751
888.643	21675
888.767	21671
888.891	21576
889.015	21439
889.139	21553
889.263	21389
889.387	21526
889.511	21709
889.635	21504
889.759	21534
889.883	21462
890.006	21454
890.13	21523
890.254	21302
890.377	21389
890.501	21264
890.624	21096
890.748	21096
890.871	21119
890.995	20811
891.118	20925
891.241	20952
891.364	21032
891.488	21123
891.611	21066
891.734	20994
891.857	21047
891.98	20994
892.103	20963
892.226	20944
892.349	20941
892.471	20674
892.594	20811
892.717	20971
892.839	20906
892.962	20937
893.085	21013
893.207	20872
893.33	20777
893.452	20819
893.575	21009
893.697	20811
893.819	21032
893.941	21055
894.064	21039
894.186	20864
894.308	20811
894.43	20944
894.552	21005
894.674	20979
894.796	20876
894.918	20880
895.04	20788
895.161	21017
895.283	21005
895.405	20887
895.526	20902
895.648	20743
895.769	20933
895.891	20838
896.012	20933
896.134	20895
896.255	20921
896.376	20819
896.498	20830
896.619	20750
896.74	21051
896.861	20876
896.982	21176
897.103	21374
897.224	21146
897.345	21093
897.466	21081
897.587	20998
897.708	21279
897.828	21062
897.949	21036
898.07	21032
898.19	20952
898.311	21302
898.431	21051
898.552	21062
898.672	21066
898.792	21188
898.913	21131
899.033	20937
899.153	20967
899.273	20785
899.393	20785
899.513	20876
899.633	20830
899.753	20861
899.873	20796
899.993	20895
900.113	20739
900.232	20826
900.352	20724
900.472	20571
900.591	20537
900.711	20579
900.83	20545
900.95	20754
901.069	20678
901.189	20404
901.308	20298
901.427	20229
901.546	20115
901.665	20164
901.784	20130
901.904	20020
902.023	19932
902.141	19674
902.26	19681
902.379	19761
902.498	19628
902.617	19658
902.735	19632
902.854	19567
902.973	19628
903.091	19343
903.21	19426
903.328	19358
903.446	19324
903.565	19187
903.683	19038
903.801	19110
903.919	19004
904.038	18981
904.156	18924
904.274	18928
904.392	18821
904.51	18875
904.627	18894
904.745	18958
904.863	18913
904.981	18726
905.098	18597
905.216	18616
905.334	18551
905.451	18578
905.569	18536
905.686	18578
905.803	18566
905.921	18300
906.038	18361
906.155	18308
906.272	18235
906.389	18220
906.506	18117
906.623	18125
906.74	18121
906.857	17927
906.974	18098
907.091	18083
907.208	18205
907.324	18159
907.441	18030
907.557	17794
907.674	17764
907.79	17714
907.907	17699
908.023	17779
908.139	17665
908.256	17672
908.372	17722
908.488	17680
908.604	17566
908.72	17417
908.836	17573
908.952	17627
909.068	17558
909.184	17592
909.3	17551
909.415	17429
909.531	17551
909.647	17318
909.762	17235
909.878	17159
909.993	17197
910.108	17185
910.224	17204
910.339	17067
910.454	17003
910.57	16946
910.685	16908
910.8	17136
910.915	17109
911.03	16949
911.145	16892
911.259	16831
911.374	16656
911.489	16660
911.604	16744
911.718	16561
911.833	16497
911.947	16466
912.062	16443
912.176	16694
912.291	16558
912.405	16508
912.519	16706
912.633	16771
912.748	16485
912.862	16481
912.976	16405
913.09	16257
913.204	16303
913.318	16390
913.431	16405
913.545	16421
913.659	16459
913.772	16375
913.886	16105
914	16128
914.113	16207
914.226	16185
914.34	16158
914.453	15968
914.566	16135
914.68	15941
914.793	15968
914.906	15812
915.019	15747
915.132	15743
915.245	15732
915.358	15770
915.47	15686
915.583	15705
915.696	15800
915.809	15918
915.921	15842
916.034	15603
916.146	15488
916.259	15572
916.371	15720
916.483	15648
916.595	15504
916.708	15572
916.82	15519
916.932	15454
917.044	15481
917.156	15393
917.268	15230
917.38	15359
917.491	15313
917.603	15401
917.715	15325
917.826	15374
917.938	15359
918.049	15184
918.161	15245
918.272	15355
918.384	15382
918.495	15222
918.606	15100
918.717	14963
918.828	15123
918.939	15188
919.05	15039
919.161	15039
919.272	14823
919.383	15009
919.494	15119
919.604	15203
919.715	15058
919.826	14994
919.936	15024
920.047	15036
920.157	15116
920.267	15146
920.378	15085
920.488	14998
920.598	15150
920.708	15382
920.818	15173
920.928	15249
921.038	15302
921.148	15199
921.258	14982
921.368	14933
921.477	14765
921.587	14724
921.697	14659
921.806	14781
921.916	14724
922.025	14412
922.134	14450
922.244	14343
922.353	14533
922.462	14218
922.571	14153
922.68	14115
922.789	14016
922.898	14031
923.007	14012
923.116	13989
923.224	14077
923.333	14016
923.442	13898
923.55	13917
923.659	13822
923.767	13925
923.876	13879
923.984	13902
924.092	13788
924.201	13791
924.309	13788
924.417	13753
924.525	13689
924.633	13666
924.741	14587
924.849	13601
924.956	13590
925.064	13453
925.172	13415
925.279	13495
925.387	13445
925.494	13373
925.602	13556
925.709	13453
925.816	13285
925.924	13483
926.031	13365
926.138	13350
926.245	13491
926.352	13274
926.459	13419
926.566	13392
926.673	13209
926.779	13118
926.886	13141
926.993	13088
927.099	12970
927.206	12890
927.312	12916
927.419	12943
927.525	12840
927.631	13023
927.737	12897
927.843	12882
927.95	12639
928.056	12707
928.162	12833
928.267	12848
928.373	13282
928.479	12920
928.585	12578
928.69	12707
928.796	12726
928.901	12658
929.007	12445
929.112	12642
929.218	12566
929.323	12566
929.428	12506
929.533	12566
929.638	12414
929.743	12452
929.848	12589
929.953	12410
930.058	12346
930.163	12144
930.267	12171
930.372	12315
930.477	12125
930.581	12391
930.685	12125
930.79	12022
930.894	12079
930.998	12091
931.103	12171
931.207	11809
931.311	11672
931.415	11665
931.519	11535
931.623	11395
