Data from test_V78500241_1713.txt Node
Date: Fri Mar 25 15:53:40 CST 2022
User: usil
Spectrometer: V785-0024
Trigger mode: 0
Integration Time (sec): 4.000000E-1
Scans to average: 1
Nonlinearity correction enabled: false
Boxcar width: 0
Storing dark spectrum: false
XAxis mode: Wavelengths
Number of Pixels in Spectrum: 1024
>>>>>Begin Spectral Data<<<<<
801.071	28215
801.214	28226
801.356	27945
801.499	27926
801.641	27934
801.783	27713
801.926	27846
802.068	27854
802.211	27835
802.353	27644
802.496	27545
802.638	27450
802.78	27515
802.923	27454
803.065	27401
803.208	27443
803.35	27572
803.492	27671
803.635	27701
803.777	27633
803.919	27622
804.061	28048
804.204	27797
804.346	27793
804.488	27717
804.63	27865
804.773	27713
804.915	27724
805.057	27831
805.199	27648
805.341	27960
805.483	27914
805.626	27797
805.768	27766
805.91	27914
806.052	27804
806.194	27751
806.336	27899
806.478	27850
806.62	27956
806.762	28097
806.904	28230
807.046	28306
807.188	28215
807.33	28303
807.472	28268
807.614	28382
807.756	28287
807.898	28177
808.04	28051
808.182	28223
808.324	28348
808.465	28261
808.607	28375
808.749	28508
808.891	28683
809.033	28672
809.174	28660
809.316	28542
809.458	28497
809.6	28382
809.741	28778
809.883	28634
810.025	28744
810.166	28774
810.308	28759
810.45	28706
810.591	28801
810.733	28668
810.875	28554
811.016	28379
811.158	28440
811.299	28729
811.441	28626
811.582	28577
811.724	28478
811.865	28405
812.007	28561
812.148	28565
812.29	28485
812.431	28740
812.573	28820
812.714	28991
812.855	29033
812.997	29140
813.138	29288
813.279	29265
813.421	29094
813.562	29014
813.703	28793
813.845	28771
813.986	28379
814.127	28299
814.268	28249
814.41	28219
814.551	28128
814.692	28246
814.833	28287
814.974	28078
815.115	28181
815.256	28074
815.397	28040
815.539	28150
815.68	27968
815.821	27854
815.962	28059
816.103	27960
816.244	27937
816.385	27899
816.526	27812
816.666	27561
816.807	27534
816.948	27633
817.089	27599
817.23	27587
817.371	27492
817.512	27511
817.653	27386
817.793	27420
817.934	27519
818.075	27485
818.216	27561
818.356	27614
818.497	27363
818.638	27245
818.778	27313
818.919	27287
819.06	27359
819.2	27458
819.341	27523
819.481	27424
819.622	27694
819.762	27914
819.903	27622
820.043	27599
820.184	27618
820.324	27644
820.465	27705
820.605	27705
820.746	27709
820.886	27549
821.026	27698
821.167	27644
821.307	27800
821.447	27599
821.588	27507
821.728	27302
821.868	27237
822.008	27028
822.149	27001
822.289	27024
822.429	26754
822.569	26670
822.709	26769
822.849	26514
822.99	26427
823.13	26450
823.27	26480
823.41	26362
823.55	26183
823.69	26343
823.83	26336
823.97	26233
824.11	26275
824.25	26031
824.389	26138
824.529	26271
824.669	26130
824.809	26313
824.949	26278
825.089	26161
825.228	26157
825.368	26069
825.508	25940
825.648	26145
825.787	25997
825.927	26035
826.067	26073
826.206	25993
826.346	26031
826.485	26130
826.625	25944
826.765	26062
826.904	26008
827.044	25909
827.183	25715
827.323	25666
827.462	25753
827.601	25715
827.741	25791
827.88	25784
828.02	25696
828.159	25803
828.298	25887
828.437	25833
828.577	25628
828.716	25845
828.855	25704
828.994	25460
829.134	25521
829.273	25422
829.412	25460
829.551	25438
829.69	25350
829.829	25308
829.968	25377
830.107	25476
830.246	25499
830.385	25365
830.524	25301
830.663	25202
830.802	25187
830.941	24989
831.08	24966
831.219	25148
831.357	25027
831.496	25289
831.635	25027
831.774	25008
831.913	24779
832.051	24787
832.19	24871
832.329	24897
832.467	24757
832.606	24753
832.744	24703
832.883	24631
833.022	24669
833.16	24654
833.299	24772
833.437	24760
833.576	24764
833.714	24745
833.852	24719
833.991	24753
834.129	24966
834.267	25000
834.406	24749
834.544	24829
834.682	24825
834.821	24642
834.959	24772
835.097	24795
835.235	24772
835.373	24852
835.511	24783
835.65	24627
835.788	24734
835.926	24464
836.064	24479
836.202	24490
836.34	24483
836.478	24623
836.615	24593
836.753	24578
836.891	24646
837.029	24578
837.167	24563
837.305	24437
837.443	24437
837.58	24365
837.718	24505
837.856	24395
837.993	24330
838.131	24372
838.269	24372
838.406	24311
838.544	24140
838.681	24121
838.819	24171
838.956	23748
839.094	23722
839.231	23923
839.369	23973
839.506	24266
839.643	24110
839.781	23813
839.918	23889
840.055	23965
840.193	23843
840.33	23866
840.467	23802
840.604	23927
840.742	24053
840.879	23596
841.016	23802
841.153	23615
841.29	23916
841.427	23752
841.564	23710
841.701	23783
841.838	23817
841.975	23771
842.112	23684
842.249	23672
842.385	23619
842.522	23687
842.659	23577
842.796	23562
842.933	23524
843.069	23436
843.206	23417
843.343	23497
843.479	23566
843.616	23604
843.752	23299
843.889	23322
844.025	23554
844.162	23254
844.298	23398
844.435	23337
844.571	23208
844.708	23334
844.844	23501
844.98	23547
845.117	23505
845.253	23315
845.389	23246
845.525	23299
845.661	23250
845.798	22881
845.934	23231
846.07	23010
846.206	23071
846.342	23124
846.478	23079
846.614	22934
846.75	22736
846.886	22854
847.022	22934
847.158	22759
847.294	22812
847.429	22786
847.565	22771
847.701	23060
847.837	22424
847.972	22455
848.108	22554
848.244	22577
848.379	22455
848.515	22375
848.65	22306
848.786	22470
848.921	22295
849.057	22599
849.192	22557
849.328	22428
849.463	22333
849.598	22291
849.734	22276
849.869	22470
850.004	22139
850.14	22120
850.275	22169
850.41	22021
850.545	22074
850.68	22116
850.815	22211
850.95	22249
851.085	22265
851.22	22261
851.355	22230
851.49	22109
851.625	22192
851.76	22219
851.895	22112
852.03	22025
852.165	22192
852.299	22093
852.434	22207
852.569	22109
852.703	22185
852.838	22196
852.973	22204
853.107	22261
853.242	22112
853.376	21956
853.511	21854
853.645	21926
853.78	22090
853.914	21915
854.048	22135
854.183	21857
854.317	22051
854.451	22128
854.585	22059
854.72	22154
854.854	22040
854.988	21895
855.122	21903
855.256	21846
855.39	21937
855.524	22173
855.658	22101
855.792	21953
855.926	21975
856.06	21926
856.194	22029
856.327	21911
856.461	21922
856.595	21846
856.729	21827
856.862	22032
856.996	21991
857.13	22063
857.263	22169
857.397	22082
857.53	22036
857.664	22029
857.797	22067
857.931	22101
858.064	22021
858.197	22097
858.331	22105
858.464	21945
858.597	21747
858.731	21823
858.864	21915
858.997	22010
859.13	21895
859.263	21994
859.396	22032
859.529	21823
859.662	22032
859.795	21876
859.928	21915
860.061	22162
860.194	22112
860.327	21953
860.46	21991
860.592	22105
860.725	22131
860.858	22097
860.99	21922
861.123	21994
861.256	21892
861.388	22040
861.521	22740
861.653	21835
861.786	21743
861.918	21831
862.05	21838
862.183	21865
862.315	21831
862.447	21865
862.58	21888
862.712	21564
862.844	21610
862.976	21679
863.108	21831
863.24	22010
863.372	21690
863.504	21736
863.636	21682
863.768	21736
863.9	21709
864.032	21576
864.164	21622
864.296	21778
864.428	21819
864.559	21751
864.691	21743
864.823	21762
864.954	21717
865.086	21629
865.217	21504
865.349	21462
865.48	21625
865.612	21717
865.743	21599
865.875	21656
866.006	21523
866.137	21515
866.269	21507
866.4	21599
866.531	21553
866.662	21359
866.793	21469
866.924	21557
867.055	21454
867.186	21663
867.317	21492
867.448	21435
867.579	21443
867.71	21458
867.841	21363
867.972	21618
868.103	21515
868.233	21466
868.364	21500
868.495	21667
868.625	21709
868.756	21717
868.886	21724
869.017	21747
869.147	21865
869.278	21922
869.408	21770
869.539	21705
869.669	21861
869.799	21819
869.929	21915
870.06	21876
870.19	22059
870.32	22006
870.45	22013
870.58	22017
870.71	22253
870.84	22169
870.97	22226
871.1	22086
871.23	22272
871.36	22276
871.489	22223
871.619	22352
871.749	22284
871.879	22333
872.008	22360
872.138	22310
872.267	22352
872.397	22181
872.526	22226
872.656	22261
872.785	22215
872.915	22367
873.044	22310
873.173	22440
873.303	22478
873.432	22462
873.561	22470
873.69	22394
873.819	22447
873.948	22497
874.077	22341
874.206	22280
874.335	22402
874.464	22367
874.593	22550
874.722	22573
874.851	22599
874.979	22710
875.108	22615
875.237	22523
875.365	22436
875.494	22527
875.623	22622
875.751	22504
875.88	22599
876.008	22736
876.136	22710
876.265	22968
876.393	23140
876.521	23033
876.65	23003
876.778	22923
876.906	22881
877.034	22915
877.162	23033
877.29	22911
877.418	22904
877.546	22885
877.674	22866
877.802	22919
877.93	22930
878.058	22869
878.185	22843
878.313	23014
878.441	22938
878.568	22809
878.696	22843
878.824	22980
878.951	22934
879.079	23132
879.206	23193
879.333	23246
879.461	22987
879.588	22919
879.715	23044
879.842	23299
879.97	22976
880.097	22710
880.224	22778
880.351	22790
880.478	22790
880.605	22675
880.732	22816
880.859	23010
880.986	22812
881.112	22824
881.239	22599
881.366	22523
881.493	22333
881.619	22363
881.746	22318
881.872	22299
881.999	22310
882.125	22261
882.252	22341
882.378	22280
882.505	22402
882.631	22116
882.757	21987
882.883	22040
883.01	21998
883.136	21892
883.262	21873
883.388	21899
883.514	22059
883.64	21937
883.766	21911
883.892	21789
884.018	21736
884.143	21983
884.269	21922
884.395	21686
884.52	21660
884.646	21682
884.772	21557
884.897	21644
885.023	21675
885.148	21618
885.274	21663
885.399	21690
885.524	21667
885.65	21709
885.775	21724
885.9	21534
886.025	21797
886.15	21701
886.275	21622
886.4	21606
886.525	21591
886.65	21530
886.775	21587
886.9	21895
887.025	21812
887.149	21694
887.274	21485
887.399	21367
887.523	21447
887.648	21378
887.773	21306
887.897	21534
888.021	21431
888.146	21310
888.27	21443
888.395	21530
888.519	21412
888.643	21355
888.767	21393
888.891	21291
889.015	21192
889.139	21275
889.263	21241
889.387	21317
889.511	21420
889.635	21359
889.759	21252
889.883	21184
890.006	21173
890.13	21173
890.254	21089
890.377	21047
890.501	20982
890.624	20948
890.748	21020
890.871	20777
890.995	20861
891.118	20853
891.241	20838
891.364	20731
891.488	20857
891.611	20758
891.734	20720
891.857	20857
891.98	20758
892.103	20819
892.226	20735
892.349	20678
892.471	20545
892.594	20609
892.717	20678
892.839	20682
892.962	20773
893.085	20689
893.207	20708
893.33	20575
893.452	20549
893.575	20739
893.697	20552
893.819	20667
893.941	20800
894.064	20826
894.186	20579
894.308	20507
894.43	20800
894.552	20716
894.674	20667
894.796	20541
894.918	20739
895.04	20419
895.161	20594
895.283	20644
895.405	20594
895.526	20727
895.648	20644
895.769	20659
895.891	20670
896.012	20648
896.134	20739
896.255	20590
896.376	20613
896.498	20568
896.619	20667
896.74	20568
896.861	20792
896.982	20956
897.103	21085
897.224	21043
897.345	20804
897.466	20727
897.587	20925
897.708	20899
897.828	20910
897.949	20861
898.07	20670
898.19	20705
898.311	20819
898.431	20716
898.552	20906
898.672	20967
898.792	20823
898.913	20826
899.033	20762
899.153	20549
899.273	20522
899.393	20613
899.513	20587
899.633	20670
899.753	20575
899.873	20427
899.993	20629
900.113	20549
900.232	20484
900.352	20427
900.472	20309
900.591	20301
900.711	20259
900.83	20305
900.95	20499
901.069	20393
901.189	20259
901.308	19978
901.427	19902
901.546	19974
901.665	19940
901.784	19906
901.904	19791
902.023	19753
902.141	19464
902.26	19575
902.379	19620
902.498	19483
902.617	19381
902.735	19601
902.854	19365
902.973	19373
903.091	19015
903.21	19103
903.328	19114
903.446	18878
903.565	19023
903.683	18882
903.801	18798
903.919	18833
904.038	18928
904.156	18715
904.274	18764
904.392	18654
904.51	18684
904.627	18623
904.745	18658
904.863	18608
904.981	18566
905.098	18361
905.216	18369
905.334	18285
905.451	18353
905.569	18254
905.686	18327
905.803	18319
905.921	18057
906.038	18289
906.155	18281
906.272	18076
906.389	18114
906.506	17935
906.623	17859
906.74	17885
906.857	17695
906.974	17703
907.091	17885
907.208	17870
907.324	17908
907.441	17699
907.557	17619
907.674	17554
907.79	17512
907.907	17539
908.023	17551
908.139	17604
908.256	17497
908.372	17516
908.488	17421
908.604	17436
908.72	17212
908.836	17296
908.952	17258
909.068	17353
909.184	17258
909.3	17356
909.415	17261
909.531	17223
909.647	17041
909.762	17003
909.878	17029
909.993	16965
910.108	16934
910.224	16896
910.339	16946
910.454	16812
910.57	16801
910.685	16828
910.8	17041
910.915	17003
911.03	16759
911.145	16706
911.259	16580
911.374	16660
911.489	16310
911.604	16508
911.718	16287
911.833	16303
911.947	16268
912.062	16128
912.176	16261
912.291	16337
912.405	16272
912.519	16497
912.633	16493
912.748	16341
912.862	16196
912.976	15987
913.09	16082
913.204	16051
913.318	16082
913.431	16261
913.545	16166
913.659	16204
913.772	16051
913.886	16029
914	15846
914.113	15934
914.226	15979
914.34	15922
914.453	15861
914.566	15911
914.68	15762
914.793	15789
914.906	15580
915.019	15523
915.132	15469
915.245	15450
915.358	15542
915.47	15557
915.583	15469
915.696	15557
915.809	15564
915.921	15545
916.034	15511
916.146	15439
916.259	15351
916.371	15511
916.483	15507
916.595	15355
916.708	15310
916.82	15348
916.932	15393
917.044	15199
917.156	15237
917.268	15131
917.38	15123
917.491	15119
917.603	15245
917.715	15195
917.826	15180
917.938	15039
918.049	14986
918.161	15135
918.272	15241
918.384	15169
918.495	15036
918.606	14925
918.717	14872
918.828	14941
918.939	14910
919.05	14739
919.161	14853
919.272	14682
919.383	14785
919.494	14906
919.604	15093
919.715	14952
919.826	14842
919.936	14819
920.047	14910
920.157	14853
920.267	14990
920.378	14895
920.488	14796
920.598	15100
920.708	15138
920.818	14883
920.928	15043
921.038	15268
921.148	15081
921.258	14777
921.368	14765
921.477	14644
921.587	14621
921.697	14450
921.806	14549
921.916	14431
922.025	14248
922.134	14252
922.244	14161
922.353	14195
922.462	14081
922.571	14081
922.68	13803
922.789	13871
922.898	13913
923.007	13788
923.116	13909
923.224	13955
923.333	13776
923.442	13788
923.55	13700
923.659	13727
923.767	13765
923.876	13670
923.984	13666
924.092	13712
924.201	13643
924.309	13594
924.417	13487
924.525	13544
924.633	13518
924.741	14332
924.849	13354
924.956	13552
925.064	13244
925.172	13255
925.279	13168
925.387	13343
925.494	13206
925.602	13324
925.709	13293
925.816	13232
925.924	13190
926.031	13251
926.138	13183
926.245	13213
926.352	13110
926.459	13213
926.566	13255
926.673	13168
926.779	13023
926.886	12973
926.993	12878
927.099	12859
927.206	12730
927.312	12707
927.419	12852
927.525	12856
927.631	12878
927.737	12703
927.843	12593
927.95	12616
928.056	12563
928.162	12604
928.267	12681
928.373	13316
928.479	12798
928.585	12464
928.69	12566
928.796	12574
928.901	12441
929.007	12251
929.112	12521
929.218	12475
929.323	12388
929.428	12338
929.533	12452
929.638	12319
929.743	12285
929.848	12361
929.953	12273
930.058	12129
930.163	12110
930.267	12087
930.372	12136
930.477	11988
930.581	12133
930.685	12022
930.79	11927
930.894	11977
930.998	11851
931.103	12102
931.207	11691
931.311	11577
931.415	11440
931.519	11307
931.623	11269
