Data from test_V78500241_2528.txt Node
Date: Fri Mar 25 15:59:18 CST 2022
User: usil
Spectrometer: V785-0024
Trigger mode: 0
Integration Time (sec): 4.000000E-1
Scans to average: 1
Nonlinearity correction enabled: false
Boxcar width: 0
Storing dark spectrum: false
XAxis mode: Wavelengths
Number of Pixels in Spectrum: 1024
>>>>>Begin Spectral Data<<<<<
801.071	28942
801.214	28763
801.356	28432
801.499	28596
801.641	28333
801.783	28249
801.926	28504
802.068	28265
802.211	28242
802.353	28246
802.496	28169
802.638	28074
802.78	28093
802.923	27892
803.065	27918
803.208	28090
803.35	28200
803.492	28192
803.635	28325
803.777	28158
803.919	28413
804.061	28713
804.204	28306
804.346	28337
804.488	28284
804.63	28249
804.773	28265
804.915	28363
805.057	28478
805.199	28318
805.341	28398
805.483	28333
805.626	28443
805.768	28417
805.91	28504
806.052	28542
806.194	28421
806.336	28713
806.478	28561
806.62	28497
806.762	28687
806.904	28744
807.046	29056
807.188	28927
807.33	29029
807.472	29014
807.614	28778
807.756	28828
807.898	28790
808.04	28744
808.182	28687
808.324	28771
808.465	28896
808.607	28976
808.749	29197
808.891	29220
809.033	29292
809.174	29280
809.316	29155
809.458	29189
809.6	29086
809.741	29197
809.883	29315
810.025	29395
810.166	29486
810.308	29440
810.45	29410
810.591	29372
810.733	29246
810.875	29124
811.016	29113
811.158	29071
811.299	29121
811.441	29273
811.582	29330
811.724	29231
811.865	29216
812.007	29254
812.148	29083
812.29	29273
812.431	29288
812.573	29482
812.714	29726
812.855	29729
812.997	29824
813.138	29942
813.279	29923
813.421	29718
813.562	29630
813.703	29497
813.845	29421
813.986	29064
814.127	28923
814.268	29006
814.41	28869
814.551	28858
814.692	28930
814.833	28713
814.974	28755
815.115	29025
815.256	28744
815.397	28759
815.539	28778
815.68	28588
815.821	28725
815.962	28645
816.103	28618
816.244	28603
816.385	28493
816.526	28527
816.666	28371
816.807	28181
816.948	28181
817.089	28352
817.23	28265
817.371	28219
817.512	28143
817.653	28261
817.793	28013
817.934	28192
818.075	28253
818.216	28280
818.356	28139
818.497	27888
818.638	28025
818.778	27987
818.919	27983
819.06	28059
819.2	28131
819.341	28280
819.481	28223
819.622	28375
819.762	28603
819.903	28363
820.043	28428
820.184	28265
820.324	28363
820.465	28443
820.605	28360
820.746	28337
820.886	28067
821.026	28211
821.167	28109
821.307	28371
821.447	28188
821.588	28055
821.728	27960
821.868	27972
822.008	27850
822.149	27751
822.289	27610
822.429	27310
822.569	27389
822.709	27359
822.849	27359
822.99	27157
823.13	27169
823.27	27150
823.41	27131
823.55	26857
823.69	26910
823.83	26952
823.97	27024
824.11	26724
824.25	26724
824.389	26956
824.529	26906
824.669	26823
824.809	26891
824.949	26929
825.089	26895
825.228	26792
825.368	26705
825.508	26750
825.648	26735
825.787	26674
825.927	26876
826.067	26659
826.206	26777
826.346	26800
826.485	26868
826.625	26625
826.765	26800
826.904	26785
827.044	26514
827.183	26408
827.323	26476
827.462	26492
827.601	26351
827.741	26438
827.88	26522
828.02	26412
828.159	26396
828.298	26385
828.437	26461
828.577	26377
828.716	26438
828.855	26385
828.994	26084
829.134	26081
829.273	26005
829.412	26081
829.551	26046
829.69	26134
829.829	26275
829.968	26126
830.107	26142
830.246	26214
830.385	26103
830.524	26001
830.663	25906
830.802	25837
830.941	25807
831.08	25662
831.219	25875
831.357	25788
831.496	25959
831.635	25803
831.774	25601
831.913	25624
832.051	25552
832.19	25472
832.329	25620
832.467	25506
832.606	25316
832.744	25453
832.883	25400
833.022	25206
833.16	25388
833.299	25468
833.437	25293
833.576	25487
833.714	25483
833.852	25632
833.991	25495
834.129	25689
834.267	25563
834.406	25441
834.544	25419
834.682	25521
834.821	25369
834.959	25578
835.097	25358
835.235	25567
835.373	25434
835.511	25495
835.65	25354
835.788	25320
835.926	25244
836.064	25141
836.202	25141
836.34	25327
836.478	25483
836.615	25369
836.753	25266
836.891	25278
837.029	25282
837.167	25175
837.305	25133
837.443	25175
837.58	25221
837.718	25339
837.856	25095
837.993	24962
838.131	25114
838.269	24951
838.406	25004
838.544	25023
838.681	24719
838.819	24806
838.956	24555
839.094	24517
839.231	24681
839.369	24707
839.506	24977
839.643	24970
839.781	24582
839.918	24418
840.055	24635
840.193	24551
840.33	24490
840.467	24525
840.604	24544
840.742	24745
840.879	24353
841.016	24357
841.153	24334
841.29	24460
841.427	24464
841.564	24490
841.701	24330
841.838	24296
841.975	24342
842.112	24410
842.249	24315
842.385	24140
842.522	24532
842.659	24247
842.796	24152
842.933	24277
843.069	24155
843.206	24220
843.343	24262
843.479	24167
843.616	24194
843.752	24007
843.889	23950
844.025	24114
844.162	24079
844.298	24148
844.435	24034
844.571	23946
844.708	23904
844.844	24136
844.98	24213
845.117	24076
845.253	23942
845.389	23950
845.525	23908
845.661	23843
845.798	23729
845.934	23756
846.07	23665
846.206	23646
846.342	23794
846.478	23710
846.614	23577
846.75	23421
846.886	23417
847.022	23531
847.158	23459
847.294	23486
847.429	23455
847.565	23417
847.701	23695
847.837	23216
847.972	23170
848.108	23376
848.244	23250
848.379	23048
848.515	22972
848.65	22995
848.786	22919
848.921	23044
849.057	23121
849.192	23208
849.328	23117
849.463	23060
849.598	23075
849.734	22957
849.869	22919
850.004	22839
850.14	22900
850.275	22839
850.41	22694
850.545	22755
850.68	22729
850.815	22946
850.95	22759
851.085	23056
851.22	22866
851.355	22892
851.49	22778
851.625	22797
851.76	22809
851.895	22752
852.03	22694
852.165	22793
852.299	22892
852.434	22873
852.569	22774
852.703	22755
852.838	22786
852.973	22980
853.107	22968
853.242	22786
853.376	22615
853.511	22519
853.645	22577
853.78	22790
853.914	22717
854.048	22500
854.183	22599
854.317	22736
854.451	22729
854.585	22748
854.72	22668
854.854	22706
854.988	22580
855.122	22641
855.256	22497
855.39	22653
855.524	22645
855.658	22713
855.792	22512
855.926	22542
856.06	22721
856.194	22729
856.327	22516
856.461	22557
856.595	22653
856.729	22489
856.862	22740
856.996	22577
857.13	22702
857.263	22691
857.397	22736
857.53	22641
857.664	22603
857.797	22634
857.931	22793
858.064	22615
858.197	22790
858.331	22607
858.464	22668
858.597	22596
858.731	22573
858.864	22561
858.997	22668
859.13	22569
859.263	22615
859.396	22736
859.529	22554
859.662	22500
859.795	22493
859.928	22641
860.061	22759
860.194	22793
860.327	22698
860.46	22649
860.592	22645
860.725	22763
860.858	22729
860.99	22706
861.123	22531
861.256	22611
861.388	22592
861.521	23223
861.653	22489
861.786	22428
861.918	22474
862.05	22573
862.183	22519
862.315	22637
862.447	22660
862.58	22512
862.712	22436
862.844	22223
862.976	22341
863.108	22356
863.24	22653
863.372	22360
863.504	22367
863.636	22310
863.768	22363
863.9	22363
864.032	22200
864.164	22299
864.296	22386
864.428	22329
864.559	22402
864.691	22371
864.823	22329
864.954	22402
865.086	22318
865.217	22303
865.349	22063
865.48	22204
865.612	22207
865.743	22280
865.875	22158
866.006	22124
866.137	22284
866.269	22196
866.4	22158
866.531	22097
866.662	22074
866.793	22173
866.924	22215
867.055	22173
867.186	22128
867.317	22074
867.448	22097
867.579	22105
867.71	22109
867.841	22116
867.972	22090
868.103	22158
868.233	22242
868.364	22166
868.495	22147
868.625	22386
868.756	22382
868.886	22443
869.017	22352
869.147	22535
869.278	22462
869.408	22398
869.539	22424
869.669	22402
869.799	22413
869.929	22531
870.06	22550
870.19	22622
870.32	22626
870.45	22668
870.58	22683
870.71	22805
870.84	22790
870.97	22797
871.1	22812
871.23	22934
871.36	23037
871.489	22961
871.619	23029
871.749	22820
871.879	22999
872.008	23113
872.138	22824
872.267	22896
872.397	22866
872.526	22820
872.656	22748
872.785	22831
872.915	23052
873.044	23022
873.173	23022
873.303	23022
873.432	23128
873.561	23025
873.69	23056
873.819	23018
873.948	23090
874.077	23132
874.206	22965
874.335	22946
874.464	22999
874.593	23364
874.722	23193
874.851	23368
874.979	23200
875.108	23337
875.237	23090
875.365	23060
875.494	23124
875.623	23341
875.751	23208
875.88	23075
876.008	23379
876.136	23406
876.265	23665
876.393	23779
876.521	23604
876.65	23878
876.778	23714
876.906	23528
877.034	23497
877.162	23543
877.29	23600
877.418	23547
877.546	23554
877.674	23493
877.802	23512
877.93	23611
878.058	23558
878.185	23345
878.313	23436
878.441	23531
878.568	23227
878.696	23570
878.824	23520
878.951	23562
879.079	23649
879.206	24018
879.333	23714
879.461	23570
879.588	23710
879.715	23729
879.842	23809
879.97	23577
880.097	23322
880.224	23356
880.351	23395
880.478	23455
880.605	23318
880.732	23364
880.859	23687
880.986	23284
881.112	23273
881.239	23227
881.366	23136
881.493	23033
881.619	22972
881.746	22972
881.872	22972
881.999	22850
882.125	22721
882.252	22828
882.378	22972
882.505	23056
882.631	22702
882.757	22679
882.883	22752
883.01	22588
883.136	22649
883.262	22421
883.388	22390
883.514	22512
883.64	22668
883.766	22489
883.892	22318
884.018	22394
884.143	22550
884.269	22443
884.395	22268
884.52	22150
884.646	22253
884.772	22246
884.897	22067
885.023	22154
885.148	22417
885.274	22424
885.399	22352
885.524	22169
885.65	22276
885.775	22185
885.9	22162
886.025	22318
886.15	22322
886.275	22287
886.4	22093
886.525	22162
886.65	22131
886.775	22280
886.9	22223
887.025	22421
887.149	22131
887.274	22032
887.399	22055
887.523	21899
887.648	21979
887.773	21880
887.897	21979
888.021	21960
888.146	21899
888.27	22067
888.395	22112
888.519	21945
888.643	21975
888.767	22067
888.891	21888
889.015	21819
889.139	21960
889.263	21755
889.387	21850
889.511	22051
889.635	21812
889.759	21663
889.883	21686
890.006	21835
890.13	21873
890.254	21804
890.377	21648
890.501	21549
890.624	21435
890.748	21629
890.871	21454
890.995	21245
891.118	21279
891.241	21329
891.364	21313
891.488	21397
891.611	21397
891.734	21272
891.857	21306
891.98	21237
892.103	21302
892.226	21291
892.349	21428
892.471	21047
892.594	21260
892.717	21112
892.839	21195
892.962	21203
893.085	21260
893.207	21203
893.33	20956
893.452	21089
893.575	21351
893.697	21176
893.819	21260
893.941	21374
894.064	21359
894.186	21005
894.308	21157
894.43	21245
894.552	21237
894.674	21249
894.796	21256
894.918	21203
895.04	21070
895.161	21298
895.283	21188
895.405	21245
895.526	21104
895.648	21112
895.769	21131
895.891	21226
896.012	21249
896.134	21108
896.255	21306
896.376	21096
896.498	21180
896.619	21203
896.74	21233
896.861	21332
896.982	21485
897.103	21519
897.224	21424
897.345	21458
897.466	21332
897.587	21382
897.708	21466
897.828	21329
897.949	21420
898.07	21230
898.19	21389
898.311	21359
898.431	21340
898.552	21412
898.672	21412
898.792	21321
898.913	21393
899.033	21279
899.153	21100
899.273	21100
899.393	21188
899.513	21119
899.633	21256
899.753	21055
899.873	21081
899.993	21116
900.113	21070
900.232	21058
900.352	21028
900.472	21032
900.591	20876
900.711	20937
900.83	20826
900.95	20960
901.069	20956
901.189	20804
901.308	20629
901.427	20507
901.546	20385
901.665	20484
901.784	20461
901.904	20229
902.023	20187
902.141	20012
902.26	19944
902.379	19982
902.498	20020
902.617	19993
902.735	19883
902.854	19833
902.973	19894
903.091	19544
903.21	19639
903.328	19590
903.446	19548
903.565	19384
903.683	19316
903.801	19225
903.919	19308
904.038	19362
904.156	19232
904.274	19247
904.392	19137
904.51	19168
904.627	19050
904.745	19213
904.863	19187
904.981	19000
905.098	18844
905.216	18897
905.334	18863
905.451	18779
905.569	18859
905.686	18924
905.803	18783
905.921	18623
906.038	18661
906.155	18570
906.272	18471
906.389	18559
906.506	18384
906.623	18399
906.74	18334
906.857	18205
906.974	18262
907.091	18262
907.208	18467
907.324	18319
907.441	18254
907.557	18011
907.674	18019
907.79	18076
907.907	18041
908.023	18110
908.139	18072
908.256	17988
908.372	18003
908.488	17935
908.604	17756
908.72	17786
908.836	17771
908.952	17699
909.068	17703
909.184	17794
909.3	17657
909.415	17821
909.531	17695
909.647	17482
909.762	17433
909.878	17429
909.993	17387
910.108	17463
910.224	17360
910.339	17509
910.454	17250
910.57	17147
910.685	17250
910.8	17349
910.915	17372
911.03	17288
911.145	17204
911.259	17071
911.374	16957
911.489	16968
911.604	16835
911.718	16725
911.833	16793
911.947	16710
912.062	16626
912.176	16736
912.291	16839
912.405	16679
912.519	16911
912.633	16934
912.748	16805
912.862	16729
912.976	16622
913.09	16470
913.204	16622
913.318	16561
913.431	16622
913.545	16729
913.659	16584
913.772	16436
913.886	16421
914	16344
914.113	16573
914.226	16451
914.34	16485
914.453	16234
914.566	16409
914.68	16246
914.793	16192
914.906	16147
915.019	16036
915.132	15907
915.245	15956
915.358	15960
915.47	15953
915.583	15953
915.696	15994
915.809	16017
915.921	16051
916.034	15774
916.146	15857
916.259	15755
916.371	15987
916.483	15873
916.595	15835
916.708	15778
916.82	15778
916.932	15743
917.044	15789
917.156	15644
917.268	15625
917.38	15629
917.491	15545
917.603	15466
917.715	15663
917.826	15641
917.938	15473
918.049	15367
918.161	15469
918.272	15576
918.384	15656
918.495	15488
918.606	15344
918.717	15237
918.828	15287
918.939	15283
919.05	15245
919.161	15302
919.272	15093
919.383	15176
919.494	15294
919.604	15447
919.715	15302
919.826	15226
919.936	15260
920.047	15260
920.157	15325
920.267	15511
920.378	15214
920.488	15173
920.598	15420
920.708	15557
920.818	15443
920.928	15370
921.038	15488
921.148	15416
921.258	15207
921.368	15173
921.477	15066
921.587	14914
921.697	14918
921.806	15009
921.916	14868
922.025	14686
922.134	14598
922.244	14598
922.353	14712
922.462	14469
922.571	14457
922.68	14187
922.789	14309
922.898	14267
923.007	14206
923.116	14313
923.224	14172
923.333	14267
923.442	14088
923.55	14050
923.659	14157
923.767	14168
923.876	13989
923.984	14103
924.092	13906
924.201	13947
924.309	14008
924.417	13963
924.525	13963
924.633	13940
924.741	14583
924.849	13708
924.956	13887
925.064	13628
925.172	13712
925.279	13772
925.387	13704
925.494	13636
925.602	13780
925.709	13769
925.816	13628
925.924	13613
926.031	13689
926.138	13662
926.245	13636
926.352	13499
926.459	13582
926.566	13700
926.673	13525
926.779	13422
926.886	13343
926.993	13202
927.099	13168
927.206	13141
927.312	13217
927.419	13263
927.525	13164
927.631	13240
927.737	13141
927.843	13057
927.95	12958
928.056	13046
928.162	13114
928.267	13042
928.373	13742
928.479	13107
928.585	12856
928.69	12993
928.796	13072
928.901	12806
929.007	12734
929.112	12901
929.218	12798
929.323	12749
929.428	12734
929.533	12829
929.638	12669
929.743	12669
929.848	12837
929.953	12692
930.058	12540
930.163	12376
930.267	12380
930.372	12490
930.477	12292
930.581	12692
930.685	12407
930.79	12270
930.894	12277
930.998	12285
931.103	12338
931.207	12060
931.311	11977
931.415	11882
931.519	11634
931.623	11680
