Data from test_V78500241_29.txt Node
Date: Fri Mar 25 15:42:00 CST 2022
User: usil
Spectrometer: V785-0024
Trigger mode: 0
Integration Time (sec): 4.000000E-1
Scans to average: 1
Nonlinearity correction enabled: false
Boxcar width: 0
Storing dark spectrum: false
XAxis mode: Wavelengths
Number of Pixels in Spectrum: 1024
>>>>>Begin Spectral Data<<<<<
801.071	27389
801.214	27370
801.356	26998
801.499	27062
801.641	26921
801.783	26773
801.926	26845
802.068	26861
802.211	26701
802.353	26902
802.496	26552
802.638	26419
802.78	26400
802.923	26381
803.065	26317
803.208	26347
803.35	26419
803.492	26473
803.635	26541
803.777	26537
803.919	26564
804.061	26781
804.204	26651
804.346	26332
804.488	26347
804.63	26336
804.773	26317
804.915	26317
805.057	26492
805.199	26256
805.341	26476
805.483	26317
805.626	26412
805.768	26336
805.91	26427
806.052	26469
806.194	26412
806.336	26651
806.478	26530
806.62	26434
806.762	26514
806.904	26750
807.046	26701
807.188	26693
807.33	26785
807.472	26857
807.614	26689
807.756	26727
807.898	26518
808.04	26537
808.182	26651
808.324	26552
808.465	26609
808.607	26773
808.749	26861
808.891	26929
809.033	27100
809.174	26990
809.316	26883
809.458	26830
809.6	26948
809.741	26940
809.883	26899
810.025	27062
810.166	27188
810.308	27085
810.45	27074
810.591	26925
810.733	26800
810.875	26716
811.016	26556
811.158	26590
811.299	26724
811.441	26933
811.582	26921
811.724	26811
811.865	26648
812.007	26735
812.148	26857
812.29	26815
812.431	26948
812.573	27043
812.714	27024
812.855	27154
812.997	27336
813.138	27325
813.279	27348
813.421	27336
813.562	27192
813.703	27032
813.845	26864
813.986	26583
814.127	26473
814.268	26294
814.41	26248
814.551	26221
814.692	26271
814.833	26221
814.974	26214
815.115	26153
815.256	26062
815.397	26088
815.539	26035
815.68	25822
815.821	25784
815.962	25986
816.103	25868
816.244	25727
816.385	25708
816.526	25670
816.666	25464
816.807	25449
816.948	25506
817.089	25521
817.23	25320
817.371	25270
817.512	25278
817.653	25198
817.793	25289
817.934	25266
818.075	25236
818.216	25324
818.356	25156
818.497	25042
818.638	24894
818.778	24837
818.919	24932
819.06	24928
819.2	25072
819.341	25118
819.481	25213
819.622	25384
819.762	25472
819.903	25415
820.043	25324
820.184	25266
820.324	25304
820.465	25308
820.605	25259
820.746	25225
820.886	25099
821.026	25247
821.167	25225
821.307	25266
821.447	25069
821.588	24973
821.728	24951
821.868	24722
822.008	24559
822.149	24532
822.289	24566
822.429	24361
822.569	24254
822.709	24235
822.849	24015
822.99	24015
823.13	24030
823.27	23916
823.41	23874
823.55	23859
823.69	23893
823.83	23855
823.97	23767
824.11	23570
824.25	23592
824.389	23657
824.529	23714
824.669	23589
824.809	23615
824.949	23646
825.089	23741
825.228	23474
825.368	23383
825.508	23341
825.648	23406
825.787	23318
825.927	23440
826.067	23307
826.206	23242
826.346	23356
826.485	23372
826.625	23372
826.765	23398
826.904	23250
827.044	23166
827.183	23067
827.323	23044
827.462	22953
827.601	23098
827.741	23022
827.88	23048
828.02	22862
828.159	22942
828.298	22896
828.437	23018
828.577	22984
828.716	23060
828.855	22900
828.994	22782
829.134	22672
829.273	22755
829.412	22713
829.551	22615
829.69	22577
829.829	22725
829.968	22843
830.107	22622
830.246	22637
830.385	22611
830.524	22531
830.663	22466
830.802	22284
830.941	22204
831.08	22051
831.219	22322
831.357	22318
831.496	22478
831.635	22226
831.774	22010
831.913	22120
832.051	21918
832.19	21975
832.329	21987
832.467	21953
832.606	21895
832.744	21804
832.883	21732
833.022	21884
833.16	21732
833.299	21819
833.437	21937
833.576	21850
833.714	21808
833.852	21899
833.991	21903
834.129	21926
834.267	21892
834.406	21789
834.544	21804
834.682	21816
834.821	21709
834.959	21960
835.097	21804
835.235	21876
835.373	21865
835.511	21747
835.65	21690
835.788	21663
835.926	21610
836.064	21428
836.202	21576
836.34	21690
836.478	21797
836.615	21671
836.753	21671
836.891	21671
837.029	21675
837.167	21614
837.305	21564
837.443	21526
837.58	21542
837.718	21507
837.856	21580
837.993	21473
838.131	21481
838.269	21424
838.406	21542
838.544	21374
838.681	21138
838.819	21028
838.956	20975
839.094	20914
839.231	21074
839.369	21142
839.506	21340
839.643	21127
839.781	20861
839.918	20804
840.055	20899
840.193	20811
840.33	20887
840.467	20845
840.604	20811
840.742	21283
840.879	20781
841.016	20849
841.153	20807
841.29	21020
841.427	20735
841.564	20819
841.701	20800
841.838	20705
841.975	20785
842.112	20579
842.249	20651
842.385	20495
842.522	20796
842.659	20644
842.796	20602
842.933	20575
843.069	20442
843.206	20434
843.343	20583
843.479	20465
843.616	20469
843.752	20370
843.889	20252
844.025	20389
844.162	20191
844.298	20290
844.435	20317
844.571	20313
844.708	20347
844.844	20431
844.98	20381
845.117	20438
845.253	20164
845.389	20164
845.525	20142
845.661	20259
845.798	19982
845.934	20092
846.07	19776
846.206	20043
846.342	20153
846.478	20024
846.614	19731
846.75	19681
846.886	19757
847.022	19624
847.158	19795
847.294	19811
847.429	19765
847.565	19788
847.701	19856
847.837	19419
847.972	19392
848.108	19499
848.244	19480
848.379	19365
848.515	19308
848.65	19187
848.786	19324
848.921	19312
849.057	19304
849.192	19346
849.328	19312
849.463	19221
849.598	19289
849.734	19160
849.869	19175
850.004	18954
850.14	19129
850.275	19034
850.41	19012
850.545	18962
850.68	18989
850.815	18985
850.95	18973
851.085	19217
851.22	19156
851.355	19000
851.49	18954
851.625	18817
851.76	18882
851.895	18798
852.03	18829
852.165	18996
852.299	18989
852.434	19012
852.569	18970
852.703	18894
852.838	19072
852.973	19069
853.107	19065
853.242	18882
853.376	18711
853.511	18631
853.645	18787
853.78	18977
853.914	18890
854.048	18753
854.183	18707
854.317	18764
854.451	18989
854.585	18886
854.72	18852
854.854	18886
854.988	18673
855.122	18753
855.256	18684
855.39	18825
855.524	18993
855.658	18973
855.792	18806
855.926	18810
856.06	18859
856.194	18859
856.327	18829
856.461	18703
856.595	18722
856.729	18821
856.862	18791
856.996	18840
857.13	18802
857.263	18909
857.397	18867
857.53	18802
857.664	18738
857.797	18677
857.931	18856
858.064	18768
858.197	18840
858.331	18719
858.464	18711
858.597	18665
858.731	18658
858.864	18612
858.997	18715
859.13	18741
859.263	18715
859.396	18837
859.529	18559
859.662	18635
859.795	18623
859.928	18700
860.061	18814
860.194	18798
860.327	18707
860.46	18566
860.592	18707
860.725	18753
860.858	18844
860.99	18665
861.123	18612
861.256	18650
861.388	18658
861.521	19225
861.653	18517
861.786	18555
861.918	18547
862.05	18696
862.183	18768
862.315	18738
862.447	18795
862.58	18745
862.712	18445
862.844	18357
862.976	18528
863.108	18517
863.24	18852
863.372	18410
863.504	18426
863.636	18338
863.768	18544
863.9	18418
864.032	18342
864.164	18323
864.296	18388
864.428	18464
864.559	18437
864.691	18475
864.823	18441
864.954	18410
865.086	18456
865.217	18414
865.349	18163
865.48	18353
865.612	18395
865.743	18361
865.875	18426
866.006	18319
866.137	18369
866.269	18403
866.4	18285
866.531	18273
866.662	18262
866.793	18338
866.924	18270
867.055	18270
867.186	18232
867.317	18133
867.448	18121
867.579	18254
867.71	18163
867.841	18235
867.972	18357
868.103	18262
868.233	18315
868.364	18304
868.495	18361
868.625	18593
868.756	18536
868.886	18391
869.017	18441
869.147	18681
869.278	18547
869.408	18525
869.539	18464
869.669	18566
869.799	18627
869.929	18585
870.06	18639
870.19	18810
870.32	18722
870.45	18886
870.58	18920
870.71	18973
870.84	19122
870.97	18890
871.1	18920
871.23	19164
871.36	19110
871.489	18989
871.619	19118
871.749	19160
871.879	19095
872.008	19164
872.138	19110
872.267	19110
872.397	19027
872.526	18916
872.656	18943
872.785	19053
872.915	19141
873.044	19156
873.173	19187
873.303	19213
873.432	19190
873.561	19221
873.69	19179
873.819	19137
873.948	19209
874.077	19187
874.206	19141
874.335	19156
874.464	19244
874.593	19373
874.722	19377
874.851	19472
874.979	19597
875.108	19472
875.237	19320
875.365	19377
875.494	19316
875.623	19613
875.751	19434
875.88	19540
876.008	19609
876.136	19681
876.265	19906
876.393	20046
876.521	19807
876.65	19955
876.778	19845
876.906	19947
877.034	19727
877.162	19776
877.29	19719
877.418	19826
877.546	19894
877.674	19753
877.802	19791
877.93	19826
878.058	19712
878.185	19605
878.313	19670
878.441	19799
878.568	19647
878.696	19719
878.824	19826
878.951	19879
879.079	19917
879.206	20119
879.333	20096
879.461	19883
879.588	19890
879.715	19982
879.842	20149
879.97	19871
880.097	19563
880.224	19537
880.351	19761
880.478	19533
880.605	19499
880.732	19647
880.859	19856
880.986	19594
881.112	19643
881.239	19506
881.366	19373
881.493	19324
881.619	19293
881.746	19240
881.872	19316
881.999	19164
882.125	19156
882.252	19270
882.378	19206
882.505	19563
882.631	19156
882.757	19015
882.883	19095
883.01	18985
883.136	19012
883.262	18909
883.388	18878
883.514	19053
883.64	19137
883.766	19004
883.892	18760
884.018	18814
884.143	19080
884.269	19012
884.395	18814
884.52	18764
884.646	18772
884.772	18620
884.897	18597
885.023	18692
885.148	18817
885.274	18829
885.399	18935
885.524	18688
885.65	18650
885.775	18616
885.9	18578
886.025	18833
886.15	18673
886.275	18612
886.4	18578
886.525	18642
886.65	18623
886.775	18601
886.9	18795
887.025	18856
887.149	18707
887.274	18513
887.399	18361
887.523	18410
887.648	18334
887.773	18384
887.897	18502
888.021	18407
888.146	18319
888.27	18506
888.395	18574
888.519	18433
888.643	18506
888.767	18528
888.891	18471
889.015	18228
889.139	18220
889.263	18117
889.387	18315
889.511	18456
889.635	18342
889.759	18213
889.883	18216
890.006	18224
890.13	18311
890.254	18220
890.377	18144
890.501	17996
890.624	17969
890.748	17942
890.871	17912
890.995	17824
891.118	17794
891.241	17889
891.364	17870
891.488	17885
891.611	17809
891.734	17760
891.857	17931
891.98	17847
892.103	17885
892.226	18022
892.349	17843
892.471	17710
892.594	17760
892.717	17946
892.839	17764
892.962	17840
893.085	17946
893.207	17813
893.33	17748
893.452	17665
893.575	17912
893.697	17748
893.819	17942
893.941	18049
894.064	17897
894.186	17764
894.308	17729
894.43	17859
894.552	18015
894.674	17897
894.796	17790
894.918	17699
895.04	17729
895.161	17783
895.283	17904
895.405	17771
895.526	17821
895.648	17779
895.769	17912
895.891	17855
896.012	18003
896.134	17980
896.255	17908
896.376	17935
896.498	17840
896.619	18003
896.74	18007
896.861	17988
896.982	18251
897.103	18429
897.224	18300
897.345	18133
897.466	18011
897.587	18076
897.708	18247
897.828	18186
897.949	18064
898.07	17931
898.19	18171
898.311	18247
898.431	18083
898.552	18174
898.672	18205
898.792	18232
898.913	18152
899.033	18015
899.153	17882
899.273	17809
899.393	17809
899.513	17817
899.633	17764
899.753	17885
899.873	17767
899.993	17901
900.113	17824
900.232	17916
900.352	17863
900.472	17691
900.591	17558
900.711	17623
900.83	17707
900.95	17817
901.069	17745
901.189	17532
901.308	17322
901.427	17395
901.546	17315
901.665	17387
901.784	17299
901.904	17052
902.023	17060
902.141	16889
902.26	16843
902.379	16938
902.498	16900
902.617	16801
902.735	16778
902.854	16698
902.973	16759
903.091	16489
903.21	16478
903.328	16504
903.446	16405
903.565	16337
903.683	16344
903.801	16325
903.919	16348
904.038	16356
904.156	16200
904.274	16215
904.392	16143
904.51	16040
904.627	16021
904.745	16139
904.863	16173
904.981	15888
905.098	15793
905.216	15838
905.334	15797
905.451	15789
905.569	15698
905.686	15884
905.803	15835
905.921	15660
906.038	15603
906.155	15507
906.272	15534
906.389	15542
906.506	15363
906.623	15310
906.74	15317
906.857	15184
906.974	15230
907.091	15370
907.208	15530
907.324	15386
907.441	15176
907.557	15020
907.674	15032
907.79	15020
907.907	14944
908.023	15112
908.139	14998
908.256	14963
908.372	14944
908.488	14883
908.604	14788
908.72	14659
908.836	14735
908.952	14731
909.068	14731
909.184	14834
909.3	14727
909.415	14670
909.531	14746
909.647	14530
909.762	14404
909.878	14446
909.993	14450
910.108	14450
910.224	14404
910.339	14419
910.454	14389
910.57	14301
910.685	14187
910.8	14514
910.915	14339
911.03	14199
911.145	14115
911.259	14058
911.374	14096
911.489	13997
911.604	13906
911.718	13704
911.833	13837
911.947	13750
912.062	13746
912.176	13788
912.291	13864
912.405	13788
912.519	14001
912.633	14073
912.748	13761
912.862	13784
912.976	13647
913.09	13487
913.204	13559
913.318	13685
913.431	13780
913.545	13712
913.659	13753
913.772	13548
913.886	13460
914	13460
914.113	13601
914.226	13480
914.34	13518
914.453	13339
914.566	13502
914.68	13464
914.793	13430
914.906	13228
915.019	13156
915.132	13107
915.245	13118
915.358	13084
915.47	13156
915.583	13103
915.696	13187
915.809	13419
915.921	13247
916.034	13126
916.146	13038
916.259	12981
916.371	13091
916.483	13088
916.595	13008
916.708	13031
916.82	12970
916.932	13000
917.044	12993
917.156	12989
917.268	12844
917.38	12989
917.491	12825
917.603	12859
917.715	12848
917.826	12970
917.938	12935
918.049	12749
918.161	12753
918.272	12916
918.384	12958
918.495	12833
918.606	12650
918.717	12608
918.828	12726
918.939	12722
919.05	12566
919.161	12604
919.272	12475
919.383	12494
919.494	12692
919.604	12825
919.715	12673
919.826	12547
919.936	12582
920.047	12741
920.157	12658
920.267	12772
920.378	12627
920.488	12623
920.598	12779
920.708	12932
920.818	12768
920.928	12779
921.038	12897
921.148	12871
921.258	12681
921.368	12441
921.477	12456
921.587	12334
921.697	12304
921.806	12395
921.916	12258
922.025	12152
922.134	12057
922.244	12022
922.353	12190
922.462	11954
922.571	11920
922.68	11695
922.789	11703
922.898	11649
923.007	11608
923.116	11680
923.224	11615
923.333	11718
923.442	11562
923.55	11486
923.659	11524
923.767	11634
923.876	11532
923.984	11627
924.092	11414
924.201	11512
924.309	11581
924.417	11471
924.525	11406
924.633	11383
924.741	12350
924.849	11235
924.956	11398
925.064	11254
925.172	11124
925.279	11223
925.387	11356
925.494	11181
925.602	11387
925.709	11356
925.816	11132
925.924	11117
926.031	11242
926.138	11178
926.245	11284
926.352	11109
926.459	11239
926.566	11212
926.673	11189
926.779	11033
926.886	11018
926.993	10873
927.099	10896
927.206	10847
927.312	10752
927.419	10866
927.525	10942
927.631	10915
927.737	10793
927.843	10675
927.95	10615
928.056	10630
928.162	10763
928.267	10702
928.373	11395
928.479	10805
928.585	10546
928.69	10660
928.796	10687
928.901	10618
929.007	10398
929.112	10580
929.218	10493
929.323	10580
929.428	10470
929.533	10672
929.638	10402
929.743	10413
929.848	10428
929.953	10417
930.058	10348
930.163	10173
930.267	10265
930.372	10341
930.477	10109
930.581	10413
930.685	10337
930.79	10093
930.894	10120
930.998	10021
931.103	10173
931.207	9838
931.311	9740
931.415	9633
931.519	9477
931.623	9534
