Data from test_V78500241_862.txt Node
Date: Fri Mar 25 15:47:46 CST 2022
User: usil
Spectrometer: V785-0024
Trigger mode: 0
Integration Time (sec): 4.000000E-1
Scans to average: 1
Nonlinearity correction enabled: false
Boxcar width: 0
Storing dark spectrum: false
XAxis mode: Wavelengths
Number of Pixels in Spectrum: 1024
>>>>>Begin Spectral Data<<<<<
801.071	27979
801.214	27728
801.356	27587
801.499	27477
801.641	27393
801.783	27477
801.926	27412
802.068	27351
802.211	27298
802.353	27382
802.496	27127
802.638	27100
802.78	27043
802.923	27150
803.065	27051
803.208	27032
803.35	27055
803.492	27157
803.635	27157
803.777	27009
803.919	27279
804.061	27618
804.204	27264
804.346	27180
804.488	27112
804.63	27138
804.773	27252
804.915	27184
805.057	27374
805.199	27336
805.341	27443
805.483	27496
805.626	27435
805.768	27435
805.91	27340
806.052	27427
806.194	27355
806.336	27542
806.478	27435
806.62	27382
806.762	27530
806.904	27618
807.046	27930
807.188	27816
807.33	27846
807.472	27884
807.614	27766
807.756	27819
807.898	27781
808.04	27561
808.182	27644
808.324	27720
808.465	27732
808.607	27941
808.749	27956
808.891	28036
809.033	28207
809.174	28128
809.316	28082
809.458	28067
809.6	28067
809.741	28226
809.883	28299
810.025	28413
810.166	28451
810.308	28337
810.45	28329
810.591	28242
810.733	28090
810.875	27975
811.016	28051
811.158	28029
811.299	28120
811.441	28230
811.582	28223
811.724	28131
811.865	28067
812.007	28070
812.148	28029
812.29	28192
812.431	28348
812.573	28519
812.714	28474
812.855	28698
812.997	28717
813.138	28797
813.279	28759
813.421	28561
813.562	28554
813.703	28478
813.845	28249
813.986	27949
814.127	27972
814.268	27667
814.41	27656
814.551	27759
814.692	27800
814.833	27797
814.974	27739
815.115	27637
815.256	27656
815.397	27500
815.539	27580
815.68	27469
815.821	27469
815.962	27576
816.103	27530
816.244	27496
816.385	27367
816.526	27462
816.666	27218
816.807	26979
816.948	27161
817.089	27287
817.23	27119
817.371	27055
817.512	27058
817.653	27089
817.793	27017
817.934	27157
818.075	27127
818.216	26998
818.356	27039
818.497	26857
818.638	26785
818.778	26762
818.919	26823
819.06	26762
819.2	26895
819.341	27024
819.481	27055
819.622	27336
819.762	27374
819.903	27264
820.043	27173
820.184	27123
820.324	27176
820.465	27127
820.605	27093
820.746	26960
820.886	26971
821.026	27203
821.167	27233
821.307	27275
821.447	27096
821.588	27074
821.728	26743
821.868	26636
822.008	26571
822.149	26594
822.289	26431
822.429	26298
822.569	26252
822.709	26191
822.849	26119
822.99	26027
823.13	25959
823.27	26046
823.41	25883
823.55	25689
823.69	25951
823.83	25925
823.97	25776
824.11	25681
824.25	25590
824.389	25586
824.529	25864
824.669	25647
824.809	25936
824.949	25742
825.089	25822
825.228	25856
825.368	25544
825.508	25388
825.648	25358
825.787	25651
825.927	25571
826.067	25476
826.206	25506
826.346	25537
826.485	25605
826.625	25540
826.765	25586
826.904	25590
827.044	25236
827.183	25445
827.323	25148
827.462	25247
827.601	25266
827.741	25282
827.88	25221
828.02	24992
828.159	25266
828.298	25160
828.437	25274
828.577	25164
828.716	25487
828.855	25129
828.994	24875
829.134	25023
829.273	24977
829.412	24901
829.551	24829
829.69	24901
829.829	25160
829.968	25027
830.107	24901
830.246	24901
830.385	24871
830.524	24943
830.663	24947
830.802	24654
830.941	24540
831.08	24502
831.219	24593
831.357	24601
831.496	24734
831.635	24582
831.774	24403
831.913	24380
832.051	24414
832.19	24445
832.329	24376
832.467	24350
832.606	24289
832.744	24133
832.883	24251
833.022	24152
833.16	24380
833.299	24330
833.437	24342
833.576	24323
833.714	24266
833.852	24410
833.991	24258
834.129	24350
834.267	24403
834.406	24277
834.544	24353
834.682	24334
834.821	24167
834.959	24448
835.097	24186
835.235	24247
835.373	24277
835.511	24251
835.65	24102
835.788	24258
835.926	24133
836.064	23840
836.202	24022
836.34	24049
836.478	24114
836.615	24167
836.753	24049
836.891	24140
837.029	24148
837.167	24159
837.305	24095
837.443	23969
837.58	23889
837.718	24030
837.856	24011
837.993	23840
838.131	23942
838.269	23954
838.406	23904
838.544	23779
838.681	23615
838.819	23467
838.956	23505
839.094	23505
839.231	23509
839.369	23585
839.506	23866
839.643	23718
839.781	23345
839.918	23452
840.055	23444
840.193	23448
840.33	23254
840.467	23482
840.604	23383
840.742	23642
840.879	23220
841.016	23212
841.153	23315
841.29	23433
841.427	23505
841.564	23417
841.701	23326
841.838	23345
841.975	23174
842.112	23250
842.249	23197
842.385	23151
842.522	23315
842.659	23185
842.796	23044
842.933	23117
843.069	23128
843.206	23010
843.343	23136
843.479	23178
843.616	23010
843.752	22900
843.889	22961
844.025	23003
844.162	22847
844.298	22949
844.435	22801
844.571	22900
844.708	22968
844.844	23025
844.98	23018
845.117	23147
845.253	22900
845.389	22702
845.525	22797
845.661	22748
845.798	22577
845.934	22660
846.07	22538
846.206	22596
846.342	22656
846.478	22546
846.614	22371
846.75	22246
846.886	22344
847.022	22371
847.158	22280
847.294	22333
847.429	22398
847.565	22280
847.701	22554
847.837	21998
847.972	22051
848.108	22120
848.244	22048
848.379	22013
848.515	21972
848.65	21880
848.786	21987
848.921	21911
849.057	22059
849.192	22055
849.328	21819
849.463	21819
849.598	21892
849.734	21804
849.869	21679
850.004	21759
850.14	21701
850.275	21717
850.41	21622
850.545	21724
850.68	21679
850.815	21667
850.95	21720
851.085	21838
851.22	21690
851.355	21736
851.49	21648
851.625	21595
851.76	21690
851.895	21583
852.03	21564
852.165	21648
852.299	21751
852.434	21823
852.569	21778
852.703	21701
852.838	21766
852.973	21755
853.107	21774
853.242	21671
853.376	21614
853.511	21405
853.645	21511
853.78	21595
853.914	21526
854.048	21526
854.183	21405
854.317	21553
854.451	21732
854.585	21534
854.72	21492
854.854	21557
854.988	21553
855.122	21587
855.256	21332
855.39	21504
855.524	21583
855.658	21526
855.792	21496
855.926	21504
856.06	21591
856.194	21572
856.327	21629
856.461	21431
856.595	21393
856.729	21348
856.862	21610
856.996	21545
857.13	21477
857.263	21633
857.397	21633
857.53	21534
857.664	21545
857.797	21523
857.931	21542
858.064	21587
858.197	21545
858.331	21530
858.464	21408
858.597	21420
858.731	21424
858.864	21496
858.997	21424
859.13	21469
859.263	21530
859.396	21701
859.529	21454
859.662	21359
859.795	21610
859.928	21519
860.061	21709
860.194	21667
860.327	21557
860.46	21473
860.592	21557
860.725	21576
860.858	21610
860.99	21557
861.123	21431
861.256	21389
861.388	21576
861.521	22101
861.653	21325
861.786	21283
861.918	21317
862.05	21424
862.183	21310
862.315	21447
862.447	21496
862.58	21428
862.712	21207
862.844	21116
862.976	21397
863.108	21192
863.24	21561
863.372	21123
863.504	21135
863.636	21096
863.768	21135
863.9	21283
864.032	21173
864.164	21180
864.296	21192
864.428	21397
864.559	21230
864.691	21218
864.823	21146
864.954	21169
865.086	21058
865.217	21009
865.349	21161
865.48	21043
865.612	21131
865.743	21180
865.875	21218
866.006	20998
866.137	21195
866.269	21119
866.4	21070
866.531	20975
866.662	21058
866.793	20971
866.924	21017
867.055	21070
867.186	21009
867.317	20963
867.448	20895
867.579	20910
867.71	20948
867.841	20891
867.972	21005
868.103	21013
868.233	21013
868.364	20982
868.495	21146
868.625	21195
868.756	21507
868.886	21150
869.017	21275
869.147	21397
869.278	21435
869.408	21329
869.539	21252
869.669	21374
869.799	21321
869.929	21351
870.06	21310
870.19	21500
870.32	21549
870.45	21603
870.58	21606
870.71	21816
870.84	21762
870.97	21747
871.1	21599
871.23	21861
871.36	21842
871.489	21762
871.619	21797
871.749	21873
871.879	21892
872.008	21956
872.138	21968
872.267	21880
872.397	21789
872.526	21728
872.656	21762
872.785	21732
872.915	21888
873.044	21960
873.173	21941
873.303	21930
873.432	21937
873.561	21972
873.69	21918
873.819	21854
873.948	21918
874.077	22013
874.206	21812
874.335	21930
874.464	21888
874.593	22154
874.722	22154
874.851	22166
874.979	22059
875.108	22253
875.237	22154
875.365	22082
875.494	22044
875.623	22181
875.751	22105
875.88	22090
876.008	22128
876.136	22253
876.265	22527
876.393	22641
876.521	22500
876.65	22478
876.778	22561
876.906	22341
877.034	22314
877.162	22440
877.29	22470
877.418	22512
877.546	22386
877.674	22478
877.802	22500
877.93	22493
878.058	22276
878.185	22249
878.313	22504
878.441	22478
878.568	22424
878.696	22466
878.824	22557
878.951	22516
879.079	22649
879.206	22843
879.333	22618
879.461	22493
879.588	22550
879.715	22656
879.842	22725
879.97	22630
880.097	22265
880.224	22234
880.351	22291
880.478	22272
880.605	22284
880.732	22287
880.859	22546
880.986	22318
881.112	22223
881.239	22196
881.366	21972
881.493	21857
881.619	21903
881.746	21895
881.872	21823
881.999	21789
882.125	21850
882.252	21838
882.378	21854
882.505	21861
882.631	21770
882.757	21557
882.883	21587
883.01	21644
883.136	21595
883.262	21435
883.388	21439
883.514	21458
883.64	21538
883.766	21526
883.892	21389
884.018	21393
884.143	21538
884.269	21542
884.395	21249
884.52	21173
884.646	21207
884.772	21161
884.897	21039
885.023	21184
885.148	21340
885.274	21351
885.399	21348
885.524	21218
885.65	21131
885.775	21157
885.9	21237
886.025	21165
886.15	21138
886.275	21157
886.4	21176
886.525	21180
886.65	21127
886.775	21089
886.9	21275
887.025	21420
887.149	21089
887.274	21013
887.399	20944
887.523	20925
887.648	20982
887.773	20891
887.897	20975
888.021	20929
888.146	20929
888.27	21093
888.395	21020
888.519	20975
888.643	20845
888.767	21062
888.891	20876
889.015	20716
889.139	20629
889.263	20678
889.387	20834
889.511	20891
889.635	20925
889.759	20686
889.883	20716
890.006	20815
890.13	20853
890.254	20697
890.377	20556
890.501	20583
890.624	20526
890.748	20518
890.871	20419
890.995	20100
891.118	20206
891.241	20377
891.364	20370
891.488	20362
891.611	20450
891.734	20313
891.857	20343
891.98	20275
892.103	20377
892.226	20358
892.349	20286
892.471	20195
892.594	20313
892.717	20183
892.839	20126
892.962	20229
893.085	20149
893.207	20252
893.33	20161
893.452	20088
893.575	20252
893.697	20267
893.819	20415
893.941	20473
894.064	20313
894.186	20225
894.308	20100
894.43	20218
894.552	20396
894.674	20400
894.796	20142
894.918	20294
895.04	20202
895.161	20271
895.283	20461
895.405	20107
895.526	20168
895.648	20122
895.769	20278
895.891	20176
896.012	20244
896.134	20225
896.255	20336
896.376	20214
896.498	20218
896.619	20332
896.74	20233
896.861	20305
896.982	20526
897.103	20697
897.224	20621
897.345	20492
897.466	20461
897.587	20343
897.708	20583
897.828	20522
897.949	20385
898.07	20309
898.19	20374
898.311	20541
898.431	20328
898.552	20374
898.672	20499
898.792	20499
898.913	20514
899.033	20324
899.153	20347
899.273	20149
899.393	20176
899.513	20218
899.633	20267
899.753	20153
899.873	20031
899.993	20202
900.113	20290
900.232	20115
900.352	20157
900.472	19974
900.591	19879
900.711	20016
900.83	19940
900.95	19978
901.069	20031
901.189	19852
901.308	19727
901.427	19582
901.546	19567
901.665	19578
901.784	19457
901.904	19563
902.023	19365
902.141	19175
902.26	19152
902.379	19088
902.498	19000
902.617	19091
902.735	19069
902.854	19015
902.973	19053
903.091	18741
903.21	18772
903.328	18616
903.446	18597
903.565	18502
903.683	18547
903.801	18403
903.919	18479
904.038	18441
904.156	18292
904.274	18334
904.392	18262
904.51	18323
904.627	18247
904.745	18327
904.863	18471
904.981	18155
905.098	17927
905.216	17950
905.334	18053
905.451	18034
905.569	17920
905.686	18053
905.803	18049
905.921	17722
906.038	17817
906.155	17855
906.272	17608
906.389	17752
906.506	17573
906.623	17528
906.74	17482
906.857	17421
906.974	17391
907.091	17524
907.208	17604
907.324	17528
907.441	17326
907.557	17151
907.674	17250
907.79	17174
907.907	17174
908.023	17235
908.139	17208
908.256	17193
908.372	17109
908.488	17075
908.604	17010
908.72	16976
908.836	17025
908.952	16930
909.068	16961
909.184	16953
909.3	17048
909.415	16938
909.531	16869
909.647	16656
909.762	16675
909.878	16713
909.993	16577
910.108	16721
910.224	16611
910.339	16603
910.454	16405
910.57	16405
910.685	16329
910.8	16580
910.915	16542
911.03	16246
911.145	16352
911.259	16261
911.374	16318
911.489	16200
911.604	16147
911.718	15956
911.833	15915
911.947	15854
912.062	15781
912.176	16071
912.291	15945
912.405	15949
912.519	16162
912.633	16196
912.748	16036
912.862	16044
912.976	15827
913.09	15679
913.204	15728
913.318	15751
913.431	15842
913.545	15895
913.659	15861
913.772	15694
913.886	15580
914	15591
914.113	15629
914.226	15625
914.34	15736
914.453	15454
914.566	15633
914.68	15469
914.793	15408
914.906	15233
915.019	15340
915.132	15119
915.245	15093
915.358	15119
915.47	15195
915.583	15176
915.696	15211
915.809	15237
915.921	15340
916.034	15123
916.146	15116
916.259	15028
916.371	15131
916.483	15138
916.595	14960
916.708	15077
916.82	14967
916.932	14941
917.044	14929
917.156	14963
917.268	14853
917.38	14861
917.491	14811
917.603	14845
917.715	14895
917.826	14849
917.938	14815
918.049	14640
918.161	14861
918.272	14902
918.384	14929
918.495	14762
918.606	14636
918.717	14568
918.828	14659
918.939	14701
919.05	14545
919.161	14507
919.272	14412
919.383	14473
919.494	14598
919.604	14769
919.715	14602
919.826	14381
919.936	14511
920.047	14613
920.157	14571
920.267	14716
920.378	14731
920.488	14587
920.598	14777
920.708	14925
920.818	14697
920.928	14629
921.038	14834
921.148	14754
921.258	14514
921.368	14454
921.477	14218
921.587	14248
921.697	14256
921.806	14377
921.916	14221
922.025	14008
922.134	13947
922.244	13913
922.353	13951
922.462	13864
922.571	13830
922.68	13540
922.789	13525
922.898	13601
923.007	13487
923.116	13601
923.224	13677
923.333	13658
923.442	13449
923.55	13472
923.659	13445
923.767	13502
923.876	13301
923.984	13350
924.092	13362
924.201	13343
924.309	13339
924.417	13384
924.525	13316
924.633	13247
924.741	14244
924.849	13076
924.956	13232
925.064	13088
925.172	13061
925.279	12996
925.387	12958
925.494	12977
925.602	13129
925.709	13046
925.816	12859
925.924	12821
926.031	13034
926.138	12943
926.245	12989
926.352	12932
926.459	12973
926.566	13008
926.673	12837
926.779	12776
926.886	12681
926.993	12627
927.099	12589
927.206	12544
927.312	12525
927.419	12662
927.525	12494
927.631	12620
927.737	12357
927.843	12426
927.95	12251
928.056	12410
928.162	12327
928.267	12448
928.373	12916
928.479	12445
928.585	12251
928.69	12289
928.796	12365
928.901	12258
929.007	12155
929.112	12243
929.218	12186
929.323	12144
929.428	12159
929.533	12201
929.638	12136
929.743	12098
929.848	12117
929.953	12087
930.058	11969
930.163	11824
930.267	11828
930.372	11923
930.477	11714
930.581	11961
930.685	11866
930.79	11661
930.894	11756
930.998	11653
931.103	11794
931.207	11398
931.311	11326
931.415	11372
931.519	11071
931.623	11064
