Data from test_V78500241_74.txt Node
Date: Fri Mar 25 15:42:18 CST 2022
User: usil
Spectrometer: V785-0024
Trigger mode: 0
Integration Time (sec): 4.000000E-1
Scans to average: 1
Nonlinearity correction enabled: false
Boxcar width: 0
Storing dark spectrum: false
XAxis mode: Wavelengths
Number of Pixels in Spectrum: 1024
>>>>>Begin Spectral Data<<<<<
801.071	29988
801.214	29866
801.356	29691
801.499	29627
801.641	29417
801.783	29493
801.926	29398
802.068	29383
802.211	29463
802.353	29337
802.496	29162
802.638	29044
802.78	29098
802.923	28995
803.065	29041
803.208	28961
803.35	29025
803.492	29159
803.635	29223
803.777	29140
803.919	29208
804.061	29520
804.204	29364
804.346	29140
804.488	29124
804.63	29318
804.773	29105
804.915	29227
805.057	29269
805.199	29284
805.341	29326
805.483	29349
805.626	29341
805.768	29189
805.91	29299
806.052	29345
806.194	29299
806.336	29471
806.478	29311
806.62	29292
806.762	29638
806.904	29520
807.046	29638
807.188	29611
807.33	29733
807.472	29790
807.614	29528
807.756	29589
807.898	29581
808.04	29570
808.182	29547
808.324	29531
808.465	29615
808.607	29596
808.749	29764
808.891	29958
809.033	29980
809.174	29897
809.316	29855
809.458	29847
809.6	29889
809.741	29859
809.883	29908
810.025	30114
810.166	30076
810.308	30038
810.45	30053
810.591	30007
810.733	29767
810.875	29786
811.016	29741
811.158	29661
811.299	29927
811.441	29965
811.582	30049
811.724	29843
811.865	29646
812.007	29798
812.148	29794
812.29	29923
812.431	29931
812.573	30083
812.714	30285
812.855	30190
812.997	30437
813.138	30525
813.279	30338
813.421	30201
813.562	30258
813.703	30178
813.845	30007
813.986	29653
814.127	29547
814.268	29360
814.41	29551
814.551	29455
814.692	29562
814.833	29455
814.974	29246
815.115	29387
815.256	29265
815.397	29265
815.539	29315
815.68	29113
815.821	29174
815.962	29113
816.103	29105
816.244	28934
816.385	28953
816.526	28850
816.666	28599
816.807	28607
816.948	28649
817.089	28675
817.23	28641
817.371	28481
817.512	28459
817.653	28493
817.793	28493
817.934	28459
818.075	28538
818.216	28459
818.356	28424
818.497	28462
818.638	28101
818.778	28135
818.919	28223
819.06	28299
819.2	28291
819.341	28424
819.481	28413
819.622	28538
819.762	28645
819.903	28645
820.043	28504
820.184	28485
820.324	28508
820.465	28554
820.605	28417
820.746	28417
820.886	28325
821.026	28333
821.167	28356
821.307	28577
821.447	28348
821.588	28363
821.728	28116
821.868	27911
822.008	27941
822.149	27766
822.289	27937
822.429	27389
822.569	27549
822.709	27568
822.849	27359
822.99	27408
823.13	27214
823.27	27252
823.41	27142
823.55	27043
823.69	27116
823.83	27089
823.97	26876
824.11	26914
824.25	26842
824.389	26743
824.529	26971
824.669	26868
824.809	27047
824.949	27024
825.089	26956
825.228	26880
825.368	26670
825.508	26659
825.648	26708
825.787	26530
825.927	26682
826.067	26689
826.206	26648
826.346	26815
826.485	26762
826.625	26689
826.765	26800
826.904	26674
827.044	26423
827.183	26419
827.323	26248
827.462	26465
827.601	26298
827.741	26290
827.88	26351
828.02	26161
828.159	26347
828.298	26286
828.437	26320
828.577	26263
828.716	26400
828.855	26225
828.994	26039
829.134	25978
829.273	26107
829.412	25982
829.551	25890
829.69	25841
829.829	25982
829.968	26069
830.107	26035
830.246	25887
830.385	25833
830.524	25879
830.663	25742
830.802	25635
830.941	25533
831.08	25491
831.219	25613
831.357	25563
831.496	25830
831.635	25438
831.774	25362
831.913	25293
832.051	25236
832.19	25145
832.329	25133
832.467	25225
832.606	25088
832.744	25206
832.883	25137
833.022	25088
833.16	25164
833.299	25110
833.437	25091
833.576	25221
833.714	25209
833.852	25148
833.991	25053
834.129	25225
834.267	25103
834.406	25076
834.544	25126
834.682	25091
834.821	25027
834.959	25164
835.097	25050
835.235	25228
835.373	25110
835.511	24909
835.65	24977
835.788	24897
835.926	24802
836.064	24681
836.202	24684
836.34	24909
836.478	25027
836.615	24897
836.753	24848
836.891	25000
837.029	24837
837.167	24875
837.305	24840
837.443	24776
837.58	24688
837.718	24741
837.856	24741
837.993	24582
838.131	24730
838.269	24673
838.406	24601
838.544	24566
838.681	24369
838.819	24266
838.956	24152
839.094	24243
839.231	24235
839.369	24369
839.506	24528
839.643	24289
839.781	24110
839.918	24083
840.055	24190
840.193	24095
840.33	24018
840.467	24003
840.604	23996
840.742	24273
840.879	24018
841.016	23969
841.153	23767
841.29	24110
841.427	23965
841.564	23855
841.701	24018
841.838	24007
841.975	23916
842.112	23954
842.249	23817
842.385	23866
842.522	24064
842.659	23859
842.796	23600
842.933	23676
843.069	23668
843.206	23634
843.343	23714
843.479	23634
843.616	23623
843.752	23497
843.889	23452
844.025	23535
844.162	23421
844.298	23505
844.435	23410
844.571	23334
844.708	23505
844.844	23570
844.98	23376
845.117	23554
845.253	23303
845.389	23242
845.525	23307
845.661	23235
845.798	23212
845.934	23159
846.07	23056
846.206	22991
846.342	23239
846.478	23048
846.614	22847
846.75	22721
846.886	22763
847.022	22881
847.158	22740
847.294	22797
847.429	22896
847.565	22721
847.701	22991
847.837	22546
847.972	22554
848.108	22538
848.244	22561
848.379	22325
848.515	22417
848.65	22363
848.786	22489
848.921	22424
849.057	22352
849.192	22531
849.328	22356
849.463	22352
849.598	22394
849.734	22226
849.869	22185
850.004	22120
850.14	22238
850.275	22048
850.41	22032
850.545	21956
850.68	21945
850.815	22158
850.95	22086
851.085	22272
851.22	22063
851.355	21953
851.49	22051
851.625	22017
851.76	22074
851.895	21937
852.03	21857
852.165	21994
852.299	22124
852.434	22101
852.569	22135
852.703	22097
852.838	22063
852.973	22192
853.107	22124
853.242	21991
853.376	21835
853.511	21701
853.645	21793
853.78	21911
853.914	21743
854.048	21835
854.183	21793
854.317	21857
854.451	22097
854.585	21861
854.72	21747
854.854	21922
854.988	21793
855.122	21781
855.256	21644
855.39	21911
855.524	21937
855.658	21747
855.792	21755
855.926	21861
856.06	21937
856.194	21960
856.327	21842
856.461	21793
856.595	21770
856.729	21800
856.862	21892
856.996	21850
857.13	21922
857.263	21956
857.397	21873
857.53	21789
857.664	21857
857.797	21713
857.931	21793
858.064	21819
858.197	21975
858.331	21865
858.464	21682
858.597	21694
858.731	21679
858.864	21732
858.997	21743
859.13	21804
859.263	21880
859.396	21823
859.529	21717
859.662	21701
859.795	21869
859.928	21789
860.061	21804
860.194	22013
860.327	21850
860.46	21648
860.592	21804
860.725	21816
860.858	21770
860.99	21785
861.123	21663
861.256	21675
861.388	21671
861.521	22337
861.653	21713
861.786	21492
861.918	21717
862.05	21622
862.183	21736
862.315	21736
862.447	21922
862.58	21850
862.712	21587
862.844	21454
862.976	21545
863.108	21473
863.24	21861
863.372	21424
863.504	21405
863.636	21367
863.768	21405
863.9	21386
864.032	21458
864.164	21420
864.296	21454
864.428	21591
864.559	21420
864.691	21405
864.823	21561
864.954	21542
865.086	21378
865.217	21329
865.349	21230
865.48	21306
865.612	21329
865.743	21405
865.875	21306
866.006	21264
866.137	21310
866.269	21260
866.4	21291
866.531	21230
866.662	21298
866.793	21218
866.924	21344
867.055	21348
867.186	21325
867.317	21241
867.448	21127
867.579	21142
867.71	21116
867.841	21138
867.972	21233
868.103	21173
868.233	21203
868.364	21104
868.495	21389
868.625	21367
868.756	21534
868.886	21272
869.017	21481
869.147	21568
869.278	21603
869.408	21405
869.539	21564
869.669	21557
869.799	21378
869.929	21675
870.06	21488
870.19	21770
870.32	21701
870.45	21736
870.58	21755
870.71	21884
870.84	21979
870.97	21937
871.1	21816
871.23	22021
871.36	21968
871.489	21892
871.619	22010
871.749	21975
871.879	22051
872.008	22226
872.138	22029
872.267	21991
872.397	21861
872.526	21979
872.656	21911
872.785	22002
872.915	21991
873.044	22135
873.173	22166
873.303	22230
873.432	22162
873.561	22219
873.69	22032
873.819	22143
873.948	22116
874.077	22124
874.206	22017
874.335	22124
874.464	22169
874.593	22261
874.722	22280
874.851	22421
874.979	22363
875.108	22417
875.237	22287
875.365	22265
875.494	22215
875.623	22394
875.751	22344
875.88	22405
876.008	22531
876.136	22569
876.265	22755
876.393	22809
876.521	22660
876.65	22843
876.778	22683
876.906	22618
877.034	22561
877.162	22649
877.29	22554
877.418	22630
877.546	22725
877.674	22687
877.802	22607
877.93	22645
878.058	22550
878.185	22580
878.313	22649
878.441	22542
878.568	22466
878.696	22660
878.824	22759
878.951	22641
879.079	22839
879.206	22854
879.333	22820
879.461	22668
879.588	22778
879.715	22858
879.842	22919
879.97	22687
880.097	22542
880.224	22455
880.351	22478
880.478	22497
880.605	22421
880.732	22398
880.859	22744
880.986	22478
881.112	22512
881.239	22337
881.366	22135
881.493	22097
881.619	22097
881.746	22097
881.872	21987
881.999	21960
882.125	22078
882.252	22097
882.378	22112
882.505	22215
882.631	21857
882.757	21690
882.883	21823
883.01	21736
883.136	21667
883.262	21679
883.388	21580
883.514	21770
883.64	21785
883.766	21755
883.892	21625
884.018	21561
884.143	21637
884.269	21755
884.395	21420
884.52	21485
884.646	21439
884.772	21321
884.897	21382
885.023	21485
885.148	21523
885.274	21561
885.399	21435
885.524	21481
885.65	21393
885.775	21428
885.9	21386
886.025	21469
886.15	21408
886.275	21348
886.4	21249
886.525	21340
886.65	21344
886.775	21226
886.9	21443
887.025	21580
887.149	21256
887.274	21176
887.399	21138
887.523	21005
887.648	21077
887.773	20941
887.897	21127
888.021	21146
888.146	21036
888.27	21214
888.395	21256
888.519	21154
888.643	21161
888.767	21173
888.891	21047
889.015	20842
889.139	20941
889.263	20792
889.387	21043
889.511	21051
889.635	20986
889.759	20910
889.883	20823
890.006	20880
890.13	20937
890.254	20746
890.377	20804
890.501	20659
890.624	20617
890.748	20648
890.871	20503
890.995	20492
891.118	20385
891.241	20492
891.364	20450
891.488	20541
891.611	20351
891.734	20404
891.857	20583
891.98	20469
892.103	20499
892.226	20454
892.349	20374
892.471	20195
892.594	20404
892.717	20381
892.839	20339
892.962	20404
893.085	20431
893.207	20393
893.33	20301
893.452	20271
893.575	20404
893.697	20366
893.819	20545
893.941	20689
894.064	20446
894.186	20343
894.308	20366
894.43	20408
894.552	20469
894.674	20461
894.796	20206
894.918	20328
895.04	20237
895.161	20389
895.283	20465
895.405	20263
895.526	20442
895.648	20343
895.769	20415
895.891	20370
896.012	20484
896.134	20469
896.255	20389
896.376	20355
896.498	20317
896.619	20484
896.74	20328
896.861	20571
896.982	20769
897.103	20861
897.224	20568
897.345	20640
897.466	20571
897.587	20602
897.708	20670
897.828	20625
897.949	20488
898.07	20480
898.19	20564
898.311	20537
898.431	20438
898.552	20431
898.672	20617
898.792	20617
898.913	20476
899.033	20434
899.153	20339
899.273	20328
899.393	20259
899.513	20267
899.633	20282
899.753	20229
899.873	20001
899.993	20202
900.113	20126
900.232	20294
900.352	20134
900.472	19940
900.591	19909
900.711	20092
900.83	20084
900.95	20248
901.069	20107
901.189	19868
901.308	19803
901.427	19616
901.546	19715
901.665	19689
901.784	19643
901.904	19510
902.023	19419
902.141	19236
902.26	19107
902.379	19263
902.498	19160
902.617	19198
902.735	19156
902.854	19160
902.973	18973
903.091	18848
903.21	18776
903.328	18772
903.446	18722
903.565	18608
903.683	18566
903.801	18498
903.919	18521
904.038	18578
904.156	18407
904.274	18471
904.392	18407
904.51	18361
904.627	18304
904.745	18407
904.863	18353
904.981	18152
905.098	18057
905.216	17992
905.334	18026
905.451	18102
905.569	17878
905.686	17992
905.803	17984
905.921	17794
906.038	17878
906.155	17840
906.272	17684
906.389	17661
906.506	17520
906.623	17528
906.74	17448
906.857	17337
906.974	17402
907.091	17463
907.208	17619
907.324	17543
907.441	17455
907.557	17326
907.674	17246
907.79	17189
907.907	17136
908.023	17193
908.139	17242
908.256	17121
908.372	17033
908.488	16930
908.604	16869
908.72	16892
908.836	16812
908.952	16820
909.068	16843
909.184	16946
909.3	16847
909.415	16938
909.531	16740
909.647	16725
909.762	16634
909.878	16584
909.993	16565
910.108	16493
910.224	16493
910.339	16500
910.454	16356
910.57	16459
910.685	16257
910.8	16500
910.915	16531
911.03	16348
911.145	16143
911.259	16128
911.374	16166
911.489	15998
911.604	16025
911.718	15812
911.833	15835
911.947	15835
912.062	15819
912.176	15880
912.291	15918
912.405	15854
912.519	16105
912.633	15994
912.748	15941
912.862	15785
912.976	15709
913.09	15519
913.204	15622
913.318	15644
913.431	15793
913.545	15785
913.659	15781
913.772	15671
913.886	15469
914	15526
914.113	15599
914.226	15523
914.34	15591
914.453	15393
914.566	15454
914.68	15355
914.793	15351
914.906	15169
915.019	15169
915.132	15043
915.245	15097
915.358	15157
915.47	15100
915.583	15112
915.696	15123
915.809	15230
915.921	15226
916.034	15047
916.146	14967
916.259	14925
916.371	15039
916.483	14975
916.595	14883
916.708	14944
916.82	14883
916.932	14883
917.044	14880
917.156	14883
917.268	14720
917.38	14735
917.491	14754
917.603	14788
917.715	14857
917.826	14876
917.938	14670
918.049	14545
918.161	14716
918.272	14750
918.384	14834
918.495	14724
918.606	14450
918.717	14317
918.828	14522
918.939	14522
919.05	14408
919.161	14473
919.272	14336
919.383	14221
919.494	14457
919.604	14617
919.715	14461
919.826	14328
919.936	14415
920.047	14526
920.157	14355
920.267	14648
920.378	14404
920.488	14381
920.598	14568
920.708	14701
920.818	14552
920.928	14381
921.038	14716
921.148	14697
921.258	14309
921.368	14244
921.477	14145
921.587	14107
921.697	13989
921.806	14145
921.916	14008
922.025	13868
922.134	13902
922.244	13784
922.353	13799
922.462	13636
922.571	13609
922.68	13457
922.789	13407
922.898	13369
923.007	13350
923.116	13419
923.224	13396
923.333	13392
923.442	13263
923.55	13213
923.659	13285
923.767	13301
923.876	13141
923.984	13251
924.092	13118
924.201	13206
924.309	13213
924.417	13168
924.525	13084
924.633	13004
924.741	13951
924.849	12901
924.956	13000
925.064	12958
925.172	12753
925.279	12806
925.387	12840
925.494	12734
925.602	12954
925.709	12859
925.816	12764
925.924	12863
926.031	12817
926.138	12753
926.245	12810
926.352	12650
926.459	12837
926.566	12852
926.673	12707
926.779	12498
926.886	12555
926.993	12479
927.099	12369
927.206	12441
927.312	12285
927.419	12403
927.525	12403
927.631	12380
927.737	12338
927.843	12281
927.95	12095
928.056	12125
928.162	12292
928.267	12292
928.373	12875
928.479	12304
928.585	12064
928.69	12175
928.796	12197
928.901	12083
929.007	11950
929.112	11969
929.218	11969
929.323	11889
929.428	11912
929.533	12079
929.638	11802
929.743	11904
929.848	11927
929.953	11840
930.058	11851
930.163	11604
930.267	11585
930.372	11703
930.477	11596
930.581	11851
930.685	11623
930.79	11520
930.894	11425
930.998	11433
931.103	11566
931.207	11250
931.311	11067
931.415	11033
931.519	10839
931.623	10862
