Data from test_V78500241_3723.txt Node
Date: Fri Mar 25 16:07:35 CST 2022
User: usil
Spectrometer: V785-0024
Trigger mode: 0
Integration Time (sec): 4.000000E-1
Scans to average: 1
Nonlinearity correction enabled: false
Boxcar width: 0
Storing dark spectrum: false
XAxis mode: Wavelengths
Number of Pixels in Spectrum: 1024
>>>>>Begin Spectral Data<<<<<
801.071	28109
801.214	28314
801.356	28086
801.499	28010
801.641	27857
801.783	27800
801.926	27842
802.068	27732
802.211	27945
802.353	27762
802.496	27549
802.638	27610
802.78	27530
802.923	27367
803.065	27553
803.208	27378
803.35	27606
803.492	27587
803.635	27800
803.777	27603
803.919	27766
804.061	28128
804.204	27709
804.346	27686
804.488	27667
804.63	27781
804.773	27545
804.915	27861
805.057	27846
805.199	27709
805.341	27781
805.483	27831
805.626	27857
805.768	27914
805.91	27949
806.052	27781
806.194	27857
806.336	28150
806.478	27953
806.62	27968
806.762	27922
806.904	28173
807.046	28432
807.188	28306
807.33	28409
807.472	28401
807.614	28303
807.756	28299
807.898	27968
808.04	28181
808.182	28097
808.324	28192
808.465	28196
808.607	28447
808.749	28535
808.891	28687
809.033	28588
809.174	28592
809.316	28409
809.458	28440
809.6	28470
809.741	28664
809.883	28733
810.025	28706
810.166	28816
810.308	28915
810.45	28854
810.591	28839
810.733	28653
810.875	28417
811.016	28474
811.158	28508
811.299	28603
811.441	28691
811.582	28660
811.724	28561
811.865	28660
812.007	28733
812.148	28641
812.29	28641
812.431	28755
812.573	28805
812.714	28965
812.855	28987
812.997	29189
813.138	29356
813.279	29258
813.421	28999
813.562	29018
813.703	28892
813.845	28668
813.986	28428
814.127	28306
814.268	28188
814.41	28348
814.551	28242
814.692	28379
814.833	28287
814.974	28276
815.115	28268
815.256	28078
815.397	28078
815.539	28223
815.68	28109
815.821	28067
815.962	28090
816.103	28010
816.244	27903
816.385	27823
816.526	27808
816.666	27705
816.807	27492
816.948	27660
817.089	27641
817.23	27720
817.371	27595
817.512	27648
817.653	27454
817.793	27698
817.934	27561
818.075	27625
818.216	27545
818.356	27519
818.497	27367
818.638	27294
818.778	27412
818.919	27306
819.06	27351
819.2	27454
819.341	27633
819.481	27458
819.622	27774
819.762	27899
819.903	27797
820.043	27797
820.184	27694
820.324	27713
820.465	27690
820.605	27819
820.746	27682
820.886	27504
821.026	27587
821.167	27618
821.307	27610
821.447	27606
821.588	27447
821.728	27351
821.868	27173
822.008	26998
822.149	27024
822.289	27161
822.429	26864
822.569	26754
822.709	26876
822.849	26560
822.99	26598
823.13	26552
823.27	26507
823.41	26374
823.55	26358
823.69	26412
823.83	26271
823.97	26202
824.11	26389
824.25	26107
824.389	26248
824.529	26320
824.669	26256
824.809	26385
824.949	26225
825.089	26271
825.228	26336
825.368	25966
825.508	26073
825.648	26005
825.787	26020
825.927	26172
826.067	26039
826.206	26016
826.346	26039
826.485	26088
826.625	26024
826.765	26149
826.904	26084
827.044	25830
827.183	25940
827.323	25826
827.462	25822
827.601	25776
827.741	25833
827.88	25849
828.02	25628
828.159	25723
828.298	25822
828.437	25776
828.577	25719
828.716	25845
828.855	25582
828.994	25373
829.134	25601
829.273	25525
829.412	25468
829.551	25449
829.69	25392
829.829	25540
829.968	25685
830.107	25502
830.246	25472
830.385	25430
830.524	25441
830.663	25419
830.802	25160
830.941	24973
831.08	25103
831.219	25282
831.357	25251
831.496	25282
831.635	25042
831.774	25088
831.913	24951
832.051	24989
832.19	24837
832.329	24977
832.467	24806
832.606	24806
832.744	24730
832.883	24715
833.022	24779
833.16	24722
833.299	24867
833.437	24840
833.576	24875
833.714	24833
833.852	24909
833.991	24810
834.129	24817
834.267	24859
834.406	24916
834.544	24913
834.682	24798
834.821	24875
834.959	24989
835.097	24730
835.235	24852
835.373	24867
835.511	24726
835.65	24665
835.788	24791
835.926	24483
836.064	24445
836.202	24525
836.34	24627
836.478	24810
836.615	24661
836.753	24734
836.891	24616
837.029	24654
837.167	24525
837.305	24654
837.443	24620
837.58	24525
837.718	24650
837.856	24429
837.993	24566
838.131	24391
838.269	24262
838.406	24433
838.544	24232
838.681	24155
838.819	24083
838.956	23973
839.094	23832
839.231	23935
839.369	24140
839.506	24346
839.643	24190
839.781	23996
839.918	23992
840.055	23885
840.193	23916
840.33	23779
840.467	23965
840.604	23889
840.742	24095
840.879	23729
841.016	23794
841.153	23824
841.29	23904
841.427	23889
841.564	23790
841.701	23847
841.838	23863
841.975	23729
842.112	23866
842.249	23718
842.385	23665
842.522	23775
842.659	23676
842.796	23672
842.933	23619
843.069	23608
843.206	23615
843.343	23642
843.479	23695
843.616	23722
843.752	23296
843.889	23520
844.025	23600
844.162	23292
844.298	23512
844.435	23235
844.571	23402
844.708	23372
844.844	23554
844.98	23478
845.117	23516
845.253	23425
845.389	23345
845.525	23299
845.661	23273
845.798	23208
845.934	23162
846.07	23159
846.206	23159
846.342	23292
846.478	22995
846.614	22873
846.75	22866
846.886	22869
847.022	22889
847.158	22938
847.294	22923
847.429	22949
847.565	22759
847.701	23105
847.837	22478
847.972	22516
848.108	22660
848.244	22611
848.379	22546
848.515	22402
848.65	22417
848.786	22428
848.921	22535
849.057	22481
849.192	22550
849.328	22512
849.463	22386
849.598	22337
849.734	22421
849.869	22356
850.004	22265
850.14	22166
850.275	22268
850.41	22128
850.545	22207
850.68	22143
850.815	22200
850.95	22192
851.085	22344
851.22	22287
851.355	22246
851.49	22223
851.625	22090
851.76	22344
851.895	22105
852.03	22223
852.165	22188
852.299	22226
852.434	22421
852.569	22226
852.703	22325
852.838	22314
852.973	22291
853.107	22200
853.242	22219
853.376	22109
853.511	22013
853.645	21964
853.78	22131
853.914	22086
854.048	21895
854.183	21964
854.317	22070
854.451	22150
854.585	22105
854.72	21987
854.854	22162
854.988	22074
855.122	22055
855.256	21857
855.39	22124
855.524	22128
855.658	22166
855.792	22105
855.926	22021
856.06	22097
856.194	22101
856.327	22010
856.461	21926
856.595	21846
856.729	21926
856.862	22215
856.996	22055
857.13	21998
857.263	22067
857.397	22120
857.53	22021
857.664	22090
857.797	22059
857.931	22181
858.064	22044
858.197	22128
858.331	22010
858.464	22040
858.597	21987
858.731	22063
858.864	22143
858.997	21972
859.13	22044
859.263	22082
859.396	22207
859.529	21953
859.662	21926
859.795	22067
859.928	21964
860.061	22242
860.194	22238
860.327	22078
860.46	22063
860.592	22070
860.725	22173
860.858	22162
860.99	22135
861.123	22017
861.256	21953
861.388	22074
861.521	22649
861.653	21968
861.786	21953
861.918	21850
862.05	21854
862.183	21945
862.315	21987
862.447	22025
862.58	21972
862.712	21804
862.844	21724
862.976	21838
863.108	21762
863.24	22109
863.372	21827
863.504	21781
863.636	21614
863.768	21759
863.9	21857
864.032	21629
864.164	21682
864.296	21751
864.428	21789
864.559	21808
864.691	21827
864.823	21599
864.954	21724
865.086	21652
865.217	21701
865.349	21511
865.48	21641
865.612	21595
865.743	21637
865.875	21633
866.006	21564
866.137	21705
866.269	21519
866.4	21549
866.531	21682
866.662	21553
866.793	21500
866.924	21637
867.055	21629
867.186	21568
867.317	21386
867.448	21515
867.579	21412
867.71	21568
867.841	21469
867.972	21534
868.103	21568
868.233	21557
868.364	21610
868.495	21652
868.625	21770
868.756	21865
868.886	21728
869.017	21759
869.147	21972
869.278	21918
869.408	21766
869.539	21831
869.669	21808
869.799	21838
869.929	21926
870.06	21949
870.19	22109
870.32	22166
870.45	22139
870.58	22238
870.71	22306
870.84	22436
870.97	22090
871.1	22299
871.23	22226
871.36	22356
871.489	22409
871.619	22303
871.749	22485
871.879	22386
872.008	22382
872.138	22398
872.267	22474
872.397	22447
872.526	22360
872.656	22204
872.785	22238
872.915	22348
873.044	22485
873.173	22470
873.303	22500
873.432	22371
873.561	22462
873.69	22478
873.819	22504
873.948	22569
874.077	22413
874.206	22405
874.335	22363
874.464	22535
874.593	22694
874.722	22481
874.851	22771
874.979	22664
875.108	22706
875.237	22626
875.365	22573
875.494	22759
875.623	22759
875.751	22523
875.88	22725
876.008	22675
876.136	22866
876.265	23121
876.393	23178
876.521	23155
876.65	23113
876.778	23064
876.906	23048
877.034	22915
877.162	22953
877.29	22862
877.418	22999
877.546	22949
877.674	22949
877.802	23143
877.93	23044
878.058	22946
878.185	22786
878.313	22934
878.441	22873
878.568	22873
878.696	22824
878.824	22881
878.951	22953
879.079	23014
879.206	23284
879.333	23193
879.461	23102
879.588	23094
879.715	23231
879.842	23284
879.97	23037
880.097	22816
880.224	22835
880.351	22820
880.478	22824
880.605	22778
880.732	22759
880.859	23010
880.986	22820
881.112	22949
881.239	22706
881.366	22512
881.493	22379
881.619	22478
881.746	22436
881.872	22504
881.999	22382
882.125	22344
882.252	22318
882.378	22367
882.505	22413
882.631	22318
882.757	21945
882.883	22139
883.01	22158
883.136	22051
883.262	21956
883.388	21911
883.514	22040
883.64	22074
883.766	22010
883.892	21888
884.018	21808
884.143	21934
884.269	22086
884.395	21808
884.52	21682
884.646	21785
884.772	21614
884.897	21587
885.023	21637
885.148	21797
885.274	21888
885.399	21812
885.524	21717
885.65	21800
885.775	21728
885.9	21709
886.025	21918
886.15	21762
886.275	21614
886.4	21656
886.525	21728
886.65	21587
886.775	21656
886.9	21800
887.025	21827
887.149	21701
887.274	21504
887.399	21313
887.523	21519
887.648	21416
887.773	21412
887.897	21583
888.021	21420
888.146	21355
888.27	21660
888.395	21519
888.519	21458
888.643	21526
888.767	21526
888.891	21351
889.015	21325
889.139	21344
889.263	21435
889.387	21473
889.511	21496
889.635	21336
889.759	21287
889.883	21325
890.006	21245
890.13	21310
890.254	21165
890.377	21249
890.501	20963
890.624	21039
890.748	21043
890.871	20941
890.995	20804
891.118	20777
891.241	20830
891.364	20960
891.488	20785
891.611	20921
891.734	20921
891.857	20883
891.98	20617
892.103	20773
892.226	20796
892.349	20872
892.471	20575
892.594	20667
892.717	20731
892.839	20796
892.962	20670
893.085	20712
893.207	20674
893.33	20613
893.452	20678
893.575	20746
893.697	20648
893.819	20716
893.941	20925
894.064	20876
894.186	20674
894.308	20720
894.43	20838
894.552	20880
894.674	20720
894.796	20575
894.918	20720
895.04	20621
895.161	20727
895.283	20754
895.405	20575
895.526	20716
895.648	20587
895.769	20648
895.891	20640
896.012	20746
896.134	20754
896.255	20636
896.376	20644
896.498	20568
896.619	20758
896.74	20663
896.861	20724
896.982	21055
897.103	21146
897.224	20868
897.345	20872
897.466	20807
897.587	20929
897.708	21066
897.828	20906
897.949	20743
898.07	20735
898.19	20796
898.311	20963
898.431	20838
898.552	20887
898.672	20861
898.792	20891
898.913	20899
899.033	20754
899.153	20712
899.273	20590
899.393	20632
899.513	20705
899.633	20644
899.753	20636
899.873	20602
899.993	20617
900.113	20583
900.232	20625
900.352	20530
900.472	20362
900.591	20290
900.711	20434
900.83	20320
900.95	20476
901.069	20419
901.189	20301
901.308	20126
901.427	20008
901.546	19974
901.665	19986
901.784	19986
901.904	19841
902.023	19715
902.141	19594
902.26	19445
902.379	19559
902.498	19586
902.617	19377
902.735	19601
902.854	19388
902.973	19350
903.091	19202
903.21	19072
903.328	19160
903.446	19080
903.565	19000
903.683	19110
903.801	18817
903.919	19000
904.038	18993
904.156	18791
904.274	18791
904.392	18741
904.51	18722
904.627	18738
904.745	18825
904.863	18852
904.981	18452
905.098	18429
905.216	18395
905.334	18395
905.451	18429
905.569	18380
905.686	18426
905.803	18289
905.921	18098
906.038	18239
906.155	18167
906.272	18155
906.389	18072
906.506	17969
906.623	17809
906.74	17935
906.857	17832
906.974	17832
907.091	18057
907.208	17958
907.324	18064
907.441	17699
907.557	17661
907.674	17509
907.79	17630
907.907	17562
908.023	17547
908.139	17695
908.256	17516
908.372	17539
908.488	17520
908.604	17353
908.72	17402
908.836	17486
908.952	17223
909.068	17448
909.184	17467
909.3	17341
909.415	17273
909.531	17239
909.647	17067
909.762	17029
909.878	16930
909.993	17041
910.108	17014
910.224	17083
910.339	17052
910.454	16858
910.57	16824
910.685	16698
910.8	17132
910.915	16892
911.03	16866
911.145	16603
911.259	16603
911.374	16683
911.489	16538
911.604	16516
911.718	16299
911.833	16386
911.947	16371
912.062	16143
912.176	16344
912.291	16371
912.405	16333
912.519	16588
912.633	16675
912.748	16356
912.862	16363
912.976	16192
913.09	16013
913.204	16093
913.318	16211
913.431	16280
913.545	16230
913.659	16287
913.772	16169
913.886	16040
914	16006
914.113	16097
914.226	16128
914.34	15979
914.453	15907
914.566	15991
914.68	15926
914.793	15884
914.906	15591
915.019	15667
915.132	15580
915.245	15466
915.358	15580
915.47	15515
915.583	15625
915.696	15504
915.809	15648
915.921	15736
916.034	15477
916.146	15443
916.259	15401
916.371	15591
916.483	15523
916.595	15412
916.708	15351
916.82	15348
916.932	15336
917.044	15359
917.156	15279
917.268	15146
917.38	15317
917.491	15264
917.603	15150
917.715	15268
917.826	15283
917.938	15199
918.049	15062
918.161	15165
918.272	15283
918.384	15249
918.495	15180
918.606	14963
918.717	14929
918.828	14933
918.939	14979
919.05	14788
919.161	14880
919.272	14720
919.383	14686
919.494	15013
919.604	15169
919.715	14998
919.826	14838
919.936	14842
920.047	15081
920.157	14918
920.267	15093
920.378	14883
920.488	14815
920.598	15154
920.708	15176
920.818	15047
920.928	15043
921.038	15214
921.148	15066
921.258	14838
921.368	14689
921.477	14697
921.587	14659
921.697	14613
921.806	14625
921.916	14473
922.025	14362
922.134	14332
922.244	14210
922.353	14313
922.462	14164
922.571	14119
922.68	13997
922.789	13959
922.898	14035
923.007	13967
923.116	13967
923.224	13917
923.333	14024
923.442	13685
923.55	13814
923.659	13757
923.767	13830
923.876	13700
923.984	13708
924.092	13594
924.201	13723
924.309	13704
924.417	13704
924.525	13601
924.633	13556
924.741	14339
924.849	13358
924.956	13460
925.064	13350
925.172	13278
925.279	13312
925.387	13438
925.494	13392
925.602	13502
925.709	13335
925.816	13274
925.924	13213
926.031	13369
926.138	13209
926.245	13232
926.352	13175
926.459	13282
926.566	13304
926.673	13266
926.779	12913
926.886	13046
926.993	12943
927.099	12848
927.206	12886
927.312	12810
927.419	12852
927.525	12840
927.631	12840
927.737	12722
927.843	12703
927.95	12593
928.056	12665
928.162	12654
928.267	12703
928.373	13297
928.479	12719
928.585	12448
928.69	12620
928.796	12635
928.901	12525
929.007	12346
929.112	12544
929.218	12559
929.323	12410
929.428	12403
929.533	12612
929.638	12289
929.743	12319
929.848	12437
929.953	12361
930.058	12247
930.163	12095
930.267	12129
930.372	12251
930.477	11912
930.581	12327
930.685	12106
930.79	11996
930.894	12019
930.998	11908
931.103	12049
931.207	11665
931.311	11642
931.415	11596
931.519	11364
931.623	11261
