Data from test_V78500241_30.txt Node
Date: Fri Mar 25 15:42:00 CST 2022
User: usil
Spectrometer: V785-0024
Trigger mode: 0
Integration Time (sec): 4.000000E-1
Scans to average: 1
Nonlinearity correction enabled: false
Boxcar width: 0
Storing dark spectrum: false
XAxis mode: Wavelengths
Number of Pixels in Spectrum: 1024
>>>>>Begin Spectral Data<<<<<
801.071	27504
801.214	27458
801.356	27096
801.499	26906
801.641	26880
801.783	26788
801.926	26979
802.068	26788
802.211	26693
802.353	26640
802.496	26453
802.638	26370
802.78	26320
802.923	26408
803.065	26157
803.208	26286
803.35	26301
803.492	26408
803.635	26400
803.777	26347
803.919	26476
804.061	26670
804.204	26537
804.346	26286
804.488	26240
804.63	26252
804.773	26221
804.915	26218
805.057	26412
805.199	26324
805.341	26389
805.483	26389
805.626	26408
805.768	26381
805.91	26404
806.052	26427
806.194	26244
806.336	26469
806.478	26339
806.62	26537
806.762	26568
806.904	26613
807.046	26940
807.188	26644
807.33	26800
807.472	26785
807.614	26697
807.756	26667
807.898	26511
808.04	26571
808.182	26317
808.324	26415
808.465	26495
808.607	26636
808.749	26682
808.891	26788
809.033	26933
809.174	26777
809.316	26686
809.458	26754
809.6	26849
809.741	26895
809.883	26811
810.025	26967
810.166	27005
810.308	26944
810.45	26910
810.591	26921
810.733	26788
810.875	26613
811.016	26545
811.158	26469
811.299	26910
811.441	26944
811.582	26739
811.724	26655
811.865	26568
812.007	26609
812.148	26629
812.29	26648
812.431	26754
812.573	26918
812.714	27066
812.855	27070
812.997	27173
813.138	27412
813.279	27287
813.421	27214
813.562	27032
813.703	26746
813.845	26876
813.986	26564
814.127	26351
814.268	26290
814.41	26347
814.551	26278
814.692	26259
814.833	26153
814.974	26100
815.115	26153
815.256	26092
815.397	26050
815.539	25925
815.68	25947
815.821	25765
815.962	25833
816.103	25963
816.244	25807
816.385	25567
816.526	25575
816.666	25415
816.807	25278
816.948	25331
817.089	25384
817.23	25358
817.371	25232
817.512	25225
817.653	25206
817.793	25141
817.934	25209
818.075	25335
818.216	25293
818.356	25190
818.497	25072
818.638	24878
818.778	24985
818.919	24939
819.06	24951
819.2	24928
819.341	25053
819.481	25023
819.622	25304
819.762	25495
819.903	25400
820.043	25194
820.184	25221
820.324	25240
820.465	25297
820.605	25133
820.746	25236
820.886	24939
821.026	25179
821.167	25194
821.307	25148
821.447	25076
821.588	25110
821.728	24859
821.868	24802
822.008	24429
822.149	24513
822.289	24544
822.429	24334
822.569	24152
822.709	24148
822.849	24072
822.99	24026
823.13	23874
823.27	23885
823.41	23786
823.55	23748
823.69	23855
823.83	23786
823.97	23741
824.11	23611
824.25	23482
824.389	23459
824.529	23543
824.669	23406
824.809	23684
824.949	23615
825.089	23478
825.228	23562
825.368	23379
825.508	23185
825.648	23254
825.787	23277
825.927	23277
826.067	23204
826.206	23261
826.346	23463
826.485	23261
826.625	23200
826.765	23372
826.904	23322
827.044	22957
827.183	23014
827.323	22869
827.462	22984
827.601	23037
827.741	22885
827.88	22862
828.02	22698
828.159	22847
828.298	22850
828.437	22881
828.577	22740
828.716	22987
828.855	22873
828.994	22637
829.134	22649
829.273	22607
829.412	22546
829.551	22607
829.69	22557
829.829	22672
829.968	22668
830.107	22656
830.246	22733
830.385	22481
830.524	22542
830.663	22390
830.802	22299
830.941	22226
831.08	22017
831.219	22348
831.357	22238
831.496	22337
831.635	22181
831.774	22036
831.913	21979
832.051	21892
832.19	21983
832.329	21956
832.467	21713
832.606	21713
832.744	21652
832.883	21800
833.022	21717
833.16	21846
833.299	21720
833.437	21694
833.576	21698
833.714	21812
833.852	21819
833.991	21762
834.129	21793
834.267	21812
834.406	21720
834.544	21816
834.682	21705
834.821	21736
834.959	21857
835.097	21709
835.235	21789
835.373	21785
835.511	21709
835.65	21686
835.788	21587
835.926	21496
836.064	21454
836.202	21397
836.34	21648
836.478	21690
836.615	21515
836.753	21637
836.891	21675
837.029	21698
837.167	21618
837.305	21428
837.443	21378
837.58	21466
837.718	21507
837.856	21401
837.993	21462
838.131	21462
838.269	21389
838.406	21348
838.544	21321
838.681	21127
838.819	21058
838.956	20960
839.094	20979
839.231	20838
839.369	21077
839.506	21112
839.643	21123
839.781	20918
839.918	20777
840.055	20834
840.193	20720
840.33	20819
840.467	20765
840.604	20842
840.742	21119
840.879	20621
841.016	20724
841.153	20735
841.29	20826
841.427	20727
841.564	20762
841.701	20861
841.838	20682
841.975	20674
842.112	20648
842.249	20613
842.385	20419
842.522	20708
842.659	20571
842.796	20503
842.933	20461
843.069	20442
843.206	20370
843.343	20549
843.479	20419
843.616	20499
843.752	20187
843.889	20157
844.025	20294
844.162	20100
844.298	20332
844.435	20161
844.571	20115
844.708	20290
844.844	20377
844.98	20221
845.117	20381
845.253	20195
845.389	19970
845.525	19986
845.661	20058
845.798	19974
845.934	19967
846.07	19788
846.206	19913
846.342	20100
846.478	19871
846.614	19776
846.75	19518
846.886	19616
847.022	19685
847.158	19776
847.294	19616
847.429	19830
847.565	19624
847.701	19852
847.837	19438
847.972	19346
848.108	19521
848.244	19491
848.379	19259
848.515	19244
848.65	19198
848.786	19171
848.921	19225
849.057	19324
849.192	19263
849.328	19247
849.463	19183
849.598	19194
849.734	19099
849.869	19091
850.004	18890
850.14	18932
850.275	18947
850.41	18878
850.545	18772
850.68	18875
850.815	18973
850.95	18894
851.085	19179
851.22	18878
851.355	18943
851.49	18833
851.625	18871
851.76	18882
851.895	18795
852.03	18863
852.165	19008
852.299	18932
852.434	19004
852.569	18844
852.703	18814
852.838	18897
852.973	18947
853.107	19110
853.242	18802
853.376	18776
853.511	18589
853.645	18635
853.78	18772
853.914	18730
854.048	18665
854.183	18734
854.317	18730
854.451	19019
854.585	18673
854.72	18684
854.854	18749
854.988	18745
855.122	18654
855.256	18620
855.39	18658
855.524	18730
855.658	18852
855.792	18726
855.926	18772
856.06	18760
856.194	18859
856.327	18700
856.461	18597
856.595	18494
856.729	18738
856.862	18829
856.996	18768
857.13	18810
857.263	18715
857.397	18726
857.53	18696
857.664	18669
857.797	18745
857.931	18757
858.064	18738
858.197	18852
858.331	18711
858.464	18646
858.597	18604
858.731	18646
858.864	18616
858.997	18620
859.13	18658
859.263	18597
859.396	18810
859.529	18627
859.662	18585
859.795	18483
859.928	18570
860.061	18772
860.194	18897
860.327	18658
860.46	18528
860.592	18753
860.725	18745
860.858	18848
860.99	18620
861.123	18654
861.256	18464
861.388	18623
861.521	19107
861.653	18513
861.786	18456
861.918	18566
862.05	18623
862.183	18654
862.315	18730
862.447	18833
862.58	18661
862.712	18540
862.844	18357
862.976	18426
863.108	18429
863.24	18616
863.372	18216
863.504	18334
863.636	18270
863.768	18327
863.9	18315
864.032	18171
864.164	18300
864.296	18357
864.428	18422
864.559	18380
864.691	18403
864.823	18369
864.954	18391
865.086	18232
865.217	18273
865.349	18213
865.48	18376
865.612	18216
865.743	18517
865.875	18232
866.006	18140
866.137	18403
866.269	18285
866.4	18251
866.531	18129
866.662	18178
866.793	18224
866.924	18239
867.055	18296
867.186	18171
867.317	18163
867.448	18110
867.579	18133
867.71	18194
867.841	18011
867.972	18178
868.103	18232
868.233	18235
868.364	18247
868.495	18266
868.625	18429
868.756	18532
868.886	18414
869.017	18475
869.147	18464
869.278	18578
869.408	18399
869.539	18460
869.669	18483
869.799	18467
869.929	18616
870.06	18536
870.19	18833
870.32	18620
870.45	18802
870.58	18814
870.71	18947
870.84	18924
870.97	18795
871.1	18814
871.23	19069
871.36	19027
871.489	18981
871.619	19012
871.749	19061
871.879	19034
872.008	19122
872.138	19042
872.267	19019
872.397	18859
872.526	18806
872.656	18871
872.785	18890
872.915	19061
873.044	19129
873.173	19019
873.303	19110
873.432	19110
873.561	19141
873.69	19152
873.819	19164
873.948	19160
874.077	19103
874.206	19053
874.335	19168
874.464	19145
874.593	19400
874.722	19381
874.851	19422
874.979	19491
875.108	19453
875.237	19304
875.365	19285
875.494	19377
875.623	19324
875.751	19381
875.88	19449
876.008	19472
876.136	19514
876.265	19765
876.393	19902
876.521	19765
876.65	19830
876.778	19757
876.906	19635
877.034	19734
877.162	19807
877.29	19731
877.418	19742
877.546	19761
877.674	19670
877.802	19795
877.93	19814
878.058	19727
878.185	19616
878.313	19674
878.441	19776
878.568	19567
878.696	19742
878.824	19727
878.951	19875
879.079	19799
879.206	19993
879.333	19860
879.461	19807
879.588	19860
879.715	19902
879.842	19978
879.97	19803
880.097	19693
880.224	19594
880.351	19693
880.478	19605
880.605	19613
880.732	19597
880.859	19932
880.986	19578
881.112	19662
881.239	19464
881.366	19274
881.493	19164
881.619	19099
881.746	19236
881.872	19179
881.999	19133
882.125	19266
882.252	19228
882.378	19225
882.505	19259
882.631	19046
882.757	19019
882.883	19015
883.01	19004
883.136	18886
883.262	18791
883.388	18779
883.514	19031
883.64	19004
883.766	18886
883.892	18757
884.018	18856
884.143	19000
884.269	19023
884.395	18848
884.52	18684
884.646	18547
884.772	18551
884.897	18574
885.023	18620
885.148	18798
885.274	18787
885.399	18604
885.524	18620
885.65	18585
885.775	18540
885.9	18665
886.025	18783
886.15	18703
886.275	18593
886.4	18494
886.525	18547
886.65	18521
886.775	18528
886.9	18684
887.025	18776
887.149	18563
887.274	18452
887.399	18353
887.523	18437
887.648	18330
887.773	18319
887.897	18372
888.021	18380
888.146	18372
888.27	18513
888.395	18471
888.519	18403
888.643	18414
888.767	18467
888.891	18372
889.015	18289
889.139	18330
889.263	18121
889.387	18300
889.511	18304
889.635	18292
889.759	18258
889.883	18163
890.006	18136
890.13	18311
890.254	17950
890.377	18110
890.501	17992
890.624	17908
890.748	17946
890.871	17855
890.995	17828
891.118	17756
891.241	17783
891.364	17870
891.488	17885
891.611	17824
891.734	17790
891.857	17942
891.98	17939
892.103	17893
892.226	17764
892.349	17889
892.471	17638
892.594	17771
892.717	17847
892.839	17794
892.962	17604
893.085	17805
893.207	17718
893.33	17676
893.452	17729
893.575	17863
893.697	17779
893.819	17897
893.941	18003
894.064	17923
894.186	17687
894.308	17646
894.43	17775
894.552	17980
894.674	17813
894.796	17756
894.918	17710
895.04	17813
895.161	17843
895.283	17889
895.405	17687
895.526	17779
895.648	17840
895.769	17817
895.891	17897
896.012	17889
896.134	17874
896.255	17923
896.376	17756
896.498	17828
896.619	17828
896.74	17870
896.861	17935
896.982	18133
897.103	18346
897.224	18232
897.345	18114
897.466	18087
897.587	18117
897.708	18232
897.828	18159
897.949	18095
898.07	17855
898.19	18053
898.311	18239
898.431	18041
898.552	17992
898.672	18220
898.792	18220
898.913	18015
899.033	17969
899.153	17866
899.273	17764
899.393	17885
899.513	17866
899.633	17893
899.753	17950
899.873	17798
899.993	17836
900.113	17783
900.232	17843
900.352	17786
900.472	17756
900.591	17604
900.711	17722
900.83	17665
900.95	17813
901.069	17790
901.189	17627
901.308	17436
901.427	17349
901.546	17326
901.665	17364
901.784	17292
901.904	17086
902.023	17064
902.141	16877
902.26	16755
902.379	16900
902.498	16881
902.617	16744
902.735	16805
902.854	16729
902.973	16710
903.091	16485
903.21	16451
903.328	16561
903.446	16432
903.565	16280
903.683	16299
903.801	16230
903.919	16261
904.038	16268
904.156	16082
904.274	16207
904.392	16032
904.51	15994
904.627	16017
904.745	16169
904.863	16025
904.981	15835
905.098	15804
905.216	15648
905.334	15759
905.451	15724
905.569	15785
905.686	15709
905.803	15709
905.921	15625
906.038	15629
906.155	15542
906.272	15431
906.389	15420
906.506	15325
906.623	15298
906.74	15329
906.857	15165
906.974	15313
907.091	15336
907.208	15485
907.324	15287
907.441	15249
907.557	15058
907.674	14826
907.79	14998
907.907	14967
908.023	15024
908.139	14861
908.256	14960
908.372	14857
908.488	14868
908.604	14686
908.72	14693
908.836	14739
908.952	14587
909.068	14648
909.184	14857
909.3	14629
909.415	14689
909.531	14636
909.647	14389
909.762	14385
909.878	14438
909.993	14305
910.108	14282
910.224	14324
910.339	14381
910.454	14290
910.57	14149
910.685	14191
910.8	14499
910.915	14465
911.03	14252
911.145	14012
911.259	14039
911.374	13947
911.489	13970
911.604	13940
911.718	13723
911.833	13776
911.947	13700
912.062	13674
912.176	13807
912.291	13883
912.405	13784
912.519	14024
912.633	14016
912.748	13830
912.862	13761
912.976	13715
913.09	13476
913.204	13601
913.318	13643
913.431	13655
913.545	13666
913.659	13761
913.772	13616
913.886	13400
914	13377
914.113	13495
914.226	13537
914.34	13571
914.453	13365
914.566	13480
914.68	13301
914.793	13358
914.906	13194
915.019	13110
915.132	13057
915.245	13107
915.358	13190
915.47	13046
915.583	13149
915.696	13251
915.809	13244
915.921	13213
916.034	13103
916.146	13019
916.259	13023
916.371	13164
916.483	13133
916.595	13008
916.708	13012
916.82	13080
916.932	12909
917.044	13004
917.156	12913
917.268	12795
917.38	12844
917.491	12814
917.603	12863
917.715	12913
917.826	12966
917.938	12814
918.049	12665
918.161	12798
918.272	12924
918.384	13008
918.495	12753
918.606	12741
918.717	12566
918.828	12639
918.939	12673
919.05	12528
919.161	12673
919.272	12399
919.383	12452
919.494	12665
919.604	12825
919.715	12635
919.826	12536
919.936	12593
920.047	12760
920.157	12604
920.267	12837
920.378	12563
920.488	12574
920.598	12844
920.708	12909
920.818	12768
920.928	12707
921.038	12875
921.148	12817
921.258	12612
921.368	12513
921.477	12391
921.587	12338
921.697	12273
921.806	12338
921.916	12247
922.025	12125
922.134	11920
922.244	11969
922.353	12087
922.462	11965
922.571	11794
922.68	11680
922.789	11661
922.898	11756
923.007	11551
923.116	11756
923.224	11680
923.333	11585
923.442	11585
923.55	11551
923.659	11577
923.767	11638
923.876	11566
923.984	11535
924.092	11383
924.201	11417
924.309	11490
924.417	11482
924.525	11376
924.633	11425
924.741	12300
924.849	11269
924.956	11410
925.064	11204
925.172	11151
925.279	11174
925.387	11280
925.494	11208
925.602	11322
925.709	11204
925.816	11136
925.924	11162
926.031	11220
926.138	11220
926.245	11235
926.352	11067
926.459	11166
926.566	11235
926.673	11143
926.779	10991
926.886	11022
926.993	10824
927.099	10850
927.206	10843
927.312	10820
927.419	10721
927.525	10801
927.631	10919
927.737	10755
927.843	10702
927.95	10672
928.056	10744
928.162	10645
928.267	10675
928.373	11299
928.479	10782
928.585	10512
928.69	10618
928.796	10626
928.901	10512
929.007	10371
929.112	10603
929.218	10516
929.323	10481
929.428	10413
929.533	10546
929.638	10428
929.743	10409
929.848	10413
929.953	10424
930.058	10318
930.163	10207
930.267	10162
930.372	10234
930.477	10143
930.581	10443
930.685	10154
930.79	10048
930.894	10097
930.998	9991
931.103	10219
931.207	9781
931.311	9800
931.415	9694
931.519	9481
931.623	9424
