Data from test_V78500241_1006.txt Node
Date: Fri Mar 25 15:48:46 CST 2022
User: usil
Spectrometer: V785-0024
Trigger mode: 0
Integration Time (sec): 4.000000E-1
Scans to average: 1
Nonlinearity correction enabled: false
Boxcar width: 0
Storing dark spectrum: false
XAxis mode: Wavelengths
Number of Pixels in Spectrum: 1024
>>>>>Begin Spectral Data<<<<<
801.071	28249
801.214	28128
801.356	27884
801.499	27781
801.641	27778
801.783	27701
801.926	27766
802.068	27762
802.211	27507
802.353	27538
802.496	27466
802.638	27344
802.78	27340
802.923	27096
803.065	27306
803.208	27287
803.35	27344
803.492	27443
803.635	27591
803.777	27458
803.919	27424
804.061	27975
804.204	27580
804.346	27447
804.488	27542
804.63	27431
804.773	27500
804.915	27496
805.057	27542
805.199	27469
805.341	27545
805.483	27717
805.626	27789
805.768	27641
805.91	27698
806.052	27694
806.194	27637
806.336	27869
806.478	27698
806.62	27865
806.762	27854
806.904	28051
807.046	28230
807.188	28166
807.33	28032
807.472	28215
807.614	28120
807.756	28070
807.898	27937
808.04	28002
808.182	27998
808.324	27918
808.465	28070
808.607	28158
808.749	28284
808.891	28386
809.033	28550
809.174	28512
809.316	28375
809.458	28417
809.6	28348
809.741	28531
809.883	28386
810.025	28706
810.166	28637
810.308	28618
810.45	28622
810.591	28516
810.733	28394
810.875	28367
811.016	28249
811.158	28348
811.299	28565
811.441	28622
811.582	28485
811.724	28428
811.865	28303
812.007	28508
812.148	28474
812.29	28379
812.431	28512
812.573	28771
812.714	28778
812.855	28900
812.997	28980
813.138	29193
813.279	29102
813.421	28919
813.562	28953
813.703	28835
813.845	28641
813.986	28280
814.127	28215
814.268	28078
814.41	28150
814.551	27911
814.692	28070
814.833	28032
814.974	27781
815.115	28013
815.256	27842
815.397	27907
815.539	28051
815.68	27728
815.821	27709
815.962	27880
816.103	27842
816.244	27770
816.385	27633
816.526	27736
816.666	27492
816.807	27504
816.948	27405
817.089	27443
817.23	27363
817.371	27260
817.512	27256
817.653	27458
817.793	27302
817.934	27355
818.075	27325
818.216	27348
818.356	27157
818.497	27245
818.638	27005
818.778	27043
818.919	27074
819.06	27150
819.2	27192
819.341	27294
819.481	27492
819.622	27572
819.762	27747
819.903	27739
820.043	27545
820.184	27408
820.324	27443
820.465	27500
820.605	27458
820.746	27416
820.886	27233
821.026	27317
821.167	27564
821.307	27534
821.447	27473
821.588	27272
821.728	27032
821.868	26956
822.008	26899
822.149	26785
822.289	26712
822.429	26632
822.569	26507
822.709	26613
822.849	26347
822.99	26366
823.13	26469
823.27	26233
823.41	26126
823.55	26195
823.69	26298
823.83	26069
823.97	26111
824.11	25917
824.25	25974
824.389	26050
824.529	26039
824.669	25936
824.809	26134
824.949	26252
825.089	26054
825.228	26107
825.368	25856
825.508	25894
825.648	25791
825.787	25890
825.927	25849
826.067	25913
826.206	25906
826.346	25887
826.485	25887
826.625	25822
826.765	25951
826.904	25780
827.044	25635
827.183	25651
827.323	25658
827.462	25719
827.601	25586
827.741	25453
827.88	25563
828.02	25464
828.159	25552
828.298	25537
828.437	25487
828.577	25502
828.716	25651
828.855	25506
828.994	25384
829.134	25343
829.273	25460
829.412	25232
829.551	25160
829.69	25335
829.829	25289
829.968	25320
830.107	25354
830.246	25285
830.385	25137
830.524	25118
830.663	24992
830.802	25000
830.941	24871
831.08	24844
831.219	24852
831.357	25046
831.496	25145
831.635	24665
831.774	24802
831.913	24810
832.051	24646
832.19	24753
832.329	24669
832.467	24593
832.606	24528
832.744	24471
832.883	24563
833.022	24498
833.16	24544
833.299	24547
833.437	24601
833.576	24612
833.714	24486
833.852	24688
833.991	24665
834.129	24741
834.267	24665
834.406	24642
834.544	24753
834.682	24681
834.821	24570
834.959	24779
835.097	24437
835.235	24734
835.373	24642
835.511	24612
835.65	24505
835.788	24346
835.926	24376
836.064	24277
836.202	24251
836.34	24410
836.478	24486
836.615	24445
836.753	24555
836.891	24467
837.029	24437
837.167	24391
837.305	24300
837.443	24395
837.58	24273
837.718	24350
837.856	24300
837.993	24194
838.131	24270
838.269	24110
838.406	24060
838.544	24083
838.681	23969
838.819	23798
838.956	23707
839.094	23714
839.231	23802
839.369	23931
839.506	24174
839.643	24018
839.781	23714
839.918	23691
840.055	23745
840.193	23710
840.33	23737
840.467	23634
840.604	23790
840.742	24015
840.879	23535
841.016	23630
841.153	23501
841.29	23748
841.427	23596
841.564	23703
841.701	23604
841.838	23558
841.975	23543
842.112	23558
842.249	23558
842.385	23391
842.522	23528
842.659	23482
842.796	23410
842.933	23345
843.069	23345
843.206	23429
843.343	23383
843.479	23372
843.616	23345
843.752	23220
843.889	23220
844.025	23140
844.162	23117
844.298	23299
844.435	23178
844.571	23067
844.708	23216
844.844	23299
844.98	23288
845.117	23261
845.253	23090
845.389	23113
845.525	23083
845.661	22930
845.798	22869
845.934	22968
846.07	22869
846.206	22980
846.342	23079
846.478	22896
846.614	22675
846.75	22660
846.886	22607
847.022	22710
847.158	22580
847.294	22573
847.429	22790
847.565	22519
847.701	22877
847.837	22341
847.972	22337
848.108	22459
848.244	22481
848.379	22223
848.515	22287
848.65	22238
848.786	22223
848.921	22242
849.057	22344
849.192	22341
849.328	22276
849.463	22215
849.598	22234
849.734	22090
849.869	22101
850.004	21972
850.14	21956
850.275	22010
850.41	21911
850.545	21968
850.68	21926
850.815	22059
850.95	21949
851.085	22185
851.22	22124
851.355	22063
851.49	21941
851.625	21930
851.76	21888
851.895	21930
852.03	21899
852.165	21960
852.299	22067
852.434	22105
852.569	22109
852.703	21915
852.838	22055
852.973	22109
853.107	21987
853.242	21899
853.376	21842
853.511	21701
853.645	21785
853.78	21846
853.914	21755
854.048	21778
854.183	21804
854.317	21770
854.451	21960
854.585	21797
854.72	21797
854.854	21892
854.988	21728
855.122	21846
855.256	21660
855.39	21709
855.524	21835
855.658	21827
855.792	21819
855.926	21800
856.06	21968
856.194	21846
856.327	21778
856.461	21720
856.595	21770
856.729	21781
856.862	21899
856.996	21854
857.13	21915
857.263	21789
857.397	21964
857.53	21770
857.664	21793
857.797	21842
857.931	21846
858.064	21800
858.197	21880
858.331	21785
858.464	21717
858.597	21614
858.731	21827
858.864	21747
858.997	21625
859.13	21652
859.263	21800
859.396	21918
859.529	21888
859.662	21861
859.795	21736
859.928	21850
860.061	21968
860.194	21907
860.327	21846
860.46	21842
860.592	21949
860.725	21903
860.858	21956
860.99	21827
861.123	21797
861.256	21671
861.388	21717
861.521	22645
861.653	21701
861.786	21625
861.918	21679
862.05	21618
862.183	21599
862.315	21671
862.447	21823
862.58	21812
862.712	21504
862.844	21572
862.976	21610
863.108	21523
863.24	21884
863.372	21641
863.504	21496
863.636	21656
863.768	21595
863.9	21633
864.032	21443
864.164	21408
864.296	21477
864.428	21622
864.559	21603
864.691	21549
864.823	21648
864.954	21496
865.086	21629
865.217	21443
865.349	21374
865.48	21435
865.612	21348
865.743	21542
865.875	21435
866.006	21431
866.137	21431
866.269	21397
866.4	21291
866.531	21363
866.662	21325
866.793	21344
866.924	21405
867.055	21443
867.186	21317
867.317	21287
867.448	21313
867.579	21256
867.71	21336
867.841	21302
867.972	21336
868.103	21317
868.233	21374
868.364	21252
868.495	21416
868.625	21492
868.756	21595
868.886	21500
869.017	21629
869.147	21656
869.278	21637
869.408	21580
869.539	21424
869.669	21629
869.799	21568
869.929	21667
870.06	21572
870.19	21800
870.32	21915
870.45	21846
870.58	21979
870.71	22124
870.84	22078
870.97	21994
871.1	21975
871.23	22139
871.36	22154
871.489	22162
871.619	22059
871.749	22154
871.879	22158
872.008	22333
872.138	22272
872.267	22158
872.397	21953
872.526	21953
872.656	21979
872.785	21945
872.915	22162
873.044	22253
873.173	22238
873.303	22276
873.432	22337
873.561	22303
873.69	22158
873.819	22017
873.948	22261
874.077	22147
874.206	22150
874.335	22249
874.464	22341
874.593	22360
874.722	22337
874.851	22409
874.979	22398
875.108	22413
875.237	22363
875.365	22318
875.494	22287
875.623	22538
875.751	22371
875.88	22344
876.008	22557
876.136	22626
876.265	22850
876.393	22896
876.521	22938
876.65	22934
876.778	22786
876.906	22668
877.034	22679
877.162	22687
877.29	22725
877.418	22824
877.546	22854
877.674	22721
877.802	22752
877.93	22736
878.058	22790
878.185	22645
878.313	22607
878.441	22729
878.568	22603
878.696	22565
878.824	22820
878.951	22889
879.079	22812
879.206	22980
879.333	22984
879.461	22771
879.588	22809
879.715	22885
879.842	23060
879.97	22793
880.097	22561
880.224	22542
880.351	22569
880.478	22645
880.605	22504
880.732	22417
880.859	22771
880.986	22573
881.112	22615
881.239	22310
881.366	22272
881.493	22154
881.619	22112
881.746	22185
881.872	22124
881.999	22230
882.125	22093
882.252	22147
882.378	22105
882.505	22207
882.631	22109
882.757	21930
882.883	21941
883.01	21892
883.136	21869
883.262	21739
883.388	21644
883.514	21762
883.64	21785
883.766	21694
883.892	21663
884.018	21736
884.143	21808
884.269	21732
884.395	21690
884.52	21420
884.646	21492
884.772	21428
884.897	21313
885.023	21511
885.148	21564
885.274	21572
885.399	21500
885.524	21370
885.65	21485
885.775	21458
885.9	21485
886.025	21610
886.15	21679
886.275	21363
886.4	21302
886.525	21393
886.65	21405
886.775	21424
886.9	21526
887.025	21618
887.149	21435
887.274	21165
887.399	21180
887.523	21302
887.648	21188
887.773	21188
887.897	21393
888.021	21237
888.146	21272
888.27	21272
888.395	21340
888.519	21230
888.643	21180
888.767	21321
888.891	21203
889.015	21188
889.139	21020
889.263	20921
889.387	21074
889.511	21268
889.635	21214
889.759	21013
889.883	20899
890.006	21165
890.13	21116
890.254	20956
890.377	20864
890.501	20853
890.624	20739
890.748	20796
890.871	20781
890.995	20594
891.118	20560
891.241	20606
891.364	20636
891.488	20781
891.611	20629
891.734	20686
891.857	20644
891.98	20697
892.103	20537
892.226	20598
892.349	20476
892.471	20465
892.594	20545
892.717	20590
892.839	20389
892.962	20560
893.085	20492
893.207	20412
893.33	20446
893.452	20518
893.575	20537
893.697	20385
893.819	20629
893.941	20739
894.064	20526
894.186	20309
894.308	20480
894.43	20590
894.552	20720
894.674	20629
894.796	20374
894.918	20495
895.04	20438
895.161	20625
895.283	20415
895.405	20434
895.526	20514
895.648	20431
895.769	20560
895.891	20598
896.012	20590
896.134	20587
896.255	20579
896.376	20336
896.498	20526
896.619	20393
896.74	20514
896.861	20465
896.982	20724
897.103	20861
897.224	20872
897.345	20739
897.466	20644
897.587	20739
897.708	20876
897.828	20712
897.949	20708
898.07	20480
898.19	20651
898.311	20777
898.431	20511
898.552	20735
898.672	20720
898.792	20659
898.913	20632
899.033	20568
899.153	20450
899.273	20339
899.393	20419
899.513	20644
899.633	20423
899.753	20488
899.873	20267
899.993	20473
900.113	20484
900.232	20336
900.352	20431
900.472	20298
900.591	20164
900.711	20271
900.83	20221
900.95	20180
901.069	20309
901.189	20172
901.308	19887
901.427	19772
901.546	19772
901.665	19753
901.784	19784
901.904	19753
902.023	19537
902.141	19403
902.26	19327
902.379	19381
902.498	19293
902.617	19240
902.735	19282
902.854	19285
902.973	19187
903.091	18928
903.21	18886
903.328	18951
903.446	18833
903.565	18741
903.683	18875
903.801	18658
903.919	18749
904.038	18684
904.156	18585
904.274	18623
904.392	18490
904.51	18452
904.627	18483
904.745	18570
904.863	18547
904.981	18277
905.098	18171
905.216	18155
905.334	18190
905.451	18270
905.569	18155
905.686	18136
905.803	18190
905.921	17946
906.038	18060
906.155	17946
906.272	17855
906.389	17980
906.506	17828
906.623	17741
906.74	17714
906.857	17680
906.974	17627
907.091	17710
907.208	17927
907.324	17722
907.441	17608
907.557	17452
907.674	17429
907.79	17444
907.907	17417
908.023	17429
908.139	17509
908.256	17341
908.372	17345
908.488	17235
908.604	17216
908.72	17258
908.836	17185
908.952	17086
909.068	17227
909.184	17239
909.3	17090
909.415	17113
909.531	17029
909.647	16858
909.762	16919
909.878	16915
909.993	16934
910.108	16881
910.224	16767
910.339	16869
910.454	16675
910.57	16675
910.685	16592
910.8	16889
910.915	16847
911.03	16660
911.145	16478
911.259	16523
911.374	16379
911.489	16485
911.604	16356
911.718	16177
911.833	16211
911.947	16147
912.062	16048
912.176	16192
912.291	16169
912.405	16234
912.519	16314
912.633	16322
912.748	16303
912.862	16185
912.976	16036
913.09	15903
913.204	16006
913.318	16006
913.431	16029
913.545	16025
913.659	16124
913.772	15972
913.886	15823
914	15797
914.113	15869
914.226	15941
914.34	15926
914.453	15736
914.566	15804
914.68	15690
914.793	15660
914.906	15587
915.019	15466
915.132	15420
915.245	15416
915.358	15443
915.47	15386
915.583	15302
915.696	15374
915.809	15492
915.921	15477
916.034	15359
916.146	15230
916.259	15313
916.371	15363
916.483	15275
916.595	15230
916.708	15245
916.82	15119
916.932	15264
917.044	15199
917.156	15108
917.268	15135
917.38	15081
917.491	14975
917.603	14967
917.715	15085
917.826	15138
917.938	14982
918.049	14918
918.161	15043
918.272	15062
918.384	15089
918.495	15001
918.606	14792
918.717	14765
918.828	14849
918.939	14838
919.05	14758
919.161	14682
919.272	14594
919.383	14720
919.494	14838
919.604	14956
919.715	14769
919.826	14686
919.936	14849
920.047	14864
920.157	14708
920.267	14853
920.378	14819
920.488	14621
920.598	14891
920.708	15043
920.818	14921
920.928	14937
921.038	14956
921.148	15005
921.258	14830
921.368	14689
921.477	14533
921.587	14480
921.697	14339
921.806	14492
921.916	14339
922.025	14210
922.134	14180
922.244	14050
922.353	14176
922.462	14027
922.571	13928
922.68	13826
922.789	13803
922.898	13693
923.007	13609
923.116	13761
923.224	13674
923.333	13753
923.442	13632
923.55	13636
923.659	13578
923.767	13655
923.876	13552
923.984	13693
924.092	13529
924.201	13514
924.309	13449
924.417	13472
924.525	13392
924.633	13407
924.741	14381
924.849	13175
924.956	13396
925.064	13228
925.172	13141
925.279	13095
925.387	13304
925.494	13171
925.602	13354
925.709	13206
925.816	12981
925.924	13091
926.031	13194
926.138	13069
926.245	13156
926.352	13015
926.459	13065
926.566	13114
926.673	13012
926.779	12875
926.886	12802
926.993	12757
927.099	12730
927.206	12760
927.312	12779
927.419	12825
927.525	12738
927.631	12662
927.737	12620
927.843	12513
927.95	12338
928.056	12597
928.162	12665
928.267	12631
928.373	13126
928.479	12563
928.585	12407
928.69	12509
928.796	12525
928.901	12414
929.007	12315
929.112	12460
929.218	12410
929.323	12327
929.428	12296
929.533	12422
929.638	12216
929.743	12228
929.848	12247
929.953	12266
930.058	12049
930.163	11965
930.267	12011
930.372	12159
930.477	11954
930.581	12281
930.685	12030
930.79	11859
930.894	11843
930.998	11752
931.103	11996
931.207	11657
931.311	11551
931.415	11558
931.519	11296
931.623	11277
