Data from test_V78500241_1419.txt Node
Date: Fri Mar 25 15:51:37 CST 2022
User: usil
Spectrometer: V785-0024
Trigger mode: 0
Integration Time (sec): 4.000000E-1
Scans to average: 1
Nonlinearity correction enabled: false
Boxcar width: 0
Storing dark spectrum: false
XAxis mode: Wavelengths
Number of Pixels in Spectrum: 1024
>>>>>Begin Spectral Data<<<<<
801.071	28398
801.214	28436
801.356	27983
801.499	28063
801.641	27922
801.783	27903
801.926	27972
802.068	27808
802.211	27854
802.353	27759
802.496	27644
802.638	27667
802.78	27671
802.923	27576
803.065	27504
803.208	27542
803.35	27572
803.492	27709
803.635	27789
803.777	27732
803.919	27781
804.061	28177
804.204	27888
804.346	27766
804.488	27713
804.63	27675
804.773	27591
804.915	27812
805.057	27922
805.199	27717
805.341	27861
805.483	27956
805.626	28040
805.768	27846
805.91	27895
806.052	27953
806.194	27850
806.336	27994
806.478	28051
806.62	28055
806.762	28226
806.904	28158
807.046	28424
807.188	28284
807.33	28531
807.472	28546
807.614	28371
807.756	28303
807.898	28344
808.04	28211
808.182	28257
808.324	28253
808.465	28348
808.607	28417
808.749	28557
808.891	28580
809.033	28774
809.174	28691
809.316	28607
809.458	28542
809.6	28702
809.741	28869
809.883	28908
810.025	28904
810.166	28991
810.308	28984
810.45	29098
810.591	28786
810.733	28683
810.875	28653
811.016	28497
811.158	28531
811.299	28805
811.441	28839
811.582	28835
811.724	28607
811.865	28519
812.007	28660
812.148	28596
812.29	28672
812.431	28778
812.573	28984
812.714	29014
812.855	29147
812.997	29258
813.138	29429
813.279	29227
813.421	29151
813.562	29090
813.703	29102
813.845	28797
813.986	28744
814.127	28333
814.268	28481
814.41	28367
814.551	28337
814.692	28379
814.833	28234
814.974	28253
815.115	28314
815.256	28162
815.397	28196
815.539	28192
815.68	28086
815.821	28082
815.962	28128
816.103	28192
816.244	27964
816.385	27808
816.526	27861
816.666	27770
816.807	27644
816.948	27797
817.089	27797
817.23	27610
817.371	27694
817.512	27591
817.653	27568
817.793	27580
817.934	27648
818.075	27675
818.216	27698
818.356	27504
818.497	27424
818.638	27416
818.778	27374
818.919	27408
819.06	27473
819.2	27496
819.341	27637
819.481	27580
819.622	27804
819.762	27892
819.903	27857
820.043	27892
820.184	27838
820.324	27743
820.465	27785
820.605	27762
820.746	27819
820.886	27709
821.026	27675
821.167	27717
821.307	27850
821.447	27743
821.588	27633
821.728	27408
821.868	27325
822.008	27169
822.149	27135
822.289	26956
822.429	26800
822.569	26785
822.709	26720
822.849	26606
822.99	26663
823.13	26431
823.27	26541
823.41	26377
823.55	26317
823.69	26453
823.83	26484
823.97	26263
824.11	26362
824.25	26271
824.389	26271
824.529	26271
824.669	26336
824.809	26343
824.949	26259
825.089	26461
825.228	26309
825.368	26100
825.508	26164
825.648	26062
825.787	26256
825.927	26336
826.067	26149
826.206	26130
826.346	26168
826.485	26157
826.625	26130
826.765	26240
826.904	26103
827.044	25894
827.183	25909
827.323	25856
827.462	25868
827.601	25822
827.741	25906
827.88	25849
828.02	25776
828.159	25723
828.298	25795
828.437	25970
828.577	25807
828.716	26001
828.855	25879
828.994	25472
829.134	25510
829.273	25567
829.412	25529
829.551	25430
829.69	25518
829.829	25487
829.968	25605
830.107	25590
830.246	25674
830.385	25567
830.524	25457
830.663	25293
830.802	25293
830.941	25129
831.08	25137
831.219	25141
831.357	25171
831.496	25316
831.635	25091
831.774	25072
831.913	25061
832.051	24840
832.19	24962
832.329	24897
832.467	24901
832.606	24833
832.744	24745
832.883	24726
833.022	24779
833.16	24814
833.299	24779
833.437	24871
833.576	24920
833.714	24810
833.852	24962
833.991	24920
834.129	24905
834.267	24947
834.406	24783
834.544	24947
834.682	24905
834.821	24798
834.959	25042
835.097	24844
835.235	24962
835.373	24856
835.511	24886
835.65	24627
835.788	24711
835.926	24544
836.064	24612
836.202	24608
836.34	24738
836.478	24745
836.615	24681
836.753	24745
836.891	24848
837.029	24722
837.167	24661
837.305	24578
837.443	24509
837.58	24555
837.718	24589
837.856	24521
837.993	24429
838.131	24574
838.269	24410
838.406	24418
838.544	24388
838.681	24152
838.819	24178
838.956	24148
839.094	23843
839.231	24091
839.369	24251
839.506	24258
839.643	24334
839.781	23969
839.918	23969
840.055	23923
840.193	23977
840.33	23935
840.467	23821
840.604	23878
840.742	24167
840.879	23885
841.016	23843
841.153	23802
841.29	24053
841.427	23912
841.564	23958
841.701	23977
841.838	23821
841.975	23707
842.112	23828
842.249	23699
842.385	23775
842.522	23882
842.659	23794
842.796	23589
842.933	23562
843.069	23509
843.206	23535
843.343	23695
843.479	23642
843.616	23760
843.752	23486
843.889	23539
844.025	23589
844.162	23406
844.298	23543
844.435	23398
844.571	23410
844.708	23547
844.844	23551
844.98	23551
845.117	23467
845.253	23398
845.389	23254
845.525	23360
845.661	23334
845.798	23159
845.934	23166
846.07	23064
846.206	22987
846.342	23315
846.478	23155
846.614	22953
846.75	22885
846.886	22862
847.022	22965
847.158	23006
847.294	22923
847.429	22957
847.565	22835
847.701	23014
847.837	22508
847.972	22660
848.108	22736
848.244	22538
848.379	22493
848.515	22424
848.65	22310
848.786	22432
848.921	22531
849.057	22634
849.192	22550
849.328	22596
849.463	22504
849.598	22352
849.734	22405
849.869	22447
850.004	22268
850.14	22299
850.275	22215
850.41	22196
850.545	22135
850.68	22166
850.815	22257
850.95	22246
851.085	22424
851.22	22284
851.355	22344
851.49	22185
851.625	22192
851.76	22188
851.895	22124
852.03	22169
852.165	22257
852.299	22291
852.434	22280
852.569	22249
852.703	22207
852.838	22276
852.973	22310
853.107	22341
853.242	22219
853.376	22025
853.511	21956
853.645	22082
853.78	22173
853.914	21983
854.048	22002
854.183	22036
854.317	22067
854.451	22143
854.585	22059
854.72	22097
854.854	22067
854.988	21972
855.122	22010
855.256	21937
855.39	22051
855.524	22166
855.658	22162
855.792	21926
855.926	22143
856.06	22078
856.194	22124
856.327	21972
856.461	21998
856.595	22036
856.729	21991
856.862	22166
856.996	22082
857.13	22086
857.263	22192
857.397	22090
857.53	21998
857.664	22265
857.797	22128
857.931	22097
858.064	22158
858.197	22059
858.331	22067
858.464	22040
858.597	21922
858.731	22032
858.864	21888
858.997	22086
859.13	22120
859.263	22067
859.396	22109
859.529	21991
859.662	22017
859.795	22032
859.928	22051
860.061	22124
860.194	22185
860.327	22192
860.46	22211
860.592	22200
860.725	22181
860.858	22055
860.99	22093
861.123	21937
861.256	21979
861.388	22010
861.521	22839
861.653	21937
861.786	21911
861.918	21953
862.05	21960
862.183	21934
862.315	21991
862.447	21987
862.58	22010
862.712	21880
862.844	21774
862.976	21842
863.108	21800
863.24	22242
863.372	21743
863.504	21793
863.636	21766
863.768	21789
863.9	21747
864.032	21698
864.164	21762
864.296	21827
864.428	21854
864.559	21892
864.691	21869
864.823	21736
864.954	21717
865.086	21682
865.217	21728
865.349	21618
865.48	21644
865.612	21679
865.743	21831
865.875	21618
866.006	21599
866.137	21564
866.269	21682
866.4	21580
866.531	21633
866.662	21561
866.793	21580
866.924	21587
867.055	21717
867.186	21599
867.317	21591
867.448	21431
867.579	21485
867.71	21587
867.841	21481
867.972	21629
868.103	21553
868.233	21622
868.364	21606
868.495	21694
868.625	21861
868.756	21838
868.886	21686
869.017	21838
869.147	22002
869.278	21991
869.408	21789
869.539	21728
869.669	21945
869.799	21918
869.929	21892
870.06	21964
870.19	22051
870.32	22207
870.45	22051
870.58	22192
870.71	22303
870.84	22303
870.97	22211
871.1	22249
871.23	22413
871.36	22432
871.489	22295
871.619	22451
871.749	22375
871.879	22413
872.008	22474
872.138	22440
872.267	22447
872.397	22272
872.526	22314
872.656	22337
872.785	22303
872.915	22466
873.044	22527
873.173	22325
873.303	22462
873.432	22470
873.561	22611
873.69	22596
873.819	22436
873.948	22599
874.077	22459
874.206	22322
874.335	22478
874.464	22531
874.593	22664
874.722	22603
874.851	22679
874.979	22573
875.108	22725
875.237	22630
875.365	22626
875.494	22653
875.623	22706
875.751	22679
875.88	22637
876.008	22858
876.136	22812
876.265	23018
876.393	23303
876.521	23231
876.65	23147
876.778	23006
876.906	22915
877.034	23022
877.162	23006
877.29	22942
877.418	22984
877.546	22957
877.674	22972
877.802	22995
877.93	22976
878.058	23006
878.185	22797
878.313	23041
878.441	23083
878.568	22828
878.696	22904
878.824	23178
878.951	23102
879.079	23246
879.206	23307
879.333	23231
879.461	23200
879.588	23212
879.715	23223
879.842	23334
879.97	23124
880.097	22873
880.224	22968
880.351	22824
880.478	22881
880.605	22778
880.732	22820
880.859	22953
880.986	22790
881.112	22828
881.239	22630
881.366	22584
881.493	22615
881.619	22394
881.746	22428
881.872	22500
881.999	22344
882.125	22367
882.252	22474
882.378	22310
882.505	22459
882.631	22284
882.757	22238
882.883	22177
883.01	22188
883.136	22093
883.262	21987
883.388	21934
883.514	22166
883.64	22070
883.766	22070
883.892	21857
884.018	21907
884.143	22120
884.269	22032
884.395	21888
884.52	21736
884.646	21759
884.772	21618
884.897	21587
885.023	21690
885.148	21930
885.274	21831
885.399	21751
885.524	21682
885.65	21694
885.775	21701
885.9	21622
886.025	21842
886.15	21831
886.275	21663
886.4	21679
886.525	21614
886.65	21568
886.775	21633
886.9	21835
887.025	21880
887.149	21705
887.274	21462
887.399	21435
887.523	21519
887.648	21329
887.773	21511
887.897	21610
888.021	21439
888.146	21359
888.27	21618
888.395	21603
888.519	21542
888.643	21397
888.767	21564
888.891	21325
889.015	21363
889.139	21222
889.263	21348
889.387	21355
889.511	21523
889.635	21348
889.759	21184
889.883	21245
890.006	21279
890.13	21321
890.254	21173
890.377	21245
890.501	21024
890.624	20990
890.748	21058
890.871	20887
890.995	20830
891.118	20864
891.241	20834
891.364	20788
891.488	20956
891.611	20815
891.734	20868
891.857	20921
891.98	20864
892.103	20952
892.226	20830
892.349	20762
892.471	20598
892.594	20670
892.717	20773
892.839	20735
892.962	20823
893.085	20712
893.207	20632
893.33	20571
893.452	20602
893.575	20796
893.697	20777
893.819	20845
893.941	20902
894.064	20925
894.186	20697
894.308	20545
894.43	20815
894.552	20853
894.674	20796
894.796	20564
894.918	20724
895.04	20705
895.161	20868
895.283	20632
895.405	20629
895.526	20785
895.648	20670
895.769	20697
895.891	20819
896.012	20823
896.134	20689
896.255	20621
896.376	20724
896.498	20613
896.619	20701
896.74	20693
896.861	20750
896.982	21032
897.103	21146
897.224	20948
897.345	20842
897.466	20811
897.587	20914
897.708	21043
897.828	20845
897.949	20872
898.07	20807
898.19	20925
898.311	20982
898.431	21001
898.552	20998
898.672	21043
898.792	21055
898.913	20845
899.033	20697
899.153	20667
899.273	20590
899.393	20602
899.513	20674
899.633	20617
899.753	20735
899.873	20617
899.993	20636
900.113	20697
900.232	20705
900.352	20583
900.472	20530
900.591	20339
900.711	20366
900.83	20522
900.95	20617
901.069	20518
901.189	20358
901.308	20043
901.427	19963
901.546	20016
901.665	19959
901.784	20115
901.904	19826
902.023	19765
902.141	19700
902.26	19514
902.379	19613
902.498	19487
902.617	19453
902.735	19540
902.854	19362
902.973	19453
903.091	19206
903.21	19194
903.328	19187
903.446	19050
903.565	18989
903.683	18977
903.801	18852
903.919	18916
904.038	18924
904.156	18730
904.274	18924
904.392	18829
904.51	18635
904.627	18642
904.745	18753
904.863	18753
904.981	18509
905.098	18315
905.216	18509
905.334	18407
905.451	18418
905.569	18338
905.686	18483
905.803	18338
905.921	18194
906.038	18220
906.155	18254
906.272	18011
906.389	18072
906.506	17984
906.623	17897
906.74	17851
906.857	17779
906.974	17802
907.091	17984
907.208	17965
907.324	17980
907.441	17874
907.557	17642
907.674	17676
907.79	17558
907.907	17539
908.023	17581
908.139	17596
908.256	17490
908.372	17539
908.488	17520
908.604	17429
908.72	17341
908.836	17337
908.952	17296
909.068	17376
909.184	17471
909.3	17299
909.415	17235
909.531	17296
909.647	17029
909.762	16987
909.878	17018
909.993	17060
910.108	16995
910.224	17128
910.339	17064
910.454	16911
910.57	16790
910.685	16896
910.8	17064
910.915	16995
911.03	16854
911.145	16584
911.259	16656
911.374	16683
911.489	16573
911.604	16504
911.718	16303
911.833	16291
911.947	16363
912.062	16261
912.176	16363
912.291	16436
912.405	16402
912.519	16584
912.633	16599
912.748	16417
912.862	16379
912.976	16150
913.09	16257
913.204	16177
913.318	16280
913.431	16268
913.545	16230
913.659	16291
913.772	16192
913.886	16021
914	16025
914.113	16048
914.226	16078
914.34	15972
914.453	15846
914.566	16071
914.68	15869
914.793	15800
914.906	15641
915.019	15564
915.132	15526
915.245	15603
915.358	15614
915.47	15637
915.583	15656
915.696	15625
915.809	15591
915.921	15747
916.034	15603
916.146	15424
916.259	15492
916.371	15504
916.483	15526
916.595	15408
916.708	15401
916.82	15386
916.932	15329
917.044	15325
917.156	15336
917.268	15264
917.38	15203
917.491	15195
917.603	15237
917.715	15272
917.826	15332
917.938	15203
918.049	15108
918.161	15127
918.272	15230
918.384	15226
918.495	15146
918.606	15024
918.717	14849
918.828	14921
918.939	14933
919.05	14895
919.161	14895
919.272	14735
919.383	14804
919.494	14975
919.604	15176
919.715	14845
919.826	14872
919.936	14883
920.047	15020
920.157	14906
920.267	15051
920.378	14963
920.488	14891
920.598	15013
920.708	15359
920.818	14998
920.928	15051
921.038	15222
921.148	15260
921.258	14807
921.368	14731
921.477	14781
921.587	14640
921.697	14503
921.806	14617
921.916	14503
922.025	14366
922.134	14210
922.244	14229
922.353	14320
922.462	14115
922.571	14100
922.68	14065
922.789	13909
922.898	13902
923.007	13784
923.116	13986
923.224	13830
923.333	13788
923.442	13738
923.55	13689
923.659	13719
923.767	13814
923.876	13693
923.984	13738
924.092	13643
924.201	13712
924.309	13651
924.417	13639
924.525	13586
924.633	13567
924.741	14450
924.849	13381
924.956	13449
925.064	13441
925.172	13289
925.279	13316
925.387	13263
925.494	13324
925.602	13354
925.709	13331
925.816	13183
925.924	13183
926.031	13331
926.138	13228
926.245	13350
926.352	13133
926.459	13324
926.566	13350
926.673	13221
926.779	13099
926.886	13038
926.993	12920
927.099	12954
927.206	12821
927.312	12806
927.419	12962
927.525	12798
927.631	12863
927.737	12760
927.843	12700
927.95	12494
928.056	12623
928.162	12726
928.267	12798
928.373	13396
928.479	12715
928.585	12525
928.69	12688
928.796	12703
928.901	12525
929.007	12422
929.112	12623
929.218	12426
929.323	12407
929.428	12308
929.533	12547
929.638	12361
929.743	12353
929.848	12372
929.953	12426
930.058	12190
930.163	12064
930.267	12064
930.372	12262
930.477	12057
930.581	12304
930.685	12087
930.79	12041
930.894	11942
930.998	11870
931.103	12053
931.207	11737
931.311	11665
931.415	11570
931.519	11360
931.623	11296
