Data from test_V78500241_1784.txt Node
Date: Fri Mar 25 15:54:09 CST 2022
User: usil
Spectrometer: V785-0024
Trigger mode: 0
Integration Time (sec): 4.000000E-1
Scans to average: 1
Nonlinearity correction enabled: false
Boxcar width: 0
Storing dark spectrum: false
XAxis mode: Wavelengths
Number of Pixels in Spectrum: 1024
>>>>>Begin Spectral Data<<<<<
801.071	28622
801.214	28622
801.356	28424
801.499	28325
801.641	28223
801.783	28131
801.926	28131
802.068	28188
802.211	28154
802.353	28032
802.496	27899
802.638	27907
802.78	27979
802.923	27918
803.065	27762
803.208	27831
803.35	27850
803.492	27869
803.635	28063
803.777	27854
803.919	28082
804.061	28337
804.204	28147
804.346	27842
804.488	27930
804.63	28078
804.773	27831
804.915	28120
805.057	28124
805.199	28112
805.341	28173
805.483	28181
805.626	28177
805.768	27994
805.91	28188
806.052	28348
806.194	28215
806.336	28303
806.478	28215
806.62	28230
806.762	28291
806.904	28481
807.046	28748
807.188	28538
807.33	28634
807.472	28816
807.614	28542
807.756	28820
807.898	28577
808.04	28535
808.182	28367
808.324	28519
808.465	28702
808.607	28824
808.749	28927
808.891	28953
809.033	29006
809.174	29033
809.316	28930
809.458	28900
809.6	28881
809.741	29121
809.883	29003
810.025	29280
810.166	29261
810.308	29166
810.45	29239
810.591	29132
810.733	28923
810.875	28927
811.016	28763
811.158	28793
811.299	29022
811.441	29094
811.582	29136
811.724	28771
811.865	28984
812.007	28908
812.148	28919
812.29	28900
812.431	29197
812.573	29208
812.714	29284
812.855	29478
812.997	29440
813.138	29642
813.279	29619
813.421	29520
813.562	29379
813.703	29307
813.845	29136
813.986	28843
814.127	28618
814.268	28713
814.41	28721
814.551	28584
814.692	28641
814.833	28637
814.974	28599
815.115	28733
815.256	28584
815.397	28588
815.539	28561
815.68	28367
815.821	28333
815.962	28417
816.103	28550
816.244	28325
816.385	28234
816.526	28204
816.666	28063
816.807	27785
816.948	27975
817.089	28013
817.23	27850
817.371	27945
817.512	27983
817.653	27956
817.793	27930
817.934	27922
818.075	27930
818.216	27873
818.356	27854
818.497	27629
818.638	27545
818.778	27656
818.919	27580
819.06	27736
819.2	27907
819.341	27945
819.481	27903
819.622	28029
819.762	28234
819.903	28093
820.043	28017
820.184	28223
820.324	28021
820.465	28166
820.605	28013
820.746	27930
820.886	28055
821.026	28063
821.167	28090
821.307	28086
821.447	27911
821.588	28021
821.728	27701
821.868	27515
822.008	27397
822.149	27420
822.289	27507
822.429	27074
822.569	27154
822.709	26998
822.849	27005
822.99	26956
823.13	27005
823.27	26842
823.41	26785
823.55	26579
823.69	26720
823.83	26830
823.97	26693
824.11	26644
824.25	26598
824.389	26522
824.529	26693
824.669	26492
824.809	26708
824.949	26686
825.089	26621
825.228	26590
825.368	26313
825.508	26423
825.648	26290
825.787	26408
825.927	26526
826.067	26427
826.206	26389
826.346	26473
826.485	26336
826.625	26393
826.765	26678
826.904	26355
827.044	26347
827.183	26183
827.323	26027
827.462	26172
827.601	26138
827.741	26016
827.88	26134
828.02	26092
828.159	26172
828.298	26164
828.437	26259
828.577	26225
828.716	26176
828.855	26050
828.994	25727
829.134	25879
829.273	25849
829.412	25860
829.551	25879
829.69	25769
829.829	25860
829.968	25898
830.107	26062
830.246	25738
830.385	25746
830.524	25723
830.663	25628
830.802	25472
830.941	25407
831.08	25407
831.219	25537
831.357	25476
831.496	25616
831.635	25430
831.774	25312
831.913	25346
832.051	25312
832.19	25160
832.329	25327
832.467	25107
832.606	25110
832.744	25072
832.883	25133
833.022	25072
833.16	25038
833.299	25148
833.437	25160
833.576	25308
833.714	25099
833.852	25141
833.991	25400
834.129	25304
834.267	25362
834.406	25145
834.544	25129
834.682	25236
834.821	25133
834.959	25312
835.097	25057
835.235	25228
835.373	25217
835.511	25282
835.65	25004
835.788	24962
835.926	24909
836.064	24753
836.202	24795
836.34	25069
836.478	25095
836.615	24966
836.753	25027
836.891	25088
837.029	24970
837.167	24806
837.305	24924
837.443	24901
837.58	24852
837.718	24924
837.856	24905
837.993	24753
838.131	24825
838.269	24673
838.406	24806
838.544	24627
838.681	24445
838.819	24513
838.956	24327
839.094	24441
839.231	24285
839.369	24403
839.506	24677
839.643	24471
839.781	24220
839.918	24213
840.055	24414
840.193	24243
840.33	24171
840.467	24251
840.604	24323
840.742	24486
840.879	24091
841.016	24064
841.153	24144
841.29	24224
841.427	24095
841.564	24251
841.701	24190
841.838	24235
841.975	24053
842.112	24197
842.249	24045
842.385	23904
842.522	24110
842.659	24030
842.796	23973
842.933	24015
843.069	23855
843.206	24034
843.343	24117
843.479	23973
843.616	23870
843.752	23707
843.889	23897
844.025	23901
844.162	23672
844.298	23859
844.435	23718
844.571	23748
844.708	23775
844.844	23824
844.98	23843
845.117	23767
845.253	23703
845.389	23535
845.525	23573
845.661	23551
845.798	23505
845.934	23611
846.07	23372
846.206	23433
846.342	23634
846.478	23444
846.614	23269
846.75	23155
846.886	23204
847.022	23235
847.158	23258
847.294	23269
847.429	23296
847.565	23162
847.701	23387
847.837	22919
847.972	22877
848.108	22850
848.244	22976
848.379	22949
848.515	22790
848.65	22786
848.786	22729
848.921	22801
849.057	22824
849.192	22866
849.328	22862
849.463	22725
849.598	22664
849.734	22580
849.869	22615
850.004	22630
850.14	22474
850.275	22413
850.41	22561
850.545	22481
850.68	22516
850.815	22618
850.95	22615
851.085	22717
851.22	22706
851.355	22557
851.49	22546
851.625	22440
851.76	22554
851.895	22531
852.03	22402
852.165	22523
852.299	22607
852.434	22561
852.569	22565
852.703	22637
852.838	22615
852.973	22725
853.107	22599
853.242	22500
853.376	22382
853.511	22139
853.645	22382
853.78	22405
853.914	22428
854.048	22306
854.183	22394
854.317	22314
854.451	22519
854.585	22409
854.72	22405
854.854	22474
854.988	22276
855.122	22390
855.256	22329
855.39	22424
855.524	22504
855.658	22474
855.792	22379
855.926	22436
856.06	22493
856.194	22519
856.327	22356
856.461	22280
856.595	22379
856.729	22314
856.862	22466
856.996	22333
857.13	22413
857.263	22497
857.397	22394
857.53	22318
857.664	22352
857.797	22489
857.931	22451
858.064	22504
858.197	22466
858.331	22291
858.464	22257
858.597	22131
858.731	22325
858.864	22322
858.997	22322
859.13	22352
859.263	22470
859.396	22531
859.529	22287
859.662	22344
859.795	22261
859.928	22310
860.061	22561
860.194	22588
860.327	22234
860.46	22447
860.592	22527
860.725	22588
860.858	22531
860.99	22523
861.123	22162
861.256	22268
861.388	22356
861.521	23052
861.653	22204
861.786	22185
861.918	22257
862.05	22272
862.183	22284
862.315	22341
862.447	22379
862.58	22318
862.712	21994
862.844	21998
862.976	22070
863.108	22067
863.24	22615
863.372	22051
863.504	22059
863.636	22036
863.768	22086
863.9	22013
864.032	22013
864.164	22025
864.296	22105
864.428	22063
864.559	22154
864.691	22143
864.823	22055
864.954	22051
865.086	22029
865.217	22139
865.349	22040
865.48	21979
865.612	21979
865.743	22150
865.875	21972
866.006	21884
866.137	22074
866.269	21934
866.4	21911
866.531	21911
866.662	21838
866.793	21926
866.924	21888
867.055	21884
867.186	21831
867.317	21736
867.448	21846
867.579	21831
867.71	21800
867.841	21812
867.972	21861
868.103	21789
868.233	21869
868.364	21831
868.495	21918
868.625	22188
868.756	22181
868.886	22029
869.017	22147
869.147	22154
869.278	22211
869.408	22246
869.539	22131
869.669	22166
869.799	22291
869.929	22333
870.06	22200
870.19	22474
870.32	22481
870.45	22424
870.58	22481
870.71	22664
870.84	22557
870.97	22523
871.1	22432
871.23	22668
871.36	22752
871.489	22668
871.619	22816
871.749	22698
871.879	22740
872.008	22793
872.138	22683
872.267	22748
872.397	22466
872.526	22531
872.656	22550
872.785	22557
872.915	22782
873.044	22774
873.173	22759
873.303	22980
873.432	22885
873.561	22820
873.69	22713
873.819	22599
873.948	22793
874.077	22748
874.206	22839
874.335	22733
874.464	22892
874.593	22946
874.722	22949
874.851	23018
874.979	22908
875.108	23048
875.237	22847
875.365	22828
875.494	22877
875.623	23083
875.751	22733
875.88	22854
876.008	23044
876.136	23098
876.265	23239
876.393	23360
876.521	23490
876.65	23433
876.778	23376
876.906	23265
877.034	23292
877.162	23296
877.29	23128
877.418	23288
877.546	23216
877.674	23220
877.802	23254
877.93	23246
878.058	23212
878.185	23296
878.313	23200
878.441	23197
878.568	23083
878.696	23254
878.824	23372
878.951	23326
879.079	23474
879.206	23429
879.333	23402
879.461	23277
879.588	23463
879.715	23463
879.842	23577
879.97	23356
880.097	22961
880.224	23140
880.351	23212
880.478	23220
880.605	23117
880.732	23083
880.859	23372
880.986	23090
881.112	23136
881.239	22984
881.366	22809
881.493	22691
881.619	22736
881.746	22694
881.872	22691
881.999	22660
882.125	22580
882.252	22615
882.378	22683
882.505	22752
882.631	22565
882.757	22325
882.883	22440
883.01	22489
883.136	22360
883.262	22230
883.388	22082
883.514	22367
883.64	22360
883.766	22200
883.892	22128
884.018	22116
884.143	22246
884.269	22295
884.395	21972
884.52	22002
884.646	21983
884.772	21922
884.897	21778
885.023	21968
885.148	22063
885.274	22040
885.399	22059
885.524	21975
885.65	21956
885.775	22002
885.9	21945
886.025	22074
886.15	22158
886.275	21994
886.4	21827
886.525	21994
886.65	21899
886.775	21941
886.9	22086
887.025	22139
887.149	21899
887.274	21861
887.399	21667
887.523	21739
887.648	21713
887.773	21648
887.897	21789
888.021	21781
888.146	21736
888.27	21804
888.395	21762
888.519	21747
888.643	21637
888.767	21800
888.891	21622
889.015	21568
889.139	21682
889.263	21500
889.387	21618
889.511	21781
889.635	21595
889.759	21420
889.883	21504
890.006	21504
890.13	21652
890.254	21370
890.377	21359
890.501	21306
890.624	21195
890.748	21382
890.871	21138
890.995	21108
891.118	21058
891.241	21119
891.364	21112
891.488	21150
891.611	21009
891.734	21077
891.857	21233
891.98	21020
892.103	21119
892.226	21081
892.349	21009
892.471	20876
892.594	21032
892.717	21066
892.839	21005
892.962	21081
893.085	21093
893.207	20960
893.33	20868
893.452	20788
893.575	21089
893.697	20941
893.819	21005
893.941	21116
894.064	21237
894.186	20880
894.308	20918
894.43	20902
894.552	21199
894.674	20952
894.796	20914
894.918	20887
895.04	20815
895.161	21005
895.283	20819
895.405	20769
895.526	20868
895.648	20872
895.769	20876
895.891	21017
896.012	21024
896.134	20975
896.255	21009
896.376	20906
896.498	20952
896.619	20986
896.74	20941
896.861	21066
896.982	21222
897.103	21420
897.224	21165
897.345	21283
897.466	21192
897.587	21051
897.708	21249
897.828	21127
897.949	21180
898.07	20876
898.19	21104
898.311	21165
898.431	21055
898.552	21104
898.672	21252
898.792	21249
898.913	21093
899.033	21062
899.153	20982
899.273	20861
899.393	20971
899.513	20872
899.633	20876
899.753	20963
899.873	20979
899.993	20975
900.113	20876
900.232	20815
900.352	20830
900.472	20663
900.591	20579
900.711	20705
900.83	20613
900.95	20674
901.069	20762
901.189	20659
901.308	20298
901.427	20134
901.546	20229
901.665	20263
901.784	20157
901.904	20050
902.023	20016
902.141	19795
902.26	19807
902.379	19837
902.498	19715
902.617	19689
902.735	19959
902.854	19772
902.973	19635
903.091	19396
903.21	19403
903.328	19289
903.446	19331
903.565	19270
903.683	19278
903.801	19133
903.919	19095
904.038	19057
904.156	19019
904.274	18996
904.392	18882
904.51	18859
904.627	18871
904.745	18932
904.863	18993
904.981	18681
905.098	18650
905.216	18597
905.334	18513
905.451	18555
905.569	18452
905.686	18650
905.803	18654
905.921	18395
906.038	18437
906.155	18410
906.272	18311
906.389	18254
906.506	18171
906.623	18277
906.74	18152
906.857	17984
906.974	18163
907.091	18106
907.208	18289
907.324	18186
907.441	18034
907.557	17783
907.674	17843
907.79	17870
907.907	17665
908.023	17813
908.139	17828
908.256	17794
908.372	17638
908.488	17798
908.604	17448
908.72	17528
908.836	17623
908.952	17661
909.068	17543
909.184	17707
909.3	17611
909.415	17573
909.531	17497
909.647	17345
909.762	17261
909.878	17250
909.993	17349
910.108	17258
910.224	17277
910.339	17231
910.454	17102
910.57	17075
910.685	17025
910.8	17296
910.915	17181
911.03	17056
911.145	16911
911.259	16759
911.374	16816
911.489	16729
911.604	16759
911.718	16611
911.833	16649
911.947	16527
912.062	16424
912.176	16588
912.291	16554
912.405	16622
912.519	16797
912.633	16767
912.748	16618
912.862	16478
912.976	16504
913.09	16234
913.204	16382
913.318	16375
913.431	16569
913.545	16451
913.659	16466
913.772	16284
913.886	16207
914	16211
914.113	16291
914.226	16341
914.34	16276
914.453	16017
914.566	16207
914.68	16135
914.793	16032
914.906	15823
915.019	15656
915.132	15701
915.245	15739
915.358	15789
915.47	15751
915.583	15736
915.696	15774
915.809	15797
915.921	15987
916.034	15766
916.146	15568
916.259	15591
916.371	15751
916.483	15732
916.595	15633
916.708	15545
916.82	15564
916.932	15500
917.044	15492
917.156	15576
917.268	15504
917.38	15458
917.491	15363
917.603	15428
917.715	15492
917.826	15458
917.938	15245
918.049	15283
918.161	15348
918.272	15386
918.384	15454
918.495	15313
918.606	15283
918.717	15062
918.828	15104
918.939	15245
919.05	15074
919.161	15104
919.272	14868
919.383	14998
919.494	15138
919.604	15389
919.715	15093
919.826	14990
919.936	15070
920.047	15173
920.157	15135
920.267	15306
920.378	15127
920.488	14994
920.598	15218
920.708	15408
920.818	15169
920.928	15283
921.038	15393
921.148	15355
921.258	15074
921.368	14963
921.477	14769
921.587	14826
921.697	14636
921.806	14716
921.916	14583
922.025	14507
922.134	14492
922.244	14370
922.353	14446
922.462	14267
922.571	14233
922.68	14062
922.789	14176
922.898	14103
923.007	13970
923.116	14058
923.224	14077
923.333	14005
923.442	13955
923.55	13940
923.659	13906
923.767	13875
923.876	13860
923.984	13909
924.092	13811
924.201	13909
924.309	13906
924.417	13845
924.525	13723
924.633	13776
924.741	14480
924.849	13567
924.956	13670
925.064	13601
925.172	13411
925.279	13384
925.387	13514
925.494	13514
925.602	13548
925.709	13552
925.816	13343
925.924	13411
926.031	13457
926.138	13415
926.245	13491
926.352	13369
926.459	13506
926.566	13403
926.673	13312
926.779	13225
926.886	13168
926.993	13091
927.099	13023
927.206	12909
927.312	12928
927.419	13122
927.525	13069
927.631	12935
927.737	12954
927.843	12890
927.95	12757
928.056	12802
928.162	12852
928.267	12993
928.373	13476
928.479	12916
928.585	12646
928.69	12848
928.796	12787
928.901	12681
929.007	12566
929.112	12585
929.218	12654
929.323	12616
929.428	12566
929.533	12688
929.638	12437
929.743	12460
929.848	12509
929.953	12414
930.058	12300
930.163	12254
930.267	12300
930.372	12346
930.477	12194
930.581	12315
930.685	12266
930.79	12133
930.894	12117
930.998	12091
931.103	12243
931.207	11901
931.311	11756
931.415	11707
931.519	11490
931.623	11372
