Data from test_V78500241_2595.txt Node
Date: Fri Mar 25 15:59:46 CST 2022
User: usil
Spectrometer: V785-0024
Trigger mode: 0
Integration Time (sec): 4.000000E-1
Scans to average: 1
Nonlinearity correction enabled: false
Boxcar width: 0
Storing dark spectrum: false
XAxis mode: Wavelengths
Number of Pixels in Spectrum: 1024
>>>>>Begin Spectral Data<<<<<
801.071	28542
801.214	28531
801.356	28386
801.499	28303
801.641	28120
801.783	28093
801.926	28150
802.068	28166
802.211	28143
802.353	28105
802.496	27899
802.638	27804
802.78	27682
802.923	27724
803.065	27690
803.208	27850
803.35	28002
803.492	28021
803.635	27991
803.777	27903
803.919	28120
804.061	28394
804.204	28048
804.346	27945
804.488	27979
804.63	28150
804.773	27987
804.915	27998
805.057	28192
805.199	28040
805.341	28249
805.483	28234
805.626	28192
805.768	28063
805.91	28162
806.052	28310
806.194	28154
806.336	28348
806.478	28226
806.62	28154
806.762	28333
806.904	28508
807.046	28706
807.188	28645
807.33	28596
807.472	28866
807.614	28801
807.756	28561
807.898	28360
808.04	28440
808.182	28584
808.324	28599
808.465	28649
808.607	28740
808.749	28702
808.891	28965
809.033	29010
809.174	28915
809.316	28854
809.458	28831
809.6	28904
809.741	29029
809.883	28984
810.025	29162
810.166	29265
810.308	29041
810.45	29151
810.591	29147
810.733	28873
810.875	29025
811.016	28748
811.158	28949
811.299	28991
811.441	28995
811.582	29033
811.724	28790
811.865	28694
812.007	28866
812.148	29003
812.29	29060
812.431	28999
812.573	29109
812.714	29364
812.855	29406
812.997	29551
813.138	29642
813.279	29459
813.421	29436
813.562	29433
813.703	29261
813.845	29067
813.986	28645
814.127	28801
814.268	28565
814.41	28637
814.551	28580
814.692	28641
814.833	28470
814.974	28485
815.115	28527
815.256	28481
815.397	28375
815.539	28531
815.68	28348
815.821	28306
815.962	28493
816.103	28504
816.244	28310
816.385	28253
816.526	28211
816.666	27994
816.807	27842
816.948	27972
817.089	27964
817.23	27998
817.371	27869
817.512	27865
817.653	27823
817.793	27804
817.934	27827
818.075	28006
818.216	27968
818.356	27937
818.497	27884
818.638	27660
818.778	27591
818.919	27682
819.06	27804
819.2	27892
819.341	27846
819.481	27956
819.622	28109
819.762	28348
819.903	28162
820.043	28067
820.184	28059
820.324	27934
820.465	28082
820.605	28128
820.746	28032
820.886	28044
821.026	27991
821.167	27903
821.307	27926
821.447	27903
821.588	27819
821.728	27656
821.868	27671
822.008	27344
822.149	27367
822.289	27397
822.429	27074
822.569	27036
822.709	26956
822.849	26891
822.99	26887
823.13	26952
823.27	26834
823.41	26689
823.55	26617
823.69	26895
823.83	26651
823.97	26754
824.11	26533
824.25	26393
824.389	26587
824.529	26655
824.669	26625
824.809	26621
824.949	26785
825.089	26640
825.228	26640
825.368	26465
825.508	26358
825.648	26549
825.787	26526
825.927	26480
826.067	26351
826.206	26305
826.346	26453
826.485	26419
826.625	26339
826.765	26579
826.904	26499
827.044	26164
827.183	26195
827.323	26119
827.462	26134
827.601	26142
827.741	26180
827.88	26145
828.02	26001
828.159	26111
828.298	26077
828.437	26206
828.577	26164
828.716	26259
828.855	26039
828.994	25814
829.134	25894
829.273	26050
829.412	25757
829.551	25704
829.69	25811
829.829	25822
829.968	25883
830.107	25928
830.246	25715
830.385	25879
830.524	25708
830.663	25719
830.802	25563
830.941	25548
831.08	25483
831.219	25472
831.357	25567
831.496	25643
831.635	25510
831.774	25377
831.913	25373
832.051	25293
832.19	25164
832.329	25270
832.467	25133
832.606	25152
832.744	25046
832.883	25084
833.022	25084
833.16	25034
833.299	25175
833.437	25103
833.576	25183
833.714	25095
833.852	25198
833.991	25251
834.129	25171
834.267	25160
834.406	25152
834.544	25232
834.682	25160
834.821	25126
834.959	25343
835.097	25133
835.235	25141
835.373	25042
835.511	25232
835.65	24996
835.788	25012
835.926	24981
836.064	24825
836.202	24859
836.34	24962
836.478	25095
836.615	24966
836.753	24970
836.891	24894
837.029	24886
837.167	24954
837.305	24867
837.443	24764
837.58	24848
837.718	24852
837.856	24882
837.993	24741
838.131	24745
838.269	24779
838.406	24840
838.544	24616
838.681	24479
838.819	24464
838.956	24308
839.094	24334
839.231	24361
839.369	24544
839.506	24585
839.643	24589
839.781	24346
839.918	24114
840.055	24285
840.193	24232
840.33	24277
840.467	24216
840.604	24243
840.742	24471
840.879	24045
841.016	24197
841.153	24144
841.29	24216
841.427	24186
841.564	24178
841.701	24152
841.838	24087
841.975	24167
842.112	24121
842.249	24133
842.385	23942
842.522	24190
842.659	24049
842.796	23950
842.933	23958
843.069	24022
843.206	24007
843.343	24049
843.479	23893
843.616	24041
843.752	23748
843.889	23680
844.025	23817
844.162	23764
844.298	23885
844.435	23752
844.571	23710
844.708	23779
844.844	23866
844.98	23767
845.117	23863
845.253	23764
845.389	23592
845.525	23471
845.661	23501
845.798	23474
845.934	23478
846.07	23372
846.206	23486
846.342	23566
846.478	23486
846.614	23273
846.75	23025
846.886	23109
847.022	23147
847.158	23353
847.294	23227
847.429	23208
847.565	23166
847.701	23391
847.837	22930
847.972	22896
848.108	22976
848.244	22957
848.379	22805
848.515	22698
848.65	22706
848.786	22816
848.921	22889
849.057	22816
849.192	22752
849.328	22774
849.463	22744
849.598	22778
849.734	22535
849.869	22527
850.004	22538
850.14	22535
850.275	22596
850.41	22417
850.545	22504
850.68	22481
850.815	22535
850.95	22542
851.085	22672
851.22	22599
851.355	22550
851.49	22508
851.625	22519
851.76	22607
851.895	22386
852.03	22405
852.165	22580
852.299	22561
852.434	22512
852.569	22626
852.703	22580
852.838	22550
852.973	22763
853.107	22611
853.242	22508
853.376	22443
853.511	22341
853.645	22230
853.78	22413
853.914	22291
854.048	22398
854.183	22318
854.317	22512
854.451	22523
854.585	22402
854.72	22169
854.854	22318
854.988	22261
855.122	22367
855.256	22211
855.39	22379
855.524	22447
855.658	22382
855.792	22462
855.926	22344
856.06	22432
856.194	22512
856.327	22299
856.461	22325
856.595	22234
856.729	22322
856.862	22535
856.996	22306
857.13	22447
857.263	22356
857.397	22436
857.53	22299
857.664	22367
857.797	22405
857.931	22561
858.064	22348
858.197	22489
858.331	22295
858.464	22276
858.597	22196
858.731	22306
858.864	22234
858.997	22421
859.13	22318
859.263	22417
859.396	22466
859.529	22405
859.662	22211
859.795	22249
859.928	22344
860.061	22519
860.194	22504
860.327	22379
860.46	22363
860.592	22432
860.725	22550
860.858	22577
860.99	22386
861.123	22261
861.256	22337
861.388	22325
861.521	22991
861.653	22181
861.786	22261
861.918	22188
862.05	22226
862.183	22322
862.315	22337
862.447	22287
862.58	22356
862.712	22116
862.844	22044
862.976	22074
863.108	22185
863.24	22653
863.372	21964
863.504	22139
863.636	22040
863.768	22078
863.9	22082
864.032	22006
864.164	22032
864.296	22051
864.428	22074
864.559	22124
864.691	22097
864.823	22051
864.954	22010
865.086	21975
865.217	21949
865.349	21827
865.48	22051
865.612	21888
865.743	22040
865.875	21937
866.006	21846
866.137	22032
866.269	22070
866.4	21884
866.531	21808
866.662	21941
866.793	21895
866.924	21945
867.055	21922
867.186	21854
867.317	21842
867.448	21751
867.579	21911
867.71	21743
867.841	21694
867.972	21953
868.103	21899
868.233	21759
868.364	21797
868.495	21903
868.625	22063
868.756	22257
868.886	21960
869.017	22036
869.147	22124
869.278	22078
869.408	22131
869.539	22090
869.669	22261
869.799	22242
869.929	22192
870.06	22207
870.19	22466
870.32	22394
870.45	22474
870.58	22546
870.71	22622
870.84	22580
870.97	22402
871.1	22523
871.23	22641
871.36	22698
871.489	22599
871.619	22694
871.749	22607
871.879	22729
872.008	22809
872.138	22736
872.267	22691
872.397	22626
872.526	22523
872.656	22474
872.785	22508
872.915	22755
873.044	22873
873.173	22717
873.303	22725
873.432	22736
873.561	22919
873.69	22790
873.819	22687
873.948	22839
874.077	22748
874.206	22721
874.335	22744
874.464	22755
874.593	22976
874.722	22904
874.851	22869
874.979	23037
875.108	22930
875.237	22824
875.365	22866
875.494	22828
875.623	22942
875.751	22919
875.88	22843
876.008	23044
876.136	23075
876.265	23349
876.393	23486
876.521	23402
876.65	23414
876.778	23356
876.906	23387
877.034	23193
877.162	23258
877.29	23193
877.418	23330
877.546	23284
877.674	23334
877.802	23288
877.93	23261
878.058	23242
878.185	23159
878.313	23246
878.441	23178
878.568	23071
878.696	23193
878.824	23311
878.951	23349
879.079	23410
879.206	23531
879.333	23436
879.461	23307
879.588	23524
879.715	23585
879.842	23619
879.97	23459
880.097	23185
880.224	23132
880.351	23143
880.478	23086
880.605	23136
880.732	23181
880.859	23410
880.986	23147
881.112	23162
881.239	23025
881.366	22866
881.493	22771
881.619	22725
881.746	22725
881.872	22622
881.999	22729
882.125	22607
882.252	22774
882.378	22618
882.505	22687
882.631	22531
882.757	22428
882.883	22382
883.01	22394
883.136	22291
883.262	22246
883.388	22150
883.514	22356
883.64	22306
883.766	22295
883.892	22036
884.018	22105
884.143	22329
884.269	22371
884.395	22120
884.52	21934
884.646	21949
884.772	21907
884.897	21850
885.023	21987
885.148	22032
885.274	22147
885.399	22105
885.524	22131
885.65	21953
885.775	22048
885.9	21884
886.025	22021
886.15	22067
886.275	21915
886.4	21892
886.525	21930
886.65	21975
886.775	21842
886.9	22059
887.025	22162
887.149	21972
887.274	21667
887.399	21751
887.523	21637
887.648	21709
887.773	21557
887.897	21728
888.021	21793
888.146	21717
888.27	21644
888.395	21751
888.519	21747
888.643	21823
888.767	21736
888.891	21534
889.015	21549
889.139	21580
889.263	21500
889.387	21656
889.511	21595
889.635	21755
889.759	21428
889.883	21622
890.006	21466
890.13	21477
890.254	21500
890.377	21481
890.501	21363
890.624	21199
890.748	21313
890.871	21157
890.995	21089
891.118	20971
891.241	21096
891.364	21070
891.488	21287
891.611	21070
891.734	21051
891.857	21100
891.98	21036
892.103	21142
892.226	21043
892.349	21062
892.471	20838
892.594	20952
892.717	21013
892.839	21009
892.962	21001
893.085	21032
893.207	20834
893.33	20861
893.452	20720
893.575	20994
893.697	20956
893.819	21199
893.941	21055
894.064	21074
894.186	20990
894.308	20914
894.43	21093
894.552	21199
894.674	21096
894.796	20830
894.918	20925
895.04	20944
895.161	21070
895.283	21020
895.405	20849
895.526	21028
895.648	21043
895.769	20952
895.891	21017
896.012	20906
896.134	21009
896.255	21039
896.376	20880
896.498	20925
896.619	20963
896.74	20941
896.861	20990
896.982	21260
897.103	21496
897.224	21226
897.345	21218
897.466	21127
897.587	21169
897.708	21294
897.828	21150
897.949	21127
898.07	21032
898.19	21108
898.311	21260
898.431	21043
898.552	21222
898.672	21275
898.792	21089
898.913	21100
899.033	21089
899.153	21062
899.273	20792
899.393	20929
899.513	20944
899.633	20998
899.753	21024
899.873	20853
899.993	20960
900.113	20887
900.232	20880
900.352	20864
900.472	20781
900.591	20796
900.711	20659
900.83	20674
900.95	20861
901.069	20727
901.189	20579
901.308	20191
901.427	20161
901.546	20339
901.665	20313
901.784	20347
901.904	20069
902.023	19883
902.141	19871
902.26	19795
902.379	19837
902.498	19818
902.617	19693
902.735	19795
902.854	19757
902.973	19685
903.091	19324
903.21	19403
903.328	19358
903.446	19426
903.565	19335
903.683	19240
903.801	19069
903.919	19137
904.038	19137
904.156	18924
904.274	18840
904.392	18928
904.51	18878
904.627	19034
904.745	18954
904.863	19019
904.981	18745
905.098	18776
905.216	18673
905.334	18688
905.451	18642
905.569	18696
905.686	18574
905.803	18551
905.921	18380
906.038	18506
906.155	18486
906.272	18342
906.389	18213
906.506	18087
906.623	18155
906.74	18190
906.857	18106
906.974	18133
907.091	18163
907.208	18285
907.324	18136
907.441	18049
907.557	17897
907.674	17893
907.79	17809
907.907	17832
908.023	17821
908.139	17885
908.256	17840
908.372	17642
908.488	17722
908.604	17490
908.72	17581
908.836	17562
908.952	17619
909.068	17722
909.184	17672
909.3	17471
909.415	17657
909.531	17619
909.647	17402
909.762	17220
909.878	17178
909.993	17326
910.108	17170
910.224	17197
910.339	17231
910.454	17140
910.57	17052
910.685	16972
910.8	17265
910.915	17193
911.03	17064
911.145	16854
911.259	16885
911.374	16847
911.489	16733
911.604	16713
911.718	16573
911.833	16603
911.947	16561
912.062	16413
912.176	16641
912.291	16596
912.405	16535
912.519	16721
912.633	16809
912.748	16660
912.862	16542
912.976	16485
913.09	16314
913.204	16284
913.318	16382
913.431	16424
913.545	16344
913.659	16489
913.772	16337
913.886	16261
914	16223
914.113	16261
914.226	16242
914.34	16291
914.453	16059
914.566	16204
914.68	16074
914.793	15972
914.906	15823
915.019	15797
915.132	15690
915.245	15732
915.358	15808
915.47	15812
915.583	15804
915.696	15766
915.809	15846
915.921	15922
916.034	15762
916.146	15682
916.259	15713
916.371	15728
916.483	15694
916.595	15629
916.708	15591
916.82	15511
916.932	15515
917.044	15519
917.156	15557
917.268	15420
917.38	15477
917.491	15431
917.603	15363
917.715	15450
917.826	15485
917.938	15302
918.049	15142
918.161	15378
918.272	15431
918.384	15412
918.495	15306
918.606	15180
918.717	15089
918.828	15150
918.939	15142
919.05	15100
919.161	15093
919.272	14941
919.383	14941
919.494	15199
919.604	15313
919.715	15214
919.826	15100
919.936	15032
920.047	15097
920.157	15131
920.267	15245
920.378	15085
920.488	15013
920.598	15275
920.708	15435
920.818	15192
920.928	15256
921.038	15355
921.148	15245
921.258	14971
921.368	14842
921.477	14880
921.587	14826
921.697	14636
921.806	14830
921.916	14575
922.025	14511
922.134	14419
922.244	14419
922.353	14511
922.462	14377
922.571	14313
922.68	14210
922.789	14058
922.898	14130
923.007	14046
923.116	14065
923.224	14187
923.333	14130
923.442	13951
923.55	13909
923.659	14012
923.767	14001
923.876	13811
923.984	14077
924.092	13784
924.201	13917
924.309	13769
924.417	13868
924.525	13734
924.633	13723
924.741	14648
924.849	13483
924.956	13639
925.064	13552
925.172	13384
925.279	13384
925.387	13552
925.494	13552
925.602	13518
925.709	13514
925.816	13320
925.924	13480
926.031	13578
926.138	13434
926.245	13411
926.352	13308
926.459	13472
926.566	13438
926.673	13453
926.779	13312
926.886	13202
926.993	13050
927.099	13137
927.206	12882
927.312	12916
927.419	13122
927.525	12981
927.631	13053
927.737	12897
927.843	12871
927.95	12650
928.056	12821
928.162	12837
928.267	12848
928.373	13438
928.479	12947
928.585	12673
928.69	12760
928.796	12810
928.901	12730
929.007	12563
929.112	12696
929.218	12578
929.323	12620
929.428	12551
929.533	12631
929.638	12540
929.743	12570
929.848	12528
929.953	12460
930.058	12433
930.163	12277
930.267	12308
930.372	12338
930.477	12197
930.581	12418
930.685	12292
930.79	12076
930.894	12133
930.998	12098
931.103	12186
931.207	11847
931.311	11840
931.415	11684
931.519	11551
931.623	11414
