Data from test_V78500241_938.txt Node
Date: Fri Mar 25 15:48:17 CST 2022
User: usil
Spectrometer: V785-0024
Trigger mode: 0
Integration Time (sec): 4.000000E-1
Scans to average: 1
Nonlinearity correction enabled: false
Boxcar width: 0
Storing dark spectrum: false
XAxis mode: Wavelengths
Number of Pixels in Spectrum: 1024
>>>>>Begin Spectral Data<<<<<
801.071	28531
801.214	28493
801.356	28246
801.499	28158
801.641	28272
801.783	28128
801.926	28207
802.068	28116
802.211	28032
802.353	27991
802.496	27831
802.638	27644
802.78	27660
802.923	27728
803.065	27724
803.208	27819
803.35	27831
803.492	28032
803.635	27880
803.777	27964
803.919	28135
804.061	28443
804.204	28150
804.346	28029
804.488	27922
804.63	27994
804.773	27903
804.915	28090
805.057	28185
805.199	27964
805.341	28139
805.483	28272
805.626	28101
805.768	28067
805.91	28158
806.052	28135
806.194	28204
806.336	28489
806.478	28200
806.62	28177
806.762	28386
806.904	28443
807.046	28634
807.188	28596
807.33	28729
807.472	28717
807.614	28535
807.756	28664
807.898	28546
808.04	28523
808.182	28542
808.324	28542
808.465	28542
808.607	28664
808.749	28923
808.891	29064
809.033	29121
809.174	28949
809.316	28915
809.458	28767
809.6	28816
809.741	28930
809.883	29079
810.025	29098
810.166	29311
810.308	29250
810.45	29094
810.591	29124
810.733	29014
810.875	28858
811.016	28752
811.158	28850
811.299	29117
811.441	29071
811.582	29018
811.724	29010
811.865	28790
812.007	29037
812.148	28968
812.29	28995
812.431	29102
812.573	29155
812.714	29349
812.855	29455
812.997	29490
813.138	29619
813.279	29653
813.421	29611
813.562	29364
813.703	29463
813.845	29277
813.986	28809
814.127	28748
814.268	28713
814.41	28687
814.551	28675
814.692	28778
814.833	28615
814.974	28577
815.115	28668
815.256	28478
815.397	28516
815.539	28428
815.68	28261
815.821	28299
815.962	28557
816.103	28451
816.244	28329
816.385	28166
816.526	28188
816.666	28109
816.807	27960
816.948	28131
817.089	28055
817.23	27945
817.371	27953
817.512	27907
817.653	27987
817.793	27892
817.934	28086
818.075	28044
818.216	28074
818.356	27827
818.497	27857
818.638	27808
818.778	27785
818.919	27739
819.06	27835
819.2	27892
819.341	27865
819.481	27926
819.622	28097
819.762	28322
819.903	28268
820.043	28181
820.184	28105
820.324	28078
820.465	28109
820.605	28211
820.746	27941
820.886	28021
821.026	27994
821.167	27987
821.307	28112
821.447	27941
821.588	27812
821.728	27778
821.868	27454
822.008	27545
822.149	27431
822.289	27473
822.429	27146
822.569	27089
822.709	27028
822.849	27020
822.99	27043
823.13	26963
823.27	26876
823.41	26777
823.55	26724
823.69	26853
823.83	26796
823.97	26811
824.11	26712
824.25	26568
824.389	26651
824.529	26754
824.669	26651
824.809	26625
824.949	26651
825.089	26739
825.228	26667
825.368	26438
825.508	26412
825.648	26537
825.787	26446
825.927	26564
826.067	26545
826.206	26587
826.346	26556
826.485	26602
826.625	26469
826.765	26511
826.904	26514
827.044	26362
827.183	26221
827.323	26180
827.462	26263
827.601	26050
827.741	26122
827.88	26229
828.02	26016
828.159	26199
828.298	26161
828.437	26214
828.577	26012
828.716	26267
828.855	26130
828.994	25932
829.134	25970
829.273	25959
829.412	25875
829.551	25860
829.69	25928
829.829	25784
829.968	25963
830.107	25978
830.246	25902
830.385	25765
830.524	25841
830.663	25803
830.802	25647
830.941	25499
831.08	25533
831.219	25441
831.357	25521
831.496	25613
831.635	25510
831.774	25457
831.913	25381
832.051	25240
832.19	25339
832.329	25324
832.467	25190
832.606	25103
832.744	25103
832.883	25107
833.022	25053
833.16	25247
833.299	25133
833.437	25259
833.576	25228
833.714	25346
833.852	25263
833.991	25331
834.129	25381
834.267	25331
834.406	25175
834.544	25190
834.682	25282
834.821	25206
834.959	25415
835.097	25209
835.235	25228
835.373	25088
835.511	25141
835.65	25076
835.788	25004
835.926	24905
836.064	24897
836.202	24848
836.34	24943
836.478	25171
836.615	25019
836.753	24977
836.891	25145
837.029	25076
837.167	24928
837.305	24954
837.443	24951
837.58	24802
837.718	25034
837.856	24943
837.993	24764
838.131	24863
838.269	24700
838.406	24749
838.544	24703
838.681	24540
838.819	24422
838.956	24369
839.094	24243
839.231	24323
839.369	24441
839.506	24745
839.643	24604
839.781	24369
839.918	24323
840.055	24273
840.193	24448
840.33	24213
840.467	24270
840.604	24422
840.742	24502
840.879	24038
841.016	24239
841.153	24106
841.29	24353
841.427	24148
841.564	24194
841.701	24148
841.838	24201
841.975	24174
842.112	24140
842.249	24148
842.385	24057
842.522	24262
842.659	24034
842.796	24007
842.933	24095
843.069	23965
843.206	23935
843.343	23992
843.479	23931
843.616	23973
843.752	23737
843.889	23687
844.025	23908
844.162	23726
844.298	23794
844.435	23695
844.571	23748
844.708	23771
844.844	23923
844.98	23874
845.117	23874
845.253	23737
845.389	23684
845.525	23722
845.661	23554
845.798	23448
845.934	23520
846.07	23444
846.206	23478
846.342	23676
846.478	23402
846.614	23356
846.75	23174
846.886	23284
847.022	23227
847.158	23235
847.294	23124
847.429	23288
847.565	23178
847.701	23551
847.837	22866
847.972	22889
848.108	22984
848.244	22968
848.379	22748
848.515	22812
848.65	22854
848.786	22892
848.921	22881
849.057	22957
849.192	22831
849.328	22831
849.463	22778
849.598	22786
849.734	22740
849.869	22843
850.004	22713
850.14	22527
850.275	22596
850.41	22546
850.545	22584
850.68	22546
850.815	22538
850.95	22573
851.085	22622
851.22	22774
851.355	22546
851.49	22580
851.625	22489
851.76	22561
851.895	22493
852.03	22462
852.165	22550
852.299	22607
852.434	22527
852.569	22584
852.703	22531
852.838	22588
852.973	22698
853.107	22694
853.242	22523
853.376	22360
853.511	22322
853.645	22386
853.78	22481
853.914	22432
854.048	22299
854.183	22398
854.317	22436
854.451	22550
854.585	22375
854.72	22466
854.854	22485
854.988	22291
855.122	22512
855.256	22200
855.39	22363
855.524	22352
855.658	22451
855.792	22443
855.926	22375
856.06	22337
856.194	22462
856.327	22314
856.461	22360
856.595	22223
856.729	22443
856.862	22405
856.996	22481
857.13	22455
857.263	22394
857.397	22367
857.53	22432
857.664	22478
857.797	22554
857.931	22538
858.064	22462
858.197	22337
858.331	22367
858.464	22303
858.597	22196
858.731	22371
858.864	22310
858.997	22360
859.13	22329
859.263	22466
859.396	22432
859.529	22379
859.662	22390
859.795	22295
859.928	22459
860.061	22531
860.194	22554
860.327	22341
860.46	22447
860.592	22550
860.725	22519
860.858	22474
860.99	22394
861.123	22226
861.256	22299
861.388	22390
861.521	22995
861.653	22249
861.786	22097
861.918	22253
862.05	22337
862.183	22421
862.315	22299
862.447	22432
862.58	22284
862.712	22013
862.844	22010
862.976	22219
863.108	22086
863.24	22440
863.372	21972
863.504	22063
863.636	21975
863.768	22131
863.9	22101
864.032	21945
864.164	22044
864.296	22173
864.428	22234
864.559	22116
864.691	22196
864.823	22120
864.954	22139
865.086	22021
865.217	22006
865.349	21930
865.48	21994
865.612	21972
865.743	22002
865.875	22074
866.006	21968
866.137	21781
866.269	22021
866.4	22013
866.531	21899
866.662	21819
866.793	21732
866.924	21884
867.055	21960
867.186	21880
867.317	21903
867.448	21732
867.579	21842
867.71	21846
867.841	21819
867.972	21953
868.103	21918
868.233	21911
868.364	21873
868.495	22017
868.625	22101
868.756	22200
868.886	22063
869.017	22166
869.147	22219
869.278	22253
869.408	22219
869.539	22082
869.669	22242
869.799	22177
869.929	22234
870.06	22097
870.19	22348
870.32	22432
870.45	22527
870.58	22462
870.71	22607
870.84	22717
870.97	22493
871.1	22531
871.23	22691
871.36	22729
871.489	22656
871.619	22603
871.749	22805
871.879	22668
872.008	22744
872.138	22733
872.267	22790
872.397	22615
872.526	22523
872.656	22618
872.785	22630
872.915	22622
873.044	22805
873.173	22702
873.303	22733
873.432	22778
873.561	22881
873.69	22736
873.819	22721
873.948	22866
874.077	22721
874.206	22706
874.335	22797
874.464	22854
874.593	23079
874.722	22847
874.851	22919
874.979	22995
875.108	23056
875.237	22930
875.365	22763
875.494	22949
875.623	23037
875.751	22976
875.88	22923
876.008	23071
876.136	23151
876.265	23349
876.393	23471
876.521	23391
876.65	23364
876.778	23429
876.906	23307
877.034	23204
877.162	23246
877.29	23322
877.418	23421
877.546	23296
877.674	23353
877.802	23280
877.93	23334
878.058	23197
878.185	23212
878.313	23200
878.441	23216
878.568	23151
878.696	23151
878.824	23193
878.951	23356
879.079	23501
879.206	23615
879.333	23455
879.461	23322
879.588	23379
879.715	23406
879.842	23596
879.97	23433
880.097	23170
880.224	23208
880.351	23204
880.478	23056
880.605	23136
880.732	23094
880.859	23410
880.986	23189
881.112	23140
881.239	22904
881.366	22923
881.493	22816
881.619	22653
881.746	22755
881.872	22672
881.999	22550
882.125	22527
882.252	22691
882.378	22755
882.505	22733
882.631	22573
882.757	22421
882.883	22421
883.01	22386
883.136	22443
883.262	22276
883.388	22230
883.514	22424
883.64	22382
883.766	22299
883.892	22048
884.018	22116
884.143	22261
884.269	22360
884.395	22207
884.52	22036
884.646	21975
884.772	21956
884.897	21907
885.023	21953
885.148	22082
885.274	22177
885.399	22147
885.524	22025
885.65	22040
885.775	22010
885.9	21983
886.025	22070
886.15	22017
886.275	21842
886.4	21873
886.525	21899
886.65	21850
886.775	21911
886.9	22128
887.025	22185
887.149	21899
887.274	21819
887.399	21857
887.523	21812
887.648	21720
887.773	21785
887.897	21915
888.021	21865
888.146	21622
888.27	21827
888.395	21747
888.519	21903
888.643	21823
888.767	21812
888.891	21606
889.015	21595
889.139	21606
889.263	21481
889.387	21625
889.511	21682
889.635	21690
889.759	21534
889.883	21473
890.006	21538
890.13	21675
890.254	21378
890.377	21534
890.501	21351
890.624	21317
890.748	21226
890.871	21313
890.995	21283
891.118	21104
891.241	21211
891.364	21104
891.488	21218
891.611	21119
891.734	21135
891.857	21176
891.98	21161
892.103	21081
892.226	21176
892.349	21024
892.471	20910
892.594	21024
892.717	21039
892.839	21047
892.962	21039
893.085	21039
893.207	21005
893.33	20845
893.452	20998
893.575	21009
893.697	20933
893.819	21100
893.941	21157
894.064	21055
894.186	20918
894.308	20887
894.43	21055
894.552	21180
894.674	21100
894.796	20899
894.918	21009
895.04	21024
895.161	21070
895.283	21089
895.405	20868
895.526	21062
895.648	20971
895.769	20929
895.891	21020
896.012	20998
896.134	21047
896.255	20857
896.376	20868
896.498	20960
896.619	21058
896.74	20979
896.861	20910
896.982	21447
897.103	21317
897.224	21298
897.345	21108
897.466	21195
897.587	21096
897.708	21382
897.828	21127
897.949	21138
898.07	20979
898.19	21096
898.311	21256
898.431	21214
898.552	21104
898.672	21287
898.792	21256
898.913	21180
899.033	21123
899.153	20937
899.273	20910
899.393	20876
899.513	20975
899.633	20979
899.753	20868
899.873	20777
899.993	20971
900.113	20686
900.232	20933
900.352	20918
900.472	20651
900.591	20651
900.711	20785
900.83	20667
900.95	20773
901.069	20712
901.189	20446
901.308	20480
901.427	20294
901.546	20157
901.665	20294
901.784	20248
901.904	20164
902.023	20096
902.141	19780
902.26	19784
902.379	19818
902.498	19761
902.617	19635
902.735	19624
902.854	19643
902.973	19670
903.091	19457
903.21	19457
903.328	19441
903.446	19457
903.565	19156
903.683	19171
903.801	19171
903.919	19126
904.038	19110
904.156	18928
904.274	18909
904.392	19031
904.51	18882
904.627	18875
904.745	18916
904.863	19061
904.981	18734
905.098	18559
905.216	18608
905.334	18582
905.451	18734
905.569	18711
905.686	18703
905.803	18559
905.921	18540
906.038	18521
906.155	18509
906.272	18319
906.389	18426
906.506	18243
906.623	18186
906.74	18155
906.857	18083
906.974	17984
907.091	18178
907.208	18197
907.324	18197
907.441	17920
907.557	17863
907.674	17821
907.79	17893
907.907	17798
908.023	17840
908.139	17942
908.256	17684
908.372	17668
908.488	17695
908.604	17649
908.72	17505
908.836	17642
908.952	17551
909.068	17577
909.184	17790
909.3	17551
909.415	17585
909.531	17532
909.647	17280
909.762	17223
909.878	17242
909.993	17284
910.108	17231
910.224	17349
910.339	17307
910.454	17083
910.57	17128
910.685	16995
910.8	17258
910.915	17162
911.03	17067
911.145	16919
911.259	16896
911.374	16854
911.489	16774
911.604	16729
911.718	16596
911.833	16672
911.947	16474
912.062	16409
912.176	16596
912.291	16694
912.405	16599
912.519	16710
912.633	16744
912.748	16558
912.862	16516
912.976	16523
913.09	16249
913.204	16310
913.318	16344
913.431	16527
913.545	16428
913.659	16489
913.772	16318
913.886	16249
914	16120
914.113	16352
914.226	16226
914.34	16242
914.453	16120
914.566	16215
914.68	16082
914.793	16013
914.906	15888
915.019	15785
915.132	15679
915.245	15789
915.358	15781
915.47	15732
915.583	15743
915.696	15766
915.809	15880
915.921	15956
916.034	15766
916.146	15679
916.259	15603
916.371	15816
916.483	15755
916.595	15610
916.708	15709
916.82	15549
916.932	15542
917.044	15530
917.156	15572
917.268	15416
917.38	15477
917.491	15317
917.603	15428
917.715	15412
917.826	15500
917.938	15412
918.049	15283
918.161	15321
918.272	15481
918.384	15473
918.495	15351
918.606	15161
918.717	15230
918.828	15195
918.939	15279
919.05	15047
919.161	15138
919.272	14861
919.383	14929
919.494	15199
919.604	15340
919.715	15138
919.826	15028
919.936	14998
920.047	15169
920.157	15028
920.267	15272
920.378	15161
920.488	15093
920.598	15157
920.708	15401
920.818	15230
920.928	15192
921.038	15412
921.148	15256
921.258	15100
921.368	15009
921.477	14910
921.587	14823
921.697	14648
921.806	14830
921.916	14617
922.025	14575
922.134	14503
922.244	14393
922.353	14507
922.462	14438
922.571	14332
922.68	14103
922.789	14218
922.898	14107
923.007	14054
923.116	14107
923.224	14153
923.333	14069
923.442	13917
923.55	13932
923.659	13890
923.767	14008
923.876	13902
923.984	14043
924.092	13799
924.201	13822
924.309	13811
924.417	13947
924.525	13723
924.633	13803
924.741	14648
924.849	13518
924.956	13708
925.064	13533
925.172	13559
925.279	13453
925.387	13521
925.494	13491
925.602	13590
925.709	13609
925.816	13422
925.924	13491
926.031	13578
926.138	13350
926.245	13403
926.352	13343
926.459	13476
926.566	13453
926.673	13377
926.779	13282
926.886	13217
926.993	13015
927.099	13107
927.206	12973
927.312	12970
927.419	13027
927.525	13072
927.631	13038
927.737	12909
927.843	12920
927.95	12745
928.056	12829
928.162	12901
928.267	12916
928.373	13312
928.479	12951
928.585	12658
928.69	12810
928.796	12837
928.901	12715
929.007	12540
929.112	12684
929.218	12646
929.323	12547
929.428	12631
929.533	12749
929.638	12490
929.743	12506
929.848	12486
929.953	12578
930.058	12380
930.163	12239
930.267	12334
930.372	12372
930.477	12186
930.581	12471
930.685	12232
930.79	12064
930.894	12095
930.998	12030
931.103	12334
931.207	11927
931.311	11813
931.415	11657
931.519	11486
931.623	11493
