Data from test_V78500241_206.txt Node
Date: Fri Mar 25 15:43:13 CST 2022
User: usil
Spectrometer: V785-0024
Trigger mode: 0
Integration Time (sec): 4.000000E-1
Scans to average: 1
Nonlinearity correction enabled: false
Boxcar width: 0
Storing dark spectrum: false
XAxis mode: Wavelengths
Number of Pixels in Spectrum: 1024
>>>>>Begin Spectral Data<<<<<
801.071	29554
801.214	29531
801.356	29307
801.499	29307
801.641	28858
801.783	29140
801.926	29079
802.068	29044
802.211	28892
802.353	28930
802.496	28771
802.638	28664
802.78	28710
802.923	28535
803.065	28554
803.208	28672
803.35	28702
803.492	28820
803.635	28858
803.777	28771
803.919	28740
804.061	29128
804.204	28881
804.346	28752
804.488	28672
804.63	28801
804.773	28679
804.915	28782
805.057	28911
805.199	28904
805.341	28965
805.483	28923
805.626	28946
805.768	28637
805.91	28869
806.052	29037
806.194	28991
806.336	29098
806.478	28999
806.62	28896
806.762	28980
806.904	29185
807.046	29512
807.188	29337
807.33	29242
807.472	29406
807.614	29273
807.756	29315
807.898	29140
808.04	28999
808.182	29147
808.324	29155
808.465	29079
808.607	29216
808.749	29429
808.891	29657
809.033	29771
809.174	29520
809.316	29558
809.458	29516
809.6	29490
809.741	29566
809.883	29680
810.025	29695
810.166	29946
810.308	29760
810.45	29748
810.591	29767
810.733	29573
810.875	29516
811.016	29254
811.158	29463
811.299	29501
811.441	29703
811.582	29646
811.724	29573
811.865	29452
812.007	29452
812.148	29509
812.29	29467
812.431	29501
812.573	29817
812.714	29775
812.855	29904
812.997	30041
813.138	30239
813.279	30038
813.421	30163
813.562	30034
813.703	29786
813.845	29642
813.986	29372
814.127	29258
814.268	29041
814.41	29018
814.551	29064
814.692	29155
814.833	29010
814.974	29083
815.115	29086
815.256	28972
815.397	28831
815.539	28919
815.68	28835
815.821	28869
815.962	28930
816.103	28755
816.244	28801
816.385	28557
816.526	28706
816.666	28405
816.807	28291
816.948	28386
817.089	28447
817.23	28344
817.371	28333
817.512	28265
817.653	28401
817.793	28158
817.934	28242
818.075	28436
818.216	28325
818.356	28040
818.497	28181
818.638	27979
818.778	28048
818.919	27884
819.06	27987
819.2	28093
819.341	28211
819.481	28150
819.622	28322
819.762	28519
819.903	28386
820.043	28230
820.184	28333
820.324	28310
820.465	28394
820.605	28284
820.746	28303
820.886	28135
821.026	28390
821.167	28249
821.307	28394
821.447	28143
821.588	28070
821.728	27903
821.868	27808
822.008	27667
822.149	27717
822.289	27466
822.429	27241
822.569	27336
822.709	27275
822.849	27154
822.99	26979
823.13	27009
823.27	27047
823.41	26868
823.55	26796
823.69	26823
823.83	26834
823.97	26815
824.11	26640
824.25	26518
824.389	26724
824.529	26792
824.669	26724
824.809	26857
824.949	26804
825.089	26716
825.228	26693
825.368	26492
825.508	26571
825.648	26514
825.787	26560
825.927	26568
826.067	26396
826.206	26488
826.346	26522
826.485	26381
826.625	26465
826.765	26632
826.904	26400
827.044	26305
827.183	26256
827.323	26187
827.462	26252
827.601	26195
827.741	26035
827.88	26115
828.02	26119
828.159	26229
828.298	26119
828.437	26187
828.577	26077
828.716	26320
828.855	25932
828.994	25898
829.134	25887
829.273	25909
829.412	25765
829.551	25803
829.69	25887
829.829	25799
829.968	25913
830.107	25753
830.246	25814
830.385	25925
830.524	25727
830.663	25628
830.802	25400
830.941	25453
831.08	25316
831.219	25460
831.357	25495
831.496	25681
831.635	25304
831.774	25141
831.913	25175
832.051	25213
832.19	25213
832.329	25164
832.467	24935
832.606	24935
832.744	25023
832.883	25050
833.022	25069
833.16	25091
833.299	25103
833.437	25042
833.576	25084
833.714	25126
833.852	24981
833.991	25053
834.129	25015
834.267	25160
834.406	25129
834.544	25152
834.682	25072
834.821	24962
834.959	25164
835.097	24909
835.235	24958
835.373	24970
835.511	25004
835.65	24886
835.788	24802
835.926	24745
836.064	24665
836.202	24753
836.34	24970
836.478	24867
836.615	24897
836.753	24897
836.891	24844
837.029	24833
837.167	24814
837.305	24821
837.443	24681
837.58	24703
837.718	24848
837.856	24673
837.993	24684
838.131	24589
838.269	24563
838.406	24555
838.544	24471
838.681	24209
838.819	24213
838.956	24038
839.094	23916
839.231	24201
839.369	24361
839.506	24464
839.643	24277
839.781	23999
839.918	23961
840.055	24091
840.193	24026
840.33	23908
840.467	24034
840.604	23950
840.742	24281
840.879	23935
841.016	23973
841.153	23866
841.29	24003
841.427	23847
841.564	24011
841.701	23901
841.838	24045
841.975	23760
842.112	23798
842.249	23802
842.385	23646
842.522	23946
842.659	23623
842.796	23649
842.933	23649
843.069	23570
843.206	23566
843.343	23707
843.479	23699
843.616	23649
843.752	23379
843.889	23490
844.025	23566
844.162	23410
844.298	23360
844.435	23383
844.571	23318
844.708	23402
844.844	23448
844.98	23444
845.117	23585
845.253	23231
845.389	23296
845.525	23246
845.661	23250
845.798	23071
845.934	23231
846.07	23143
846.206	23132
846.342	23216
846.478	23220
846.614	22850
846.75	22801
846.886	22786
847.022	22900
847.158	22881
847.294	22854
847.429	22801
847.565	22691
847.701	23052
847.837	22637
847.972	22382
848.108	22615
848.244	22691
848.379	22371
848.515	22375
848.65	22348
848.786	22367
848.921	22287
849.057	22478
849.192	22428
849.328	22363
849.463	22352
849.598	22360
849.734	22280
849.869	22268
850.004	22234
850.14	22162
850.275	22181
850.41	21994
850.545	22025
850.68	21994
850.815	22246
850.95	22090
851.085	22390
851.22	22242
851.355	22128
851.49	22059
851.625	22093
851.76	22105
851.895	21903
852.03	22029
852.165	22082
852.299	22188
852.434	22234
852.569	22169
852.703	22105
852.838	22013
852.973	22048
853.107	22086
853.242	21949
853.376	21960
853.511	21842
853.645	21903
853.78	21991
853.914	21884
854.048	21918
854.183	21934
854.317	21846
854.451	22135
854.585	21964
854.72	21816
854.854	21937
854.988	21717
855.122	21823
855.256	21759
855.39	21854
855.524	22029
855.658	21991
855.792	21861
855.926	21804
856.06	21975
856.194	22048
856.327	21846
856.461	21827
856.595	21781
856.729	21930
856.862	21949
856.996	21953
857.13	21956
857.263	22017
857.397	21975
857.53	21770
857.664	21926
857.797	21941
857.931	22032
858.064	21888
858.197	22002
858.331	21800
858.464	21816
858.597	21770
858.731	21724
858.864	21865
858.997	21827
859.13	21717
859.263	21873
859.396	21949
859.529	21759
859.662	21644
859.795	21804
859.928	21869
860.061	21880
860.194	22029
860.327	21835
860.46	21682
860.592	21960
860.725	22021
860.858	21880
860.99	21903
861.123	21842
861.256	21656
861.388	21751
861.521	22402
861.653	21739
861.786	21736
861.918	21679
862.05	21774
862.183	21850
862.315	21831
862.447	21850
862.58	21701
862.712	21667
862.844	21675
862.976	21595
863.108	21538
863.24	22078
863.372	21408
863.504	21564
863.636	21393
863.768	21576
863.9	21500
864.032	21359
864.164	21504
864.296	21583
864.428	21663
864.559	21644
864.691	21473
864.823	21576
864.954	21469
865.086	21401
865.217	21420
865.349	21237
865.48	21340
865.612	21428
865.743	21603
865.875	21317
866.006	21367
866.137	21363
866.269	21435
866.4	21370
866.531	21340
866.662	21104
866.793	21260
866.924	21431
867.055	21416
867.186	21230
867.317	21256
867.448	21233
867.579	21256
867.71	21203
867.841	21138
867.972	21298
868.103	21275
868.233	21336
868.364	21291
868.495	21435
868.625	21481
868.756	21526
868.886	21424
869.017	21420
869.147	21663
869.278	21682
869.408	21618
869.539	21606
869.669	21610
869.799	21587
869.929	21618
870.06	21724
870.19	21888
870.32	21774
870.45	21926
870.58	21899
870.71	22051
870.84	22044
870.97	21926
871.1	21953
871.23	22169
871.36	22101
871.489	21994
871.619	22036
871.749	22143
871.879	22238
872.008	22314
872.138	22162
872.267	22226
872.397	21960
872.526	21968
872.656	22040
872.785	21998
872.915	22158
873.044	22230
873.173	22188
873.303	22272
873.432	22162
873.561	22299
873.69	22143
873.819	22143
873.948	22238
874.077	22051
874.206	22120
874.335	22063
874.464	22310
874.593	22287
874.722	22276
874.851	22390
874.979	22337
875.108	22432
875.237	22382
875.365	22166
875.494	22325
875.623	22432
875.751	22192
875.88	22443
876.008	22580
876.136	22474
876.265	22809
876.393	22968
876.521	22809
876.65	22927
876.778	22618
876.906	22816
877.034	22668
877.162	22622
877.29	22801
877.418	22725
877.546	22797
877.674	22721
877.802	22725
877.93	22771
878.058	22713
878.185	22710
878.313	22748
878.441	22736
878.568	22557
878.696	22641
878.824	22778
878.951	22797
879.079	22877
879.206	23124
879.333	22843
879.461	22706
879.588	22828
879.715	22892
879.842	22904
879.97	22816
880.097	22531
880.224	22550
880.351	22592
880.478	22615
880.605	22462
880.732	22538
880.859	22694
880.986	22557
881.112	22538
881.239	22424
881.366	22341
881.493	22246
881.619	22234
881.746	22128
881.872	22211
881.999	22154
882.125	22032
882.252	22090
882.378	22109
882.505	22196
882.631	22063
882.757	21876
882.883	21934
883.01	21838
883.136	21835
883.262	21591
883.388	21686
883.514	21747
883.64	21895
883.766	21827
883.892	21591
884.018	21770
884.143	21701
884.269	21918
884.395	21610
884.52	21458
884.646	21504
884.772	21485
884.897	21397
885.023	21359
885.148	21549
885.274	21591
885.399	21534
885.524	21435
885.65	21447
885.775	21397
885.9	21431
886.025	21561
886.15	21492
886.275	21363
886.4	21298
886.525	21428
886.65	21355
886.775	21378
886.9	21614
887.025	21614
887.149	21469
887.274	21245
887.399	21275
887.523	21180
887.648	21112
887.773	21043
887.897	21374
888.021	21218
888.146	21108
888.27	21310
888.395	21294
888.519	21241
888.643	21226
888.767	21108
888.891	21245
889.015	20963
889.139	21173
889.263	21009
889.387	21123
889.511	21142
889.635	21207
889.759	20925
889.883	20956
890.006	20986
890.13	21001
890.254	20773
890.377	20853
890.501	20720
890.624	20689
890.748	20727
890.871	20651
890.995	20522
891.118	20526
891.241	20450
891.364	20552
891.488	20724
891.611	20495
891.734	20632
891.857	20526
891.98	20537
892.103	20705
892.226	20427
892.349	20511
892.471	20294
892.594	20484
892.717	20461
892.839	20423
892.962	20469
893.085	20511
893.207	20465
893.33	20366
893.452	20324
893.575	20446
893.697	20434
893.819	20629
893.941	20568
894.064	20579
894.186	20438
894.308	20351
894.43	20503
894.552	20552
894.674	20511
894.796	20286
894.918	20336
895.04	20381
895.161	20488
895.283	20503
895.405	20427
895.526	20442
895.648	20503
895.769	20404
895.891	20488
896.012	20583
896.134	20609
896.255	20473
896.376	20415
896.498	20511
896.619	20537
896.74	20484
896.861	20629
896.982	20857
897.103	20899
897.224	20849
897.345	20731
897.466	20686
897.587	20788
897.708	20762
897.828	20743
897.949	20701
898.07	20560
898.19	20552
898.311	20712
898.431	20545
898.552	20682
898.672	20678
898.792	20754
898.913	20648
899.033	20537
899.153	20377
899.273	20252
899.393	20393
899.513	20366
899.633	20412
899.753	20290
899.873	20381
899.993	20336
900.113	20214
900.232	20389
900.352	20202
900.472	20317
900.591	20100
900.711	20256
900.83	20130
900.95	20153
901.069	20221
901.189	20073
901.308	19868
901.427	19693
901.546	19685
901.665	19799
901.784	19712
901.904	19578
902.023	19537
902.141	19312
902.26	19304
902.379	19282
902.498	19301
902.617	19190
902.735	19320
902.854	19255
902.973	19042
903.091	18848
903.21	18867
903.328	18871
903.446	18787
903.565	18783
903.683	18654
903.801	18566
903.919	18627
904.038	18707
904.156	18494
904.274	18418
904.392	18540
904.51	18456
904.627	18559
904.745	18574
904.863	18433
904.981	18194
905.098	18076
905.216	18079
905.334	18167
905.451	18114
905.569	18064
905.686	18186
905.803	18079
905.921	17912
906.038	17961
906.155	17958
906.272	17764
906.389	17798
906.506	17680
906.623	17695
906.74	17665
906.857	17570
906.974	17535
907.091	17760
907.208	17786
907.324	17661
907.441	17623
907.557	17337
907.674	17318
907.79	17303
907.907	17326
908.023	17474
908.139	17345
908.256	17216
908.372	17242
908.488	17197
908.604	17098
908.72	16862
908.836	17052
908.952	16930
909.068	17033
909.184	17170
909.3	16900
909.415	17083
909.531	17022
909.647	16835
909.762	16687
909.878	16713
909.993	16706
910.108	16668
910.224	16656
910.339	16698
910.454	16592
910.57	16451
910.685	16394
910.8	16729
910.915	16641
911.03	16512
911.145	16318
911.259	16322
911.374	16303
911.489	16341
911.604	16249
911.718	16082
911.833	15998
911.947	15945
912.062	15960
912.176	16120
912.291	16082
912.405	16116
912.519	16303
912.633	16230
912.748	16181
912.862	16067
912.976	15884
913.09	15747
913.204	15690
913.318	15789
913.431	15915
913.545	15884
913.659	15915
913.772	15755
913.886	15698
914	15534
914.113	15705
914.226	15770
914.34	15686
914.453	15564
914.566	15671
914.68	15534
914.793	15568
914.906	15211
915.019	15237
915.132	15150
915.245	15260
915.358	15256
915.47	15306
915.583	15260
915.696	15306
915.809	15306
915.921	15416
916.034	15165
916.146	15100
916.259	15066
916.371	15211
916.483	15180
916.595	15013
916.708	15135
916.82	15051
916.932	15131
917.044	14986
917.156	14975
917.268	14807
917.38	14944
917.491	14842
917.603	14823
917.715	14944
917.826	14876
917.938	14864
918.049	14788
918.161	14857
918.272	14960
918.384	14880
918.495	14750
918.606	14720
918.717	14644
918.828	14594
918.939	14648
919.05	14393
919.161	14686
919.272	14419
919.383	14438
919.494	14625
919.604	14796
919.715	14518
919.826	14450
919.936	14507
920.047	14610
920.157	14617
920.267	14632
920.378	14568
920.488	14552
920.598	14705
920.708	14842
920.818	14651
920.928	14632
921.038	14868
921.148	14788
921.258	14495
921.368	14400
921.477	14244
921.587	14275
921.697	14191
921.806	14370
921.916	14145
922.025	14024
922.134	13967
922.244	13849
922.353	13936
922.462	13791
922.571	13681
922.68	13613
922.789	13548
922.898	13616
923.007	13510
923.116	13548
923.224	13578
923.333	13521
923.442	13464
923.55	13377
923.659	13339
923.767	13438
923.876	13354
923.984	13388
924.092	13225
924.201	13293
924.309	13316
924.417	13365
924.525	13183
924.633	13293
924.741	13986
924.849	12981
924.956	13076
925.064	13050
925.172	12951
925.279	12973
925.387	12947
925.494	13008
925.602	13171
925.709	13099
925.816	12905
925.924	12981
926.031	12905
926.138	12943
926.245	12909
926.352	12821
926.459	12958
926.566	12970
926.673	12772
926.779	12776
926.886	12730
926.993	12639
927.099	12578
927.206	12403
927.312	12407
927.419	12532
927.525	12601
927.631	12582
927.737	12395
927.843	12471
927.95	12281
928.056	12357
928.162	12369
928.267	12384
928.373	13084
928.479	12372
928.585	12209
928.69	12266
928.796	12308
928.901	12178
929.007	12136
929.112	12213
929.218	12243
929.323	12106
929.428	12068
929.533	12289
929.638	11984
929.743	12003
929.848	12087
929.953	12015
930.058	11878
930.163	11684
930.267	11821
930.372	11923
930.477	11634
930.581	12011
930.685	11790
930.79	11589
930.894	11649
930.998	11547
931.103	11722
931.207	11322
931.311	11326
931.415	11254
931.519	10972
931.623	11018
