Data from test_V78500241_3366.txt Node
Date: Fri Mar 25 16:05:07 CST 2022
User: usil
Spectrometer: V785-0024
Trigger mode: 0
Integration Time (sec): 4.000000E-1
Scans to average: 1
Nonlinearity correction enabled: false
Boxcar width: 0
Storing dark spectrum: false
XAxis mode: Wavelengths
Number of Pixels in Spectrum: 1024
>>>>>Begin Spectral Data<<<<<
801.071	28622
801.214	28782
801.356	28451
801.499	28531
801.641	28162
801.783	28223
801.926	28337
802.068	28276
802.211	28322
802.353	28261
802.496	28135
802.638	28090
802.78	27895
802.923	27937
803.065	27895
803.208	27983
803.35	28013
803.492	28139
803.635	28268
803.777	28185
803.919	28238
804.061	28519
804.204	28421
804.346	28139
804.488	28329
804.63	28265
804.773	28097
804.915	28223
805.057	28401
805.199	28246
805.341	28375
805.483	28409
805.626	28443
805.768	28333
805.91	28512
806.052	28401
806.194	28219
806.336	28432
806.478	28405
806.62	28409
806.762	28569
806.904	28710
807.046	28919
807.188	28771
807.33	28744
807.472	28934
807.614	28664
807.756	28942
807.898	28729
808.04	28672
808.182	28580
808.324	28774
808.465	28752
808.607	29071
808.749	29193
808.891	29235
809.033	29159
809.174	29037
809.316	29220
809.458	29246
809.6	29075
809.741	29060
809.883	29185
810.025	29383
810.166	29406
810.308	29372
810.45	29375
810.591	29318
810.733	29193
810.875	29025
811.016	28953
811.158	29064
811.299	29299
811.441	29193
811.582	29391
811.724	29113
811.865	29162
812.007	29025
812.148	29094
812.29	29174
812.431	29330
812.573	29398
812.714	29429
812.855	29672
812.997	29695
813.138	29931
813.279	29783
813.421	29665
813.562	29596
813.703	29429
813.845	29417
813.986	29109
814.127	28965
814.268	28904
814.41	28900
814.551	28790
814.692	28748
814.833	28809
814.974	28881
815.115	28869
815.256	28675
815.397	28816
815.539	28603
815.68	28565
815.821	28550
815.962	28618
816.103	28588
816.244	28466
816.385	28466
816.526	28390
816.666	28276
816.807	28112
816.948	28287
817.089	28386
817.23	28109
817.371	28150
817.512	28162
817.653	28082
817.793	28109
817.934	28204
818.075	28044
818.216	27991
818.356	28074
818.497	28093
818.638	27949
818.778	27945
818.919	27960
819.06	27861
819.2	28219
819.341	28192
819.481	28131
819.622	28325
819.762	28516
819.903	28390
820.043	28375
820.184	28303
820.324	28299
820.465	28329
820.605	28253
820.746	28303
820.886	28044
821.026	28253
821.167	28238
821.307	28375
821.447	28120
821.588	28048
821.728	28006
821.868	27800
822.008	27561
822.149	27705
822.289	27545
822.429	27378
822.569	27408
822.709	27321
822.849	27207
822.99	27119
823.13	27116
823.27	27192
823.41	26948
823.55	26853
823.69	26838
823.83	26883
823.97	26899
824.11	26811
824.25	26857
824.389	26842
824.529	26902
824.669	26625
824.809	26876
824.949	26849
825.089	26804
825.228	26887
825.368	26746
825.508	26674
825.648	26670
825.787	26701
825.927	26693
826.067	26724
826.206	26701
826.346	26621
826.485	26769
826.625	26674
826.765	26743
826.904	26716
827.044	26461
827.183	26514
827.323	26412
827.462	26343
827.601	26389
827.741	26499
827.88	26469
828.02	26328
828.159	26419
828.298	26450
828.437	26476
828.577	26298
828.716	26533
828.855	26305
828.994	26145
829.134	26008
829.273	26111
829.412	26142
829.551	26100
829.69	26119
829.829	26043
829.968	26267
830.107	26134
830.246	26187
830.385	25997
830.524	26050
830.663	25883
830.802	25780
830.941	25731
831.08	25681
831.219	25917
831.357	25811
831.496	25890
831.635	25674
831.774	25639
831.913	25533
832.051	25472
832.19	25559
832.329	25457
832.467	25377
832.606	25411
832.744	25282
832.883	25354
833.022	25441
833.16	25453
833.299	25373
833.437	25350
833.576	25354
833.714	25426
833.852	25453
833.991	25476
834.129	25392
834.267	25552
834.406	25388
834.544	25324
834.682	25540
834.821	25491
834.959	25609
835.097	25335
835.235	25460
835.373	25472
835.511	25468
835.65	25122
835.788	25297
835.926	25122
836.064	25042
836.202	25069
836.34	25400
836.478	25289
836.615	25160
836.753	25282
836.891	25285
837.029	25217
837.167	25141
837.305	25160
837.443	25091
837.58	25175
837.718	25202
837.856	25065
837.993	25133
838.131	25244
838.269	25000
838.406	24966
838.544	24935
838.681	24814
838.819	24604
838.956	24547
839.094	24574
839.231	24627
839.369	24639
839.506	24928
839.643	24875
839.781	24673
839.918	24467
840.055	24597
840.193	24467
840.33	24490
840.467	24486
840.604	24532
840.742	24768
840.879	24308
841.016	24376
841.153	24372
841.29	24570
841.427	24536
841.564	24544
841.701	24483
841.838	24479
841.975	24410
842.112	24361
842.249	24342
842.385	24232
842.522	24437
842.659	24319
842.796	24235
842.933	24125
843.069	24194
843.206	24125
843.343	24239
843.479	24292
843.616	24232
843.752	24030
843.889	23870
844.025	24235
844.162	24068
844.298	24117
844.435	23912
844.571	24018
844.708	24030
844.844	24030
844.98	24034
845.117	24087
845.253	23901
845.389	23870
845.525	23916
845.661	23923
845.798	23714
845.934	23832
846.07	23707
846.206	23691
846.342	23847
846.478	23661
846.614	23630
846.75	23474
846.886	23459
847.022	23566
847.158	23570
847.294	23455
847.429	23493
847.565	23493
847.701	23718
847.837	23231
847.972	23113
848.108	23353
848.244	23326
848.379	23258
848.515	23102
848.65	23083
848.786	23155
848.921	23037
849.057	23216
849.192	23151
849.328	23018
849.463	23010
849.598	23075
849.734	23041
849.869	22839
850.004	22889
850.14	22816
850.275	22748
850.41	22759
850.545	22691
850.68	22752
850.815	22885
850.95	22812
851.085	22991
851.22	22938
851.355	22835
851.49	22862
851.625	22782
851.76	22877
851.895	22668
852.03	22801
852.165	22850
852.299	22843
852.434	22854
852.569	22805
852.703	22889
852.838	22805
852.973	22938
853.107	22980
853.242	22729
853.376	22603
853.511	22489
853.645	22653
853.78	22778
853.914	22698
854.048	22626
854.183	22577
854.317	22668
854.451	22767
854.585	22561
854.72	22675
854.854	22634
854.988	22584
855.122	22607
855.256	22630
855.39	22622
855.524	22687
855.658	22660
855.792	22656
855.926	22618
856.06	22725
856.194	22729
856.327	22603
856.461	22653
856.595	22573
856.729	22645
856.862	22660
856.996	22653
857.13	22721
857.263	22740
857.397	22892
857.53	22698
857.664	22596
857.797	22725
857.931	22774
858.064	22774
858.197	22630
858.331	22542
858.464	22607
858.597	22516
858.731	22626
858.864	22561
858.997	22622
859.13	22573
859.263	22550
859.396	22736
859.529	22504
859.662	22691
859.795	22729
859.928	22675
860.061	22816
860.194	22999
860.327	22615
860.46	22687
860.592	22771
860.725	22748
860.858	22877
860.99	22630
861.123	22664
861.256	22599
861.388	22618
861.521	23235
861.653	22497
861.786	22481
861.918	22379
862.05	22500
862.183	22630
862.315	22462
862.447	22683
862.58	22557
862.712	22421
862.844	22417
862.976	22489
863.108	22402
863.24	22885
863.372	22166
863.504	22421
863.636	22394
863.768	22356
863.9	22455
864.032	22219
864.164	22413
864.296	22348
864.428	22432
864.559	22470
864.691	22367
864.823	22207
864.954	22295
865.086	22128
865.217	22200
865.349	22230
865.48	22265
865.612	22272
865.743	22424
865.875	22291
866.006	22211
866.137	22181
866.269	22215
866.4	22272
866.531	22177
866.662	22173
866.793	22070
866.924	22131
867.055	22101
867.186	22169
867.317	22185
867.448	22097
867.579	22067
867.71	22097
867.841	22097
867.972	22162
868.103	22230
868.233	22067
868.364	22162
868.495	22154
868.625	22352
868.756	22443
868.886	22348
869.017	22261
869.147	22428
869.278	22519
869.408	22398
869.539	22211
869.669	22421
869.799	22478
869.929	22523
870.06	22538
870.19	22649
870.32	22755
870.45	22759
870.58	22786
870.71	22839
870.84	22889
870.97	22797
871.1	22805
871.23	22987
871.36	22972
871.489	22904
871.619	22805
871.749	23014
871.879	23048
872.008	23067
872.138	22930
872.267	22923
872.397	22835
872.526	22790
872.656	22740
872.785	22767
872.915	23022
873.044	23006
873.173	22885
873.303	23056
873.432	23090
873.561	23086
873.69	23128
873.819	22980
873.948	23102
874.077	22991
874.206	23056
874.335	23098
874.464	23064
874.593	23212
874.722	23193
874.851	23242
874.979	23235
875.108	23212
875.237	23162
875.365	23147
875.494	23102
875.623	23273
875.751	23189
875.88	23269
876.008	23284
876.136	23395
876.265	23657
876.393	23775
876.521	23619
876.65	23699
876.778	23528
876.906	23668
877.034	23627
877.162	23600
877.29	23547
877.418	23573
877.546	23604
877.674	23581
877.802	23493
877.93	23478
878.058	23577
878.185	23383
878.313	23383
878.441	23482
878.568	23463
878.696	23482
878.824	23596
878.951	23604
879.079	23741
879.206	23908
879.333	23767
879.461	23638
879.588	23680
879.715	23714
879.842	23794
879.97	23558
880.097	23410
880.224	23398
880.351	23322
880.478	23337
880.605	23379
880.732	23452
880.859	23710
880.986	23387
881.112	23372
881.239	23204
881.366	23079
881.493	23105
881.619	22991
881.746	22949
881.872	22915
881.999	22927
882.125	22816
882.252	23006
882.378	22862
882.505	22991
882.631	22828
882.757	22622
882.883	22607
883.01	22706
883.136	22603
883.262	22588
883.388	22280
883.514	22603
883.64	22569
883.766	22599
883.892	22352
884.018	22398
884.143	22531
884.269	22691
884.395	22276
884.52	22105
884.646	22211
884.772	22086
884.897	22200
885.023	22318
885.148	22306
885.274	22481
885.399	22329
885.524	22310
885.65	22322
885.775	22029
885.9	22226
886.025	22341
886.15	22257
886.275	22109
886.4	22128
886.525	22215
886.65	21998
886.775	22158
886.9	22329
887.025	22443
887.149	22284
887.274	22131
887.399	21972
887.523	22074
887.648	22044
887.773	21850
887.897	22032
888.021	21972
888.146	21930
888.27	22112
888.395	22082
888.519	22067
888.643	21983
888.767	22029
888.891	21934
889.015	21736
889.139	21876
889.263	21892
889.387	21899
889.511	21979
889.635	21903
889.759	21823
889.883	21713
890.006	21705
890.13	21850
890.254	21804
890.377	21610
890.501	21599
890.624	21420
890.748	21595
890.871	21466
890.995	21302
891.118	21336
891.241	21370
891.364	21317
891.488	21507
891.611	21378
891.734	21374
891.857	21447
891.98	21264
892.103	21443
892.226	21222
892.349	21291
892.471	21104
892.594	21321
892.717	21184
892.839	21192
892.962	21317
893.085	21325
893.207	21325
893.33	21131
893.452	21104
893.575	21203
893.697	21237
893.819	21291
893.941	21310
894.064	21359
894.186	21150
894.308	21233
894.43	21294
894.552	21363
894.674	21306
894.796	21169
894.918	21138
895.04	21237
895.161	21207
895.283	21256
895.405	21188
895.526	21138
895.648	21294
895.769	21252
895.891	21241
896.012	21203
896.134	21264
896.255	21195
896.376	21123
896.498	21146
896.619	21214
896.74	21074
896.861	21074
896.982	21515
897.103	21564
897.224	21412
897.345	21336
897.466	21325
897.587	21431
897.708	21454
897.828	21549
897.949	21374
898.07	21218
898.19	21173
898.311	21428
898.431	21207
898.552	21298
898.672	21572
898.792	21443
898.913	21351
899.033	21291
899.153	21154
899.273	21013
899.393	21104
899.513	21165
899.633	21157
899.753	21173
899.873	21062
899.993	21100
900.113	21051
900.232	21017
900.352	20998
900.472	20887
900.591	20895
900.711	20944
900.83	20823
900.95	20902
901.069	21032
901.189	20765
901.308	20457
901.427	20355
901.546	20511
901.665	20343
901.784	20408
901.904	20332
902.023	20195
902.141	20005
902.26	19921
902.379	20126
902.498	19833
902.617	19913
902.735	20069
902.854	20005
902.973	19772
903.091	19734
903.21	19613
903.328	19613
903.446	19529
903.565	19441
903.683	19384
903.801	19377
903.919	19362
904.038	19411
904.156	19251
904.274	19320
904.392	19148
904.51	19088
904.627	19091
904.745	18996
904.863	19221
904.981	19008
905.098	18894
905.216	18825
905.334	18840
905.451	18939
905.569	18776
905.686	18901
905.803	18833
905.921	18498
906.038	18741
906.155	18551
906.272	18521
906.389	18372
906.506	18372
906.623	18338
906.74	18266
906.857	18197
906.974	18266
907.091	18369
907.208	18536
907.324	18410
907.441	18304
907.557	18110
907.674	18102
907.79	18106
907.907	17988
908.023	18060
908.139	18155
908.256	17958
908.372	17920
908.488	17939
908.604	17836
908.72	17745
908.836	17733
908.952	17646
909.068	17786
909.184	17889
909.3	17722
909.415	17840
909.531	17691
909.647	17516
909.762	17570
909.878	17341
909.993	17448
910.108	17444
910.224	17452
910.339	17452
910.454	17364
910.57	17227
910.685	17181
910.8	17417
910.915	17493
911.03	17208
911.145	17025
911.259	17064
911.374	17014
911.489	17045
911.604	16968
911.718	16793
911.833	16786
911.947	16683
912.062	16649
912.176	16862
912.291	16763
912.405	16843
912.519	16900
912.633	16908
912.748	16824
912.862	16713
912.976	16599
913.09	16466
913.204	16516
913.318	16637
913.431	16622
913.545	16717
913.659	16687
913.772	16546
913.886	16379
914	16344
914.113	16462
914.226	16504
914.34	16478
914.453	16265
914.566	16352
914.68	16333
914.793	16169
914.906	16105
915.019	15994
915.132	15869
915.245	15949
915.358	15964
915.47	15949
915.583	15918
915.696	15911
915.809	16063
915.921	16093
916.034	15789
916.146	15804
916.259	15835
916.371	15911
916.483	15926
916.595	15766
916.708	15789
916.82	15778
916.932	15743
917.044	15713
917.156	15736
917.268	15507
917.38	15622
917.491	15553
917.603	15557
917.715	15736
917.826	15633
917.938	15469
918.049	15469
918.161	15496
918.272	15713
918.384	15519
918.495	15477
918.606	15405
918.717	15230
918.828	15405
918.939	15252
919.05	15264
919.161	15344
919.272	15135
919.383	15142
919.494	15359
919.604	15542
919.715	15424
919.826	15150
919.936	15241
920.047	15458
920.157	15211
920.267	15473
920.378	15294
920.488	15203
920.598	15405
920.708	15652
920.818	15359
920.928	15344
921.038	15519
921.148	15545
921.258	15230
921.368	15123
921.477	15070
921.587	14982
921.697	14823
921.806	14960
921.916	14845
922.025	14655
922.134	14686
922.244	14560
922.353	14663
922.462	14522
922.571	14423
922.68	14347
922.789	14229
922.898	14252
923.007	14339
923.116	14343
923.224	14225
923.333	14240
923.442	14081
923.55	14126
923.659	14134
923.767	14130
923.876	13959
923.984	14123
924.092	13936
924.201	14012
924.309	14043
924.417	14005
924.525	13864
924.633	13951
924.741	14708
924.849	13712
924.956	13830
925.064	13693
925.172	13643
925.279	13681
925.387	13685
925.494	13624
925.602	13845
925.709	13670
925.816	13445
925.924	13521
926.031	13655
926.138	13468
926.245	13609
926.352	13468
926.459	13597
926.566	13567
926.673	13457
926.779	13403
926.886	13354
926.993	13263
927.099	13187
927.206	13129
927.312	13129
927.419	13160
927.525	13240
927.631	13225
927.737	13069
927.843	12993
927.95	13046
928.056	12981
928.162	12973
928.267	12985
928.373	13521
928.479	13126
928.585	12791
928.69	12920
928.796	12947
928.901	12840
929.007	12631
929.112	12867
929.218	12867
929.323	12696
929.428	12734
929.533	12783
929.638	12700
929.743	12658
929.848	12707
929.953	12669
930.058	12479
930.163	12395
930.267	12372
930.372	12490
930.477	12319
930.581	12627
930.685	12426
930.79	12213
930.894	12292
930.998	12167
931.103	12292
931.207	11999
931.311	11859
931.415	11851
931.519	11710
931.623	11577
