Data from test_V78500241_853.txt Node
Date: Fri Mar 25 15:47:42 CST 2022
User: usil
Spectrometer: V785-0024
Trigger mode: 0
Integration Time (sec): 4.000000E-1
Scans to average: 1
Nonlinearity correction enabled: false
Boxcar width: 0
Storing dark spectrum: false
XAxis mode: Wavelengths
Number of Pixels in Spectrum: 1024
>>>>>Begin Spectral Data<<<<<
801.071	27538
801.214	27401
801.356	27382
801.499	27192
801.641	27112
801.783	27081
801.926	27127
802.068	27032
802.211	26982
802.353	27005
802.496	26773
802.638	26807
802.78	26830
802.923	26632
803.065	26617
803.208	26853
803.35	26743
803.492	26849
803.635	26967
803.777	26834
803.919	27051
804.061	27287
804.204	26940
804.346	26769
804.488	26845
804.63	26788
804.773	26792
804.915	26986
805.057	27039
805.199	26982
805.341	26933
805.483	27112
805.626	26956
805.768	27013
805.91	27089
806.052	26990
806.194	27165
806.336	27203
806.478	27047
806.62	27058
806.762	27180
806.904	27249
807.046	27530
807.188	27500
807.33	27564
807.472	27481
807.614	27507
807.756	27427
807.898	27454
808.04	27306
808.182	27412
808.324	27374
808.465	27321
808.607	27549
808.749	27625
808.891	27709
809.033	27854
809.174	27831
809.316	27675
809.458	27603
809.6	27770
809.741	27918
809.883	27789
810.025	28010
810.166	27960
810.308	27945
810.45	27991
810.591	27903
810.733	27762
810.875	27652
811.016	27515
811.158	27656
811.299	27755
811.441	27838
811.582	27759
811.724	27808
811.865	27530
812.007	27656
812.148	27652
812.29	27781
812.431	27922
812.573	28036
812.714	28158
812.855	28150
812.997	28367
813.138	28561
813.279	28310
813.421	28185
813.562	28181
813.703	28078
813.845	28010
813.986	27656
814.127	27557
814.268	27458
814.41	27245
814.551	27374
814.692	27363
814.833	27329
814.974	27355
815.115	27378
815.256	27013
815.397	27264
815.539	27195
815.68	27112
815.821	27058
815.962	27264
816.103	27233
816.244	26998
816.385	26986
816.526	27024
816.666	26842
816.807	26758
816.948	26815
817.089	26670
817.23	26632
817.371	26830
817.512	26739
817.653	26659
817.793	26655
817.934	26552
818.075	26686
818.216	26705
818.356	26636
818.497	26537
818.638	26381
818.778	26412
818.919	26396
819.06	26450
819.2	26526
819.341	26712
819.481	26735
819.622	26746
819.762	27138
819.903	26952
820.043	26838
820.184	26861
820.324	26735
820.465	26956
820.605	26857
820.746	26689
820.886	26663
821.026	26769
821.167	26727
821.307	26891
821.447	26613
821.588	26533
821.728	26400
821.868	26476
822.008	26081
822.149	26122
822.289	26145
822.429	25856
822.569	25753
822.709	25674
822.849	25616
822.99	25647
823.13	25567
823.27	25544
823.41	25479
823.55	25274
823.69	25373
823.83	25499
823.97	25430
824.11	25316
824.25	25274
824.389	25247
824.529	25339
824.669	25434
824.809	25308
824.949	25270
825.089	25339
825.228	25419
825.368	25148
825.508	25004
825.648	25175
825.787	25217
825.927	25236
826.067	25160
826.206	25164
826.346	25095
826.485	25179
826.625	25213
826.765	25358
826.904	25232
827.044	24935
827.183	24749
827.323	24897
827.462	25012
827.601	24954
827.741	24677
827.88	24821
828.02	24521
828.159	24913
828.298	24920
828.437	24821
828.577	24833
828.716	24905
828.855	24757
828.994	24551
829.134	24582
829.273	24658
829.412	24456
829.551	24422
829.69	24563
829.829	24525
829.968	24570
830.107	24582
830.246	24498
830.385	24471
830.524	24315
830.663	24448
830.802	24190
830.941	24125
831.08	24194
831.219	24239
831.357	24106
831.496	24551
831.635	24106
831.774	24133
831.913	24106
832.051	23923
832.19	23878
832.329	24049
832.467	23802
832.606	23657
832.744	23760
832.883	23973
833.022	23764
833.16	23901
833.299	24064
833.437	23824
833.576	23988
833.714	23866
833.852	24026
833.991	23988
834.129	24034
834.267	23923
834.406	23855
834.544	24060
834.682	23874
834.821	23908
834.959	23923
835.097	23847
835.235	23927
835.373	23965
835.511	23790
835.65	23813
835.788	23847
835.926	23558
836.064	23509
836.202	23646
836.34	23684
836.478	23783
836.615	23760
836.753	23653
836.891	23684
837.029	23783
837.167	23718
837.305	23581
837.443	23524
837.58	23528
837.718	23699
837.856	23501
837.993	23535
838.131	23516
838.269	23337
838.406	23395
838.544	23349
838.681	23284
838.819	23124
838.956	23075
839.094	22957
839.231	23143
839.369	23140
839.506	23303
839.643	23307
839.781	23022
839.918	22930
840.055	23083
840.193	23079
840.33	22908
840.467	22927
840.604	22942
840.742	23360
840.879	22721
841.016	23052
841.153	22824
841.29	23277
841.427	22957
841.564	22999
841.701	22965
841.838	22869
841.975	22725
842.112	22839
842.249	22892
842.385	22687
842.522	22980
842.659	22801
842.796	22679
842.933	22698
843.069	22527
843.206	22721
843.343	22759
843.479	22679
843.616	22812
843.752	22603
843.889	22577
844.025	22592
844.162	22504
844.298	22504
844.435	22413
844.571	22459
844.708	22432
844.844	22713
844.98	22656
845.117	22538
845.253	22470
845.389	22497
845.525	22356
845.661	22169
845.798	22181
845.934	22276
846.07	22116
846.206	22226
846.342	22379
846.478	22185
846.614	22013
846.75	21915
846.886	21876
847.022	21987
847.158	22006
847.294	22063
847.429	22029
847.565	21907
847.701	22181
847.837	21656
847.972	21690
848.108	21781
848.244	21800
848.379	21538
848.515	21526
848.65	21530
848.786	21713
848.921	21553
849.057	21644
849.192	21663
849.328	21572
849.463	21488
849.598	21416
849.734	21485
849.869	21412
850.004	21332
850.14	21233
850.275	21359
850.41	21184
850.545	21176
850.68	21302
850.815	21317
850.95	21367
851.085	21424
851.22	21454
851.355	21340
851.49	21325
851.625	21184
851.76	21306
851.895	21264
852.03	21165
852.165	21226
852.299	21348
852.434	21458
852.569	21329
852.703	21298
852.838	21268
852.973	21408
853.107	21488
853.242	21154
853.376	21207
853.511	21070
853.645	21131
853.78	21226
853.914	21154
854.048	21135
854.183	21169
854.317	21154
854.451	21268
854.585	21020
854.72	21131
854.854	21176
854.988	21055
855.122	21127
855.256	21017
855.39	21150
855.524	21047
855.658	21150
855.792	21077
855.926	21192
856.06	21184
856.194	21207
856.327	21077
856.461	21032
856.595	21070
856.729	21062
856.862	21237
856.996	21283
857.13	21039
857.263	21203
857.397	21192
857.53	21032
857.664	21184
857.797	21119
857.931	21317
858.064	21093
858.197	21230
858.331	21199
858.464	21108
858.597	21017
858.731	21051
858.864	21146
858.997	21169
859.13	21142
859.263	21119
859.396	21180
859.529	21096
859.662	21112
859.795	21112
859.928	21184
860.061	21264
860.194	21287
860.327	21188
860.46	21173
860.592	21256
860.725	21306
860.858	21188
860.99	21230
861.123	21081
861.256	21077
861.388	21138
861.521	21701
861.653	20963
861.786	20910
861.918	20941
862.05	21058
862.183	21013
862.315	21150
862.447	21127
862.58	21001
862.712	20849
862.844	20887
862.976	20891
863.108	21013
863.24	21378
863.372	20804
863.504	20933
863.636	20796
863.768	21028
863.9	20861
864.032	20762
864.164	20754
864.296	20815
864.428	20872
864.559	21009
864.691	20891
864.823	20906
864.954	20876
865.086	20765
865.217	20754
865.349	20670
865.48	20693
865.612	20758
865.743	20807
865.875	20746
866.006	20678
866.137	20720
866.269	20819
866.4	20724
866.531	20674
866.662	20617
866.793	20651
866.924	20644
867.055	20826
867.186	20823
867.317	20712
867.448	20571
867.579	20655
867.71	20613
867.841	20606
867.972	20651
868.103	20651
868.233	20678
868.364	20640
868.495	20796
868.625	20868
868.756	20956
868.886	20826
869.017	20823
869.147	20887
869.278	21024
869.408	20910
869.539	20895
869.669	20948
869.799	20986
869.929	21066
870.06	21074
870.19	21310
870.32	21161
870.45	21211
870.58	21298
870.71	21496
870.84	21450
870.97	21332
871.1	21287
871.23	21473
871.36	21477
871.489	21370
871.619	21412
871.749	21469
871.879	21542
872.008	21705
872.138	21557
872.267	21450
872.397	21370
872.526	21481
872.656	21237
872.785	21275
872.915	21580
873.044	21641
873.173	21568
873.303	21564
873.432	21667
873.561	21580
873.69	21511
873.819	21477
873.948	21622
874.077	21637
874.206	21504
874.335	21473
874.464	21648
874.593	21770
874.722	21698
874.851	21846
874.979	21808
875.108	21865
875.237	21732
875.365	21629
875.494	21755
875.623	21854
875.751	21766
875.88	21835
876.008	21865
876.136	22029
876.265	22173
876.393	22284
876.521	22284
876.65	22048
876.778	22284
876.906	22147
877.034	22101
877.162	22116
877.29	22070
877.418	22131
877.546	21968
877.674	22070
877.802	22109
877.93	22124
878.058	22128
878.185	21979
878.313	22143
878.441	22158
878.568	22006
878.696	22017
878.824	22147
878.951	22207
879.079	22352
879.206	22325
879.333	22363
879.461	22291
879.588	22143
879.715	22272
879.842	22382
879.97	22173
880.097	21918
880.224	22070
880.351	21979
880.478	21926
880.605	21797
880.732	21918
880.859	22158
880.986	21930
881.112	21937
881.239	21781
881.366	21667
881.493	21507
881.619	21515
881.746	21538
881.872	21507
881.999	21443
882.125	21450
882.252	21583
882.378	21386
882.505	21519
882.631	21450
882.757	21199
882.883	21298
883.01	21252
883.136	21188
883.262	21104
883.388	21043
883.514	21313
883.64	21188
883.766	21127
883.892	20895
884.018	21009
884.143	21146
884.269	21260
884.395	21032
884.52	20845
884.646	20872
884.772	20781
884.897	20830
885.023	20811
885.148	20952
885.274	20914
885.399	20975
885.524	20857
885.65	20834
885.775	20887
885.9	20769
886.025	20925
886.15	20994
886.275	20762
886.4	20613
886.525	20857
886.65	20804
886.775	20819
886.9	20921
887.025	21100
887.149	20899
887.274	20720
887.399	20526
887.523	20613
887.648	20492
887.773	20583
887.897	20625
888.021	20613
888.146	20583
888.27	20724
888.395	20682
888.519	20663
888.643	20701
888.767	20644
888.891	20552
889.015	20457
889.139	20484
889.263	20385
889.387	20389
889.511	20522
889.635	20518
889.759	20358
889.883	20473
890.006	20374
890.13	20560
890.254	20511
890.377	20294
890.501	20221
890.624	20142
890.748	20206
890.871	20088
890.995	19928
891.118	19932
891.241	20016
891.364	20081
891.488	20115
891.611	19940
891.734	20005
891.857	20050
891.98	19993
892.103	20084
892.226	19997
892.349	19974
892.471	19731
892.594	19776
892.717	19879
892.839	19852
892.962	19902
893.085	19967
893.207	19814
893.33	19845
893.452	19826
893.575	20024
893.697	19875
893.819	20001
893.941	19974
894.064	20058
894.186	19765
894.308	19822
894.43	20046
894.552	20077
894.674	19925
894.796	19811
894.918	19906
895.04	19868
895.161	20024
895.283	19864
895.405	19845
895.526	19837
895.648	19830
895.769	19947
895.891	19982
896.012	20039
896.134	19906
896.255	20054
896.376	19868
896.498	20016
896.619	20027
896.74	19967
896.861	20062
896.982	20259
897.103	20412
897.224	20263
897.345	20153
897.466	20122
897.587	20153
897.708	20286
897.828	20206
897.949	20001
898.07	19959
898.19	20092
898.311	20278
898.431	20073
898.552	20157
898.672	20202
898.792	20115
898.913	20027
899.033	19974
899.153	19955
899.273	19925
899.393	19917
899.513	19887
899.633	19906
899.753	19947
899.873	19917
899.993	19921
900.113	19879
900.232	19765
900.352	19833
900.472	19772
900.591	19681
900.711	19734
900.83	19571
900.95	19769
901.069	19814
901.189	19578
901.308	19358
901.427	19247
901.546	19335
901.665	19293
901.784	19396
901.904	19160
902.023	19050
902.141	18973
902.26	18795
902.379	18962
902.498	18776
902.617	18821
902.735	18787
902.854	18802
902.973	18749
903.091	18475
903.21	18429
903.328	18391
903.446	18437
903.565	18281
903.683	18209
903.801	18178
903.919	18300
904.038	18205
904.156	18072
904.274	18098
904.392	18053
904.51	18019
904.627	18076
904.745	18034
904.863	18205
904.981	17802
905.098	17657
905.216	17828
905.334	17737
905.451	17802
905.569	17687
905.686	17649
905.803	17729
905.921	17543
906.038	17589
906.155	17566
906.272	17429
906.389	17440
906.506	17231
906.623	17128
906.74	17174
906.857	16987
906.974	17159
907.091	17212
907.208	17353
907.324	17250
907.441	17014
907.557	16885
907.674	16965
907.79	16854
907.907	16873
908.023	17010
908.139	16968
908.256	16999
908.372	16778
908.488	16771
908.604	16641
908.72	16702
908.836	16694
908.952	16596
909.068	16607
909.184	16786
909.3	16634
909.415	16763
909.531	16596
909.647	16421
909.762	16341
909.878	16432
909.993	16424
910.108	16284
910.224	16371
910.339	16348
910.454	16219
910.57	16200
910.685	16154
910.8	16337
910.915	16382
911.03	16147
911.145	16032
911.259	15964
911.374	15937
911.489	15827
911.604	15812
911.718	15709
911.833	15762
911.947	15724
912.062	15641
912.176	15816
912.291	15728
912.405	15785
912.519	15956
912.633	15873
912.748	15800
912.862	15713
912.976	15599
913.09	15530
913.204	15507
913.318	15526
913.431	15781
913.545	15622
913.659	15675
913.772	15561
913.886	15389
914	15458
914.113	15344
914.226	15481
914.34	15469
914.453	15252
914.566	15488
914.68	15424
914.793	15260
914.906	15195
915.019	15017
915.132	15001
915.245	14944
915.358	14998
915.47	15051
915.583	15020
915.696	15020
915.809	15051
915.921	15180
916.034	15062
916.146	15062
916.259	14921
916.371	15104
916.483	14986
916.595	14792
916.708	14765
916.82	14864
916.932	14750
917.044	14807
917.156	14731
917.268	14697
917.38	14648
917.491	14583
917.603	14651
917.715	14674
917.826	14765
917.938	14545
918.049	14556
918.161	14625
918.272	14648
918.384	14781
918.495	14636
918.606	14488
918.717	14286
918.828	14446
918.939	14427
919.05	14278
919.161	14427
919.272	14145
919.383	14298
919.494	14404
919.604	14598
919.715	14343
919.826	14328
919.936	14374
920.047	14537
920.157	14434
920.267	14564
920.378	14396
920.488	14351
920.598	14552
920.708	14678
920.818	14549
920.928	14492
921.038	14651
921.148	14724
921.258	14309
921.368	14214
921.477	14256
921.587	14062
921.697	13982
921.806	14199
921.916	13997
922.025	13959
922.134	13769
922.244	13765
922.353	13830
922.462	13677
922.571	13605
922.68	13464
922.789	13381
922.898	13472
923.007	13369
923.116	13430
923.224	13460
923.333	13434
923.442	13255
923.55	13244
923.659	13236
923.767	13365
923.876	13236
923.984	13240
924.092	13202
924.201	13225
924.309	13202
924.417	13149
924.525	13110
924.633	13053
924.741	13993
924.849	12852
924.956	13099
925.064	12783
925.172	12791
925.279	12905
925.387	12932
925.494	12875
925.602	12920
925.709	12897
925.816	12658
925.924	12806
926.031	12817
926.138	12810
926.245	12886
926.352	12684
926.459	12863
926.566	12867
926.673	12673
926.779	12555
926.886	12597
926.993	12471
927.099	12448
927.206	12346
927.312	12330
927.419	12506
927.525	12330
927.631	12350
927.737	12296
927.843	12273
927.95	12201
928.056	12182
928.162	12327
928.267	12330
928.373	12913
928.479	12361
928.585	12072
928.69	12235
928.796	12262
928.901	12057
929.007	11992
929.112	12152
929.218	12083
929.323	12076
929.428	11996
929.533	12102
929.638	11942
929.743	11882
929.848	12011
929.953	11973
930.058	11821
930.163	11615
930.267	11699
930.372	11836
930.477	11566
930.581	11866
930.685	11767
930.79	11596
930.894	11547
930.998	11474
931.103	11680
931.207	11383
931.311	11231
931.415	11102
931.519	10953
931.623	10915
