Data from test_V78500241_1882.txt Node
Date: Fri Mar 25 15:54:50 CST 2022
User: usil
Spectrometer: V785-0024
Trigger mode: 0
Integration Time (sec): 4.000000E-1
Scans to average: 1
Nonlinearity correction enabled: false
Boxcar width: 0
Storing dark spectrum: false
XAxis mode: Wavelengths
Number of Pixels in Spectrum: 1024
>>>>>Begin Spectral Data<<<<<
801.071	28493
801.214	28382
801.356	28128
801.499	28040
801.641	28040
801.783	27941
801.926	28093
802.068	28070
802.211	28048
802.353	27979
802.496	27713
802.638	27667
802.78	27682
802.923	27762
803.065	27564
803.208	27587
803.35	27705
803.492	27869
803.635	27827
803.777	27789
803.919	27861
804.061	28230
804.204	28078
804.346	27884
804.488	27743
804.63	27892
804.773	27934
804.915	27762
805.057	28135
805.199	27899
805.341	28044
805.483	28177
805.626	28143
805.768	27994
805.91	28219
806.052	28002
806.194	27968
806.336	28177
806.478	28128
806.62	28070
806.762	28234
806.904	28204
807.046	28523
807.188	28554
807.33	28417
807.472	28550
807.614	28356
807.756	28512
807.898	28318
808.04	28276
808.182	28246
808.324	28363
808.465	28421
808.607	28603
808.749	28748
808.891	28831
809.033	28873
809.174	28839
809.316	28717
809.458	28820
809.6	28755
809.741	28839
809.883	28961
810.025	29037
810.166	28854
810.308	29033
810.45	29048
810.591	28831
810.733	28809
810.875	28607
811.016	28554
811.158	28664
811.299	28854
811.441	28835
811.582	28896
811.724	28702
811.865	28725
812.007	28687
812.148	28672
812.29	28740
812.431	28976
812.573	29041
812.714	29181
812.855	29189
812.997	29417
813.138	29520
813.279	29318
813.421	29311
813.562	29124
813.703	29003
813.845	28987
813.986	28698
814.127	28485
814.268	28474
814.41	28287
814.551	28417
814.692	28519
814.833	28276
814.974	28322
815.115	28474
815.256	28451
815.397	28272
815.539	28318
815.68	28234
815.821	28207
815.962	28211
816.103	28230
816.244	28040
816.385	28021
816.526	28143
816.666	27914
816.807	27633
816.948	27800
817.089	27789
817.23	27739
817.371	27732
817.512	27743
817.653	27831
817.793	27644
817.934	27785
818.075	27728
818.216	27766
818.356	27587
818.497	27557
818.638	27370
818.778	27534
818.919	27462
819.06	27500
819.2	27679
819.341	27781
819.481	27724
819.622	27835
819.762	28116
819.903	28017
820.043	27895
820.184	27838
820.324	27720
820.465	27975
820.605	27972
820.746	27846
820.886	27644
821.026	27835
821.167	27899
821.307	27884
821.447	27781
821.588	27625
821.728	27519
821.868	27359
822.008	27256
822.149	27154
822.289	27192
822.429	26925
822.569	27024
822.709	26845
822.849	26651
822.99	26686
823.13	26651
823.27	26731
823.41	26450
823.55	26484
823.69	26511
823.83	26549
823.97	26374
824.11	26385
824.25	26317
824.389	26355
824.529	26511
824.669	26396
824.809	26518
824.949	26427
825.089	26453
825.228	26324
825.368	26199
825.508	26199
825.648	26259
825.787	26145
825.927	26317
826.067	26317
826.206	26320
826.346	26267
826.485	26240
826.625	26206
826.765	26157
826.904	26339
827.044	26157
827.183	25989
827.323	25940
827.462	26020
827.601	25845
827.741	25925
827.88	25913
828.02	25795
828.159	25860
828.298	25944
828.437	25993
828.577	25936
828.716	26073
828.855	25936
828.994	25674
829.134	25708
829.273	25529
829.412	25662
829.551	25647
829.69	25658
829.829	25628
829.968	25791
830.107	25868
830.246	25609
830.385	25605
830.524	25514
830.663	25384
830.802	25187
830.941	25160
831.08	25168
831.219	25122
831.357	25327
831.496	25369
831.635	25198
831.774	25042
831.913	25080
832.051	25027
832.19	24909
832.329	25099
832.467	24939
832.606	24989
832.744	24890
832.883	24939
833.022	24837
833.16	24958
833.299	24977
833.437	24882
833.576	25050
833.714	24966
833.852	25065
833.991	24829
834.129	25012
834.267	25042
834.406	24958
834.544	24981
834.682	25053
834.821	25168
834.959	25232
835.097	24905
835.235	25008
835.373	24992
835.511	24821
835.65	24840
835.788	24863
835.926	24726
836.064	24547
836.202	24585
836.34	24852
836.478	24859
836.615	24802
836.753	24886
836.891	24886
837.029	24738
837.167	24734
837.305	24582
837.443	24673
837.58	24677
837.718	24566
837.856	24608
837.993	24582
838.131	24513
838.269	24460
838.406	24578
838.544	24445
838.681	24300
838.819	24372
838.956	24022
839.094	24129
839.231	24102
839.369	24155
839.506	24471
839.643	24422
839.781	24091
839.918	24049
840.055	24152
840.193	24106
840.33	24038
840.467	24053
840.604	24026
840.742	24338
840.879	23912
841.016	23931
841.153	23821
841.29	24117
841.427	23950
841.564	23965
841.701	23923
841.838	24003
841.975	23874
842.112	23992
842.249	23878
842.385	23802
842.522	23882
842.659	23954
842.796	23813
842.933	23756
843.069	23767
843.206	23657
843.343	23726
843.479	23790
843.616	23627
843.752	23581
843.889	23455
844.025	23687
844.162	23478
844.298	23668
844.435	23551
844.571	23509
844.708	23524
844.844	23638
844.98	23745
845.117	23745
845.253	23528
845.389	23345
845.525	23543
845.661	23292
845.798	23387
845.934	23341
846.07	23235
846.206	23376
846.342	23444
846.478	23292
846.614	23003
846.75	22885
846.886	23025
847.022	23006
847.158	23022
847.294	23003
847.429	23056
847.565	22919
847.701	23250
847.837	22744
847.972	22790
848.108	22862
848.244	22774
848.379	22622
848.515	22592
848.65	22588
848.786	22478
848.921	22645
849.057	22607
849.192	22577
849.328	22767
849.463	22611
849.598	22455
849.734	22538
849.869	22356
850.004	22234
850.14	22402
850.275	22306
850.41	22287
850.545	22215
850.68	22386
850.815	22318
850.95	22386
851.085	22409
851.22	22268
851.355	22375
851.49	22215
851.625	22333
851.76	22242
851.895	22185
852.03	22310
852.165	22322
852.299	22314
852.434	22386
852.569	22303
852.703	22329
852.838	22379
852.973	22523
853.107	22462
853.242	22306
853.376	22185
853.511	22124
853.645	22147
853.78	22284
853.914	22162
854.048	22086
854.183	22090
854.317	22116
854.451	22409
854.585	22181
854.72	22097
854.854	22234
854.988	22002
855.122	22238
855.256	22063
855.39	22036
855.524	22394
855.658	22234
855.792	22162
855.926	22230
856.06	22204
856.194	22249
856.327	22181
856.461	22006
856.595	22249
856.729	22158
856.862	22109
856.996	22185
857.13	22135
857.263	22253
857.397	22242
857.53	21987
857.664	22230
857.797	22261
857.931	22268
858.064	22207
858.197	22306
858.331	22044
858.464	22032
858.597	22051
858.731	22112
858.864	22036
858.997	22070
859.13	22177
859.263	22276
859.396	22299
859.529	22211
859.662	22131
859.795	22082
859.928	22211
860.061	22360
860.194	22329
860.327	22211
860.46	22169
860.592	22223
860.725	22234
860.858	22303
860.99	22109
861.123	22051
861.256	22238
861.388	22226
861.521	22816
861.653	22010
861.786	22040
861.918	21953
862.05	22055
862.183	21903
862.315	22093
862.447	22139
862.58	22055
862.712	21816
862.844	21728
862.976	21975
863.108	21979
863.24	22329
863.372	21888
863.504	21846
863.636	21823
863.768	21793
863.9	21755
864.032	21759
864.164	21911
864.296	21884
864.428	21968
864.559	21911
864.691	21892
864.823	21903
864.954	21857
865.086	21831
865.217	21857
865.349	21679
865.48	21724
865.612	21728
865.743	21888
865.875	21709
866.006	21603
866.137	21751
866.269	21591
866.4	21770
866.531	21629
866.662	21599
866.793	21644
866.924	21599
867.055	21694
867.186	21808
867.317	21671
867.448	21564
867.579	21663
867.71	21587
867.841	21564
867.972	21705
868.103	21682
868.233	21732
868.364	21743
868.495	21899
868.625	21934
868.756	21998
868.886	21846
869.017	22017
869.147	21861
869.278	22013
869.408	21861
869.539	21949
869.669	22040
869.799	21774
869.929	21994
870.06	21975
870.19	22246
870.32	22177
870.45	22265
870.58	22253
870.71	22363
870.84	22375
870.97	22238
871.1	22352
871.23	22481
871.36	22542
871.489	22466
871.619	22497
871.749	22557
871.879	22523
872.008	22580
872.138	22546
872.267	22474
872.397	22436
872.526	22246
872.656	22322
872.785	22432
872.915	22557
873.044	22656
873.173	22519
873.303	22672
873.432	22603
873.561	22584
873.69	22451
873.819	22561
873.948	22694
874.077	22531
874.206	22478
874.335	22459
874.464	22596
874.593	22721
874.722	22580
874.851	22759
874.979	22934
875.108	22873
875.237	22675
875.365	22649
875.494	22786
875.623	22930
875.751	22759
875.88	22664
876.008	22927
876.136	22934
876.265	23105
876.393	23204
876.521	23227
876.65	23356
876.778	23178
876.906	23117
877.034	23079
877.162	23094
877.29	23033
877.418	23140
877.546	23083
877.674	22949
877.802	23044
877.93	23086
878.058	23083
878.185	23071
878.313	23155
878.441	23109
878.568	22877
878.696	23064
878.824	23025
878.951	23239
879.079	23410
879.206	23322
879.333	23216
879.461	23197
879.588	23174
879.715	23246
879.842	23330
879.97	23162
880.097	23003
880.224	22889
880.351	22934
880.478	22961
880.605	22854
880.732	22835
880.859	23170
880.986	22904
881.112	22949
881.239	22831
881.366	22508
881.493	22561
881.619	22440
881.746	22474
881.872	22466
881.999	22481
882.125	22306
882.252	22577
882.378	22413
882.505	22459
882.631	22265
882.757	22135
882.883	22192
883.01	22128
883.136	22223
883.262	22067
883.388	22063
883.514	22128
883.64	22192
883.766	22017
883.892	21937
884.018	21987
884.143	22131
884.269	22112
884.395	21819
884.52	21717
884.646	21778
884.772	21774
884.897	21694
885.023	21736
885.148	21934
885.274	22002
885.399	22025
885.524	21846
885.65	21789
885.775	21800
885.9	21720
886.025	21857
886.15	21907
886.275	21774
886.4	21709
886.525	21679
886.65	21739
886.775	21720
886.9	21823
887.025	21991
887.149	21732
887.274	21534
887.399	21557
887.523	21618
887.648	21428
887.773	21511
887.897	21671
888.021	21583
888.146	21538
888.27	21587
888.395	21572
888.519	21618
888.643	21652
888.767	21587
888.891	21450
889.015	21268
889.139	21462
889.263	21313
889.387	21504
889.511	21557
889.635	21515
889.759	21306
889.883	21355
890.006	21336
890.13	21355
890.254	21226
890.377	21302
890.501	21119
890.624	21051
890.748	21081
890.871	20994
890.995	20845
891.118	20887
891.241	21009
891.364	20811
891.488	20883
891.611	20823
891.734	20914
891.857	20956
891.98	20880
892.103	20895
892.226	20910
892.349	20804
892.471	20731
892.594	20693
892.717	20838
892.839	20682
892.962	20883
893.085	20956
893.207	20796
893.33	20735
893.452	20708
893.575	20773
893.697	20667
893.819	20956
893.941	20910
894.064	20849
894.186	20762
894.308	20765
894.43	20830
894.552	20750
894.674	20743
894.796	20667
894.918	20670
895.04	20716
895.161	20941
895.283	20765
895.405	20689
895.526	20716
895.648	20754
895.769	20845
895.891	20659
896.012	20788
896.134	20823
896.255	20849
896.376	20754
896.498	20739
896.619	20804
896.74	20701
896.861	20765
896.982	21017
897.103	21161
897.224	21013
897.345	21020
897.466	20986
897.587	21036
897.708	21077
897.828	20994
897.949	20872
898.07	20842
898.19	20914
898.311	21135
898.431	20914
898.552	21154
898.672	20929
898.792	21070
898.913	20982
899.033	20819
899.153	20838
899.273	20762
899.393	20716
899.513	20842
899.633	20678
899.753	20716
899.873	20651
899.993	20800
900.113	20552
900.232	20697
900.352	20682
900.472	20393
900.591	20511
900.711	20518
900.83	20408
900.95	20503
901.069	20526
901.189	20294
901.308	20138
901.427	20103
901.546	20065
901.665	20199
901.784	20039
901.904	20031
902.023	19879
902.141	19681
902.26	19552
902.379	19643
902.498	19586
902.617	19544
902.735	19590
902.854	19590
902.973	19415
903.091	19358
903.21	19331
903.328	19202
903.446	19107
903.565	19065
903.683	19042
903.801	18920
903.919	18901
904.038	18996
904.156	18776
904.274	18939
904.392	18741
904.51	18768
904.627	18703
904.745	18722
904.863	18829
904.981	18547
905.098	18448
905.216	18410
905.334	18464
905.451	18506
905.569	18456
905.686	18570
905.803	18486
905.921	18239
906.038	18365
906.155	18235
906.272	18209
906.389	18155
906.506	18045
906.623	17980
906.74	17996
906.857	17847
906.974	17927
907.091	18159
907.208	18015
907.324	17973
907.441	17878
907.557	17775
907.674	17642
907.79	17657
907.907	17642
908.023	17668
908.139	17570
908.256	17589
908.372	17615
908.488	17611
908.604	17421
908.72	17326
908.836	17452
908.952	17353
909.068	17364
909.184	17554
909.3	17379
909.415	17478
909.531	17376
909.647	17128
909.762	17136
909.878	17143
909.993	17064
910.108	17223
910.224	17029
910.339	17033
910.454	16915
910.57	16972
910.685	16786
910.8	17261
910.915	17079
911.03	16927
911.145	16774
911.259	16694
911.374	16698
911.489	16706
911.604	16577
911.718	16432
911.833	16447
911.947	16325
912.062	16295
912.176	16348
912.291	16546
912.405	16341
912.519	16592
912.633	16656
912.748	16466
912.862	16485
912.976	16295
913.09	16223
913.204	16299
913.318	16238
913.431	16402
913.545	16428
913.659	16394
913.772	16242
913.886	16044
914	16112
914.113	16196
914.226	16177
914.34	16112
914.453	15922
914.566	16071
914.68	15937
914.793	15846
914.906	15682
915.019	15481
915.132	15542
915.245	15587
915.358	15610
915.47	15572
915.583	15648
915.696	15614
915.809	15778
915.921	15743
916.034	15584
916.146	15542
916.259	15378
916.371	15584
916.483	15637
916.595	15416
916.708	15477
916.82	15485
916.932	15344
917.044	15363
917.156	15332
917.268	15211
917.38	15214
917.491	15283
917.603	15260
917.715	15317
917.826	15298
917.938	15192
918.049	15116
918.161	15233
918.272	15283
918.384	15378
918.495	15241
918.606	15066
918.717	15020
918.828	15036
918.939	15009
919.05	14914
919.161	15043
919.272	14800
919.383	14838
919.494	14994
919.604	15142
919.715	14986
919.826	14872
919.936	14990
920.047	15020
920.157	14956
920.267	15161
920.378	15001
920.488	15005
920.598	15097
920.708	15203
920.818	15135
920.928	15104
921.038	15260
921.148	15230
921.258	14887
921.368	14952
921.477	14716
921.587	14811
921.697	14537
921.806	14697
921.916	14610
922.025	14370
922.134	14408
922.244	14278
922.353	14362
922.462	14233
922.571	14309
922.68	13970
922.789	14054
922.898	13997
923.007	13955
923.116	14012
923.224	13974
923.333	13932
923.442	13776
923.55	13879
923.659	13814
923.767	13841
923.876	13757
923.984	13811
924.092	13723
924.201	13712
924.309	13693
924.417	13658
924.525	13628
924.633	13594
924.741	14442
924.849	13419
924.956	13681
925.064	13426
925.172	13358
925.279	13289
925.387	13392
925.494	13426
925.602	13434
925.709	13350
925.816	13327
925.924	13415
926.031	13384
926.138	13247
926.245	13335
926.352	13160
926.459	13278
926.566	13324
926.673	13217
926.779	13156
926.886	13145
926.993	12905
927.099	12913
927.206	12932
927.312	12909
927.419	12943
927.525	12913
927.631	12977
927.737	12848
927.843	12806
927.95	12707
928.056	12665
928.162	12741
928.267	12764
928.373	13335
928.479	12848
928.585	12612
928.69	12616
928.796	12639
928.901	12547
929.007	12494
929.112	12570
929.218	12536
929.323	12441
929.428	12452
929.533	12506
929.638	12338
929.743	12361
929.848	12445
929.953	12471
930.058	12342
930.163	12171
930.267	12163
930.372	12296
930.477	12125
930.581	12300
930.685	12182
930.79	11984
930.894	12019
930.998	11904
931.103	12159
931.207	11752
931.311	11691
931.415	11699
931.519	11387
931.623	11307
