Data from test_V78500241_2934.txt Node
Date: Fri Mar 25 16:02:07 CST 2022
User: usil
Spectrometer: V785-0024
Trigger mode: 0
Integration Time (sec): 4.000000E-1
Scans to average: 1
Nonlinearity correction enabled: false
Boxcar width: 0
Storing dark spectrum: false
XAxis mode: Wavelengths
Number of Pixels in Spectrum: 1024
>>>>>Begin Spectral Data<<<<<
801.071	28550
801.214	28546
801.356	28382
801.499	28276
801.641	28105
801.783	28078
801.926	28192
802.068	28139
802.211	28063
802.353	28086
802.496	27770
802.638	27835
802.78	27865
802.923	27800
803.065	27736
803.208	27797
803.35	27934
803.492	27998
803.635	28063
803.777	27892
803.919	28154
804.061	28519
804.204	28166
804.346	28044
804.488	27960
804.63	28070
804.773	28025
804.915	28116
805.057	28097
805.199	28086
805.341	28070
805.483	28295
805.626	28143
805.768	28192
805.91	28238
806.052	28265
806.194	28154
806.336	28303
806.478	28226
806.62	28158
806.762	28421
806.904	28470
807.046	28573
807.188	28611
807.33	28710
807.472	28748
807.614	28527
807.756	28634
807.898	28462
808.04	28447
808.182	28447
808.324	28508
808.465	28466
808.607	28755
808.749	28831
808.891	29022
809.033	29098
809.174	29003
809.316	28965
809.458	28915
809.6	28816
809.741	28980
809.883	29098
810.025	29155
810.166	29193
810.308	29079
810.45	29083
810.591	29060
810.733	28881
810.875	28949
811.016	28961
811.158	28793
811.299	28942
811.441	29003
811.582	28991
811.724	28866
811.865	28949
812.007	28850
812.148	28991
812.29	28984
812.431	29128
812.573	29212
812.714	29303
812.855	29501
812.997	29482
813.138	29703
813.279	29596
813.421	29315
813.562	29368
813.703	29273
813.845	29185
813.986	28972
814.127	28641
814.268	28626
814.41	28790
814.551	28584
814.692	28729
814.833	28588
814.974	28603
815.115	28721
815.256	28421
815.397	28455
815.539	28432
815.68	28375
815.821	28333
815.962	28504
816.103	28493
816.244	28200
816.385	28154
816.526	28249
816.666	28006
816.807	27934
816.948	28086
817.089	27960
817.23	27987
817.371	27876
817.512	27766
817.653	27895
817.793	27797
817.934	27812
818.075	28048
818.216	27987
818.356	27797
818.497	27774
818.638	27583
818.778	27682
818.919	27698
819.06	27793
819.2	27895
819.341	27869
819.481	27854
819.622	28059
819.762	28371
819.903	28086
820.043	28044
820.184	28059
820.324	27994
820.465	28040
820.605	27926
820.746	28036
820.886	27873
821.026	28032
821.167	28021
821.307	28124
821.447	27808
821.588	27823
821.728	27770
821.868	27492
822.008	27507
822.149	27325
822.289	27443
822.429	27104
822.569	27001
822.709	27070
822.849	26842
822.99	26990
823.13	26762
823.27	26849
823.41	26773
823.55	26655
823.69	26826
823.83	26629
823.97	26644
824.11	26640
824.25	26301
824.389	26552
824.529	26621
824.669	26579
824.809	26667
824.949	26594
825.089	26541
825.228	26568
825.368	26408
825.508	26381
825.648	26537
825.787	26469
825.927	26309
826.067	26358
826.206	26358
826.346	26511
826.485	26457
826.625	26461
826.765	26476
826.904	26545
827.044	26153
827.183	26244
827.323	26187
827.462	26218
827.601	26134
827.741	26145
827.88	26278
828.02	25989
828.159	26134
828.298	26020
828.437	26122
828.577	26183
828.716	26187
828.855	26058
828.994	25841
829.134	25845
829.273	25776
829.412	25826
829.551	25658
829.69	25875
829.829	25769
829.968	25906
830.107	25852
830.246	25731
830.385	25845
830.524	25753
830.663	25647
830.802	25350
830.941	25350
831.08	25400
831.219	25556
831.357	25510
831.496	25643
831.635	25540
831.774	25362
831.913	25358
832.051	25240
832.19	25247
832.329	25289
832.467	25179
832.606	25107
832.744	24932
832.883	25004
833.022	25031
833.16	25145
833.299	25160
833.437	25129
833.576	25209
833.714	25240
833.852	25278
833.991	25194
834.129	25274
834.267	25266
834.406	24973
834.544	25274
834.682	25145
834.821	25095
834.959	25247
835.097	25080
835.235	25152
835.373	25080
835.511	25133
835.65	25069
835.788	25034
835.926	24890
836.064	24734
836.202	24878
836.34	24989
836.478	25160
836.615	24939
836.753	24981
836.891	24996
837.029	25061
837.167	24973
837.305	24913
837.443	24783
837.58	24753
837.718	24810
837.856	24958
837.993	24738
838.131	24707
838.269	24597
838.406	24798
838.544	24665
838.681	24502
838.819	24388
838.956	24304
839.094	24239
839.231	24247
839.369	24395
839.506	24688
839.643	24486
839.781	24342
839.918	24220
840.055	24258
840.193	24277
840.33	24182
840.467	24083
840.604	24197
840.742	24551
840.879	24117
841.016	24125
841.153	24083
841.29	24190
841.427	24239
841.564	24266
841.701	24136
841.838	24140
841.975	23984
842.112	24072
842.249	23931
842.385	24007
842.522	24254
842.659	24057
842.796	23999
842.933	23920
843.069	24053
843.206	23961
843.343	24053
843.479	23927
843.616	23961
843.752	23718
843.889	23718
844.025	23783
844.162	23684
844.298	23733
844.435	23718
844.571	23619
844.708	23817
844.844	23805
844.98	23840
845.117	23840
845.253	23741
845.389	23619
845.525	23486
845.661	23589
845.798	23433
845.934	23474
846.07	23436
846.206	23528
846.342	23638
846.478	23459
846.614	23208
846.75	23151
846.886	23189
847.022	23166
847.158	23322
847.294	23231
847.429	23147
847.565	23079
847.701	23341
847.837	23033
847.972	22862
848.108	22961
848.244	22995
848.379	22923
848.515	22664
848.65	22729
848.786	22782
848.921	22820
849.057	22725
849.192	22809
849.328	22854
849.463	22656
849.598	22717
849.734	22538
849.869	22626
850.004	22466
850.14	22478
850.275	22421
850.41	22432
850.545	22519
850.68	22424
850.815	22466
850.95	22447
851.085	22664
851.22	22592
851.355	22421
851.49	22660
851.625	22500
851.76	22584
851.895	22443
852.03	22447
852.165	22519
852.299	22550
852.434	22771
852.569	22523
852.703	22516
852.838	22588
852.973	22645
853.107	22561
853.242	22489
853.376	22287
853.511	22143
853.645	22318
853.78	22481
853.914	22504
854.048	22230
854.183	22371
854.317	22257
854.451	22447
854.585	22367
854.72	22455
854.854	22405
854.988	22207
855.122	22341
855.256	22265
855.39	22295
855.524	22360
855.658	22466
855.792	22352
855.926	22436
856.06	22409
856.194	22485
856.327	22382
856.461	22398
856.595	22367
856.729	22303
856.862	22470
856.996	22379
857.13	22470
857.263	22497
857.397	22424
857.53	22352
857.664	22375
857.797	22516
857.931	22588
858.064	22325
858.197	22421
858.331	22497
858.464	22352
858.597	22162
858.731	22333
858.864	22333
858.997	22280
859.13	22333
859.263	22432
859.396	22508
859.529	22341
859.662	22341
859.795	22303
859.928	22409
860.061	22470
860.194	22542
860.327	22405
860.46	22341
860.592	22542
860.725	22592
860.858	22577
860.99	22344
861.123	22246
861.256	22314
861.388	22497
861.521	23010
861.653	22188
861.786	22219
861.918	22158
862.05	22265
862.183	22348
862.315	22322
862.447	22344
862.58	22185
862.712	22078
862.844	22029
862.976	22226
863.108	22204
863.24	22577
863.372	22097
863.504	22097
863.636	22139
863.768	22135
863.9	22010
864.032	21972
864.164	22051
864.296	22036
864.428	22109
864.559	22204
864.691	22268
864.823	22032
864.954	22040
865.086	21941
865.217	22078
865.349	21956
865.48	21975
865.612	21911
865.743	22124
865.875	21915
866.006	21873
866.137	22044
866.269	21930
866.4	21934
866.531	21827
866.662	21804
866.793	21895
866.924	21831
867.055	22002
867.186	21903
867.317	21800
867.448	21819
867.579	21865
867.71	21857
867.841	21755
867.972	21922
868.103	21934
868.233	21876
868.364	21926
868.495	21918
868.625	22105
868.756	22333
868.886	21949
869.017	22150
869.147	22173
869.278	22280
869.408	22158
869.539	22063
869.669	22150
869.799	22238
869.929	22382
870.06	22226
870.19	22421
870.32	22443
870.45	22481
870.58	22497
870.71	22744
870.84	22683
870.97	22622
871.1	22577
871.23	22622
871.36	22679
871.489	22683
871.619	22675
871.749	22679
871.879	22755
872.008	22755
872.138	22656
872.267	22721
872.397	22641
872.526	22447
872.656	22634
872.785	22573
872.915	22816
873.044	22694
873.173	22710
873.303	22835
873.432	22767
873.561	22847
873.69	22869
873.819	22759
873.948	22793
874.077	22672
874.206	22805
874.335	22733
874.464	23003
874.593	22965
874.722	22904
874.851	23022
874.979	22972
875.108	23041
875.237	22946
875.365	22828
875.494	23018
875.623	23048
875.751	22980
875.88	22972
876.008	23048
876.136	23155
876.265	23372
876.393	23410
876.521	23364
876.65	23512
876.778	23353
876.906	23227
877.034	23376
877.162	23330
877.29	23216
877.418	23433
877.546	23239
877.674	23315
877.802	23315
877.93	23288
878.058	23296
878.185	23121
878.313	23242
878.441	23246
878.568	23159
878.696	23193
878.824	23353
878.951	23421
879.079	23387
879.206	23554
879.333	23364
879.461	23258
879.588	23254
879.715	23402
879.842	23566
879.97	23376
880.097	23010
880.224	23003
880.351	23094
880.478	23170
880.605	23090
880.732	23086
880.859	23360
880.986	23098
881.112	23200
881.239	22987
881.366	22812
881.493	22729
881.619	22717
881.746	22736
881.872	22774
881.999	22706
882.125	22771
882.252	22710
882.378	22634
882.505	22706
882.631	22504
882.757	22337
882.883	22451
883.01	22306
883.136	22382
883.262	22211
883.388	22101
883.514	22443
883.64	22371
883.766	22356
883.892	22158
884.018	22044
884.143	22310
884.269	22299
884.395	22067
884.52	22063
884.646	22040
884.772	21926
884.897	21953
885.023	21895
885.148	21964
885.274	22131
885.399	22055
885.524	22017
885.65	22032
885.775	21956
885.9	21960
886.025	22143
886.15	22040
886.275	22010
886.4	21937
886.525	22082
886.65	21934
886.775	21846
886.9	22059
887.025	22166
887.149	21949
887.274	21842
887.399	21816
887.523	21778
887.648	21675
887.773	21660
887.897	21846
888.021	21819
888.146	21713
888.27	21835
888.395	21705
888.519	21842
888.643	21694
888.767	21660
888.891	21709
889.015	21458
889.139	21511
889.263	21458
889.387	21614
889.511	21755
889.635	21652
889.759	21526
889.883	21519
890.006	21523
890.13	21671
890.254	21412
890.377	21572
890.501	21317
890.624	21260
890.748	21241
890.871	21188
890.995	21150
891.118	20982
891.241	21066
891.364	21028
891.488	21218
891.611	21127
891.734	21165
891.857	21222
891.98	20967
892.103	21055
892.226	21024
892.349	21127
892.471	20883
892.594	21100
892.717	21108
892.839	20944
892.962	20925
893.085	21039
893.207	20933
893.33	20849
893.452	20956
893.575	20979
893.697	20914
893.819	21203
893.941	21211
894.064	21066
894.186	20963
894.308	20921
894.43	21020
894.552	20990
894.674	20994
894.796	20868
894.918	20998
895.04	20918
895.161	21024
895.283	20982
895.405	20842
895.526	20929
895.648	20956
895.769	21009
895.891	21051
896.012	21043
896.134	21001
896.255	20921
896.376	20990
896.498	20986
896.619	20986
896.74	20963
896.861	21116
896.982	21336
897.103	21317
897.224	21192
897.345	21104
897.466	21013
897.587	21184
897.708	21443
897.828	21176
897.949	21077
898.07	21096
898.19	21093
898.311	21192
898.431	21123
898.552	21188
898.672	21211
898.792	21302
898.913	21146
899.033	20960
899.153	21070
899.273	20811
899.393	20967
899.513	20830
899.633	20765
899.753	20948
899.873	20792
899.993	20910
900.113	20899
900.232	20918
900.352	20804
900.472	20750
900.591	20629
900.711	20746
900.83	20571
900.95	20750
901.069	20872
901.189	20484
901.308	20374
901.427	20252
901.546	20328
901.665	20214
901.784	20122
901.904	20058
902.023	19989
902.141	19742
902.26	19788
902.379	19791
902.498	19788
902.617	19677
902.735	19795
902.854	19674
902.973	19628
903.091	19495
903.21	19438
903.328	19331
903.446	19251
903.565	19175
903.683	19255
903.801	19247
903.919	19141
904.038	19187
904.156	18920
904.274	18970
904.392	18951
904.51	18916
904.627	18962
904.745	19050
904.863	18989
904.981	18856
905.098	18635
905.216	18684
905.334	18597
905.451	18703
905.569	18566
905.686	18658
905.803	18631
905.921	18460
906.038	18388
906.155	18407
906.272	18277
906.389	18410
906.506	18258
906.623	18159
906.74	18235
906.857	17958
906.974	18140
907.091	18228
907.208	18201
907.324	18277
907.441	17969
907.557	17851
907.674	17927
907.79	17695
907.907	17843
908.023	17961
908.139	17786
908.256	17764
908.372	17786
908.488	17707
908.604	17699
908.72	17634
908.836	17482
908.952	17604
909.068	17600
909.184	17748
909.3	17600
909.415	17505
909.531	17562
909.647	17303
909.762	17410
909.878	17315
909.993	17200
910.108	17216
910.224	17200
910.339	17200
910.454	17220
910.57	17132
910.685	16991
910.8	17307
910.915	17261
911.03	17079
911.145	16984
911.259	16793
911.374	16828
911.489	16687
911.604	16809
911.718	16675
911.833	16626
911.947	16618
912.062	16478
912.176	16584
912.291	16615
912.405	16634
912.519	16721
912.633	16801
912.748	16755
912.862	16626
912.976	16405
913.09	16341
913.204	16390
913.318	16337
913.431	16481
913.545	16382
913.659	16413
913.772	16322
913.886	16242
914	16223
914.113	16303
914.226	16295
914.34	16310
914.453	16040
914.566	16242
914.68	15979
914.793	16040
914.906	15838
915.019	15819
915.132	15701
915.245	15793
915.358	15770
915.47	15812
915.583	15694
915.696	15865
915.809	15838
915.921	15937
916.034	15717
916.146	15561
916.259	15705
916.371	15831
916.483	15713
916.595	15682
916.708	15553
916.82	15557
916.932	15629
917.044	15496
917.156	15561
917.268	15370
917.38	15492
917.491	15466
917.603	15370
917.715	15401
917.826	15545
917.938	15355
918.049	15252
918.161	15302
918.272	15629
918.384	15428
918.495	15252
918.606	15214
918.717	15188
918.828	15252
918.939	15222
919.05	15020
919.161	15058
919.272	14918
919.383	14956
919.494	15119
919.604	15336
919.715	15131
919.826	15017
919.936	15036
920.047	15252
920.157	15116
920.267	15287
920.378	15195
920.488	15150
920.598	15169
920.708	15439
920.818	15116
920.928	15165
921.038	15447
921.148	15382
921.258	14975
921.368	15013
921.477	14769
921.587	14815
921.697	14689
921.806	14819
921.916	14716
922.025	14629
922.134	14408
922.244	14423
922.353	14545
922.462	14339
922.571	14263
922.68	14138
922.789	14081
922.898	14123
923.007	14020
923.116	14123
923.224	14123
923.333	13917
923.442	13913
923.55	13932
923.659	13940
923.767	13925
923.876	13871
923.984	13989
924.092	13776
924.201	13849
924.309	13963
924.417	13700
924.525	13761
924.633	13765
924.741	14686
924.849	13510
924.956	13715
925.064	13552
925.172	13518
925.279	13445
925.387	13483
925.494	13499
925.602	13681
925.709	13510
925.816	13350
925.924	13460
926.031	13502
926.138	13346
926.245	13487
926.352	13369
926.459	13468
926.566	13483
926.673	13293
926.779	13251
926.886	13221
926.993	13110
927.099	13042
927.206	12973
927.312	13053
927.419	13145
927.525	12973
927.631	12981
927.737	12962
927.843	12844
927.95	12673
928.056	12810
928.162	12837
928.267	12878
928.373	13373
928.479	12886
928.585	12779
928.69	12802
928.796	12894
928.901	12665
929.007	12471
929.112	12669
929.218	12623
929.323	12623
929.428	12589
929.533	12665
929.638	12429
929.743	12544
929.848	12513
929.953	12483
930.058	12437
930.163	12209
930.267	12235
930.372	12365
930.477	12167
930.581	12414
930.685	12175
930.79	12079
930.894	12159
930.998	12076
931.103	12213
931.207	11904
931.311	11699
931.415	11680
931.519	11463
931.623	11516
