Data from test_V78500241_1666.txt Node
Date: Fri Mar 25 15:53:20 CST 2022
User: usil
Spectrometer: V785-0024
Trigger mode: 0
Integration Time (sec): 4.000000E-1
Scans to average: 1
Nonlinearity correction enabled: false
Boxcar width: 0
Storing dark spectrum: false
XAxis mode: Wavelengths
Number of Pixels in Spectrum: 1024
>>>>>Begin Spectral Data<<<<<
801.071	28318
801.214	28188
801.356	28017
801.499	27797
801.641	27865
801.783	27675
801.926	27979
802.068	27797
802.211	27785
802.353	27743
802.496	27656
802.638	27644
802.78	27401
802.923	27450
803.065	27329
803.208	27382
803.35	27511
803.492	27675
803.635	27759
803.777	27568
803.919	27717
804.061	28082
804.204	27797
804.346	27572
804.488	27599
804.63	27641
804.773	27473
804.915	27778
805.057	27869
805.199	27720
805.341	27766
805.483	27869
805.626	27873
805.768	27835
805.91	27797
806.052	27876
806.194	27838
806.336	28051
806.478	27972
806.62	27892
806.762	27922
806.904	28048
807.046	28268
807.188	28246
807.33	28265
807.472	28379
807.614	28238
807.756	28291
807.898	28226
808.04	28105
808.182	28177
808.324	28162
808.465	28337
808.607	28276
808.749	28493
808.891	28596
809.033	28630
809.174	28599
809.316	28470
809.458	28508
809.6	28531
809.741	28675
809.883	28611
810.025	28759
810.166	28835
810.308	28828
810.45	28725
810.591	28725
810.733	28588
810.875	28478
811.016	28382
811.158	28512
811.299	28653
811.441	28706
811.582	28630
811.724	28538
811.865	28615
812.007	28409
812.148	28489
812.29	28641
812.431	28767
812.573	28930
812.714	28980
812.855	29037
812.997	29341
813.138	29208
813.279	29220
813.421	29006
813.562	29048
813.703	28824
813.845	28672
813.986	28443
814.127	28470
814.268	28318
814.41	28284
814.551	28169
814.692	28211
814.833	28181
814.974	28109
815.115	28246
815.256	28074
815.397	28105
815.539	28150
815.68	27960
815.821	27975
815.962	28006
816.103	27998
816.244	27854
816.385	27797
816.526	27781
816.666	27679
816.807	27515
816.948	27614
817.089	27648
817.23	27587
817.371	27561
817.512	27504
817.653	27393
817.793	27367
817.934	27538
818.075	27648
818.216	27557
818.356	27405
818.497	27367
818.638	27237
818.778	27192
818.919	27272
819.06	27332
819.2	27325
819.341	27416
819.481	27511
819.622	27526
819.762	27842
819.903	27785
820.043	27660
820.184	27720
820.324	27652
820.465	27743
820.605	27675
820.746	27660
820.886	27462
821.026	27542
821.167	27641
821.307	27774
821.447	27690
821.588	27424
821.728	27294
821.868	27154
822.008	27062
822.149	26998
822.289	26876
822.429	26670
822.569	26667
822.709	26769
822.849	26400
822.99	26450
823.13	26511
823.27	26389
823.41	26343
823.55	26233
823.69	26328
823.83	26301
823.97	26282
824.11	26107
824.25	26077
824.389	26244
824.529	26214
824.669	26172
824.809	26164
824.949	26202
825.089	26153
825.228	26206
825.368	25894
825.508	26107
825.648	25997
825.787	26016
825.927	26027
826.067	26024
826.206	25989
826.346	25993
826.485	26039
826.625	25993
826.765	26069
826.904	25906
827.044	25875
827.183	25723
827.323	25635
827.462	25761
827.601	25750
827.741	25738
827.88	25860
828.02	25556
828.159	25605
828.298	25734
828.437	25837
828.577	25559
828.716	25613
828.855	25708
828.994	25548
829.134	25506
829.273	25407
829.412	25381
829.551	25301
829.69	25422
829.829	25384
829.968	25335
830.107	25449
830.246	25335
830.385	25339
830.524	25324
830.663	25228
830.802	25183
830.941	24928
831.08	25088
831.219	25145
831.357	25126
831.496	25209
831.635	25023
831.774	24966
831.913	24916
832.051	24867
832.19	24867
832.329	24798
832.467	24783
832.606	24692
832.744	24749
832.883	24738
833.022	24684
833.16	24627
833.299	24791
833.437	24760
833.576	24837
833.714	24802
833.852	24890
833.991	24905
834.129	24863
834.267	24901
834.406	24654
834.544	24837
834.682	24783
834.821	24650
834.959	24833
835.097	24566
835.235	24776
835.373	24665
835.511	24669
835.65	24540
835.788	24544
835.926	24597
836.064	24372
836.202	24460
836.34	24601
836.478	24604
836.615	24582
836.753	24574
836.891	24738
837.029	24604
837.167	24437
837.305	24513
837.443	24410
837.58	24391
837.718	24536
837.856	24555
837.993	24334
838.131	24445
838.269	24308
838.406	24281
838.544	24243
838.681	24201
838.819	23950
838.956	23893
839.094	23851
839.231	23996
839.369	24076
839.506	24174
839.643	24026
839.781	23821
839.918	23794
840.055	23973
840.193	23821
840.33	23741
840.467	23805
840.604	23927
840.742	24095
840.879	23680
841.016	23710
841.153	23661
841.29	23805
841.427	23672
841.564	23809
841.701	23813
841.838	23786
841.975	23707
842.112	23710
842.249	23509
842.385	23573
842.522	23752
842.659	23722
842.796	23497
842.933	23554
843.069	23402
843.206	23539
843.343	23516
843.479	23570
843.616	23627
843.752	23334
843.889	23349
844.025	23455
844.162	23326
844.298	23505
844.435	23349
844.571	23315
844.708	23311
844.844	23467
844.98	23577
845.117	23429
845.253	23231
845.389	23162
845.525	23223
845.661	23143
845.798	22999
845.934	23075
846.07	23060
846.206	23056
846.342	23189
846.478	22953
846.614	22915
846.75	22717
846.886	22866
847.022	22889
847.158	22790
847.294	22664
847.429	22911
847.565	22873
847.701	23216
847.837	22645
847.972	22531
848.108	22599
848.244	22512
848.379	22394
848.515	22409
848.65	22382
848.786	22295
848.921	22360
849.057	22382
849.192	22451
849.328	22443
849.463	22417
849.598	22348
849.734	22280
849.869	22253
850.004	22196
850.14	22246
850.275	22196
850.41	22010
850.545	22055
850.68	22128
850.815	22200
850.95	22105
851.085	22379
851.22	22090
851.355	22223
851.49	22055
851.625	22109
851.76	22135
851.895	22029
852.03	22105
852.165	22207
852.299	22051
852.434	22185
852.569	22150
852.703	22173
852.838	22120
852.973	22375
853.107	22253
853.242	22040
853.376	22006
853.511	21884
853.645	21808
853.78	22063
853.914	22006
854.048	21953
854.183	21762
854.317	22010
854.451	22097
854.585	21975
854.72	22044
854.854	21998
854.988	21899
855.122	22131
855.256	21918
855.39	21907
855.524	21987
855.658	21934
855.792	22048
855.926	22002
856.06	21972
856.194	22143
856.327	21968
856.461	21865
856.595	21987
856.729	21998
856.862	21975
856.996	22055
857.13	22002
857.263	22116
857.397	22025
857.53	21937
857.664	22082
857.797	21983
857.931	22101
858.064	22010
858.197	22051
858.331	21911
858.464	21869
858.597	21842
858.731	21785
858.864	21819
858.997	21888
859.13	21865
859.263	21930
859.396	22074
859.529	21945
859.662	21888
859.795	21975
859.928	21926
860.061	22029
860.194	22166
860.327	22090
860.46	21994
860.592	22002
860.725	22097
860.858	22120
860.99	21915
861.123	21861
861.256	21869
861.388	21964
861.521	22634
861.653	21823
861.786	21732
861.918	21854
862.05	21865
862.183	21835
862.315	21884
862.447	21823
862.58	21922
862.712	21766
862.844	21557
862.976	21709
863.108	21732
863.24	22158
863.372	21614
863.504	21705
863.636	21660
863.768	21652
863.9	21644
864.032	21637
864.164	21652
864.296	21755
864.428	21736
864.559	21610
864.691	21804
864.823	21766
864.954	21576
865.086	21660
865.217	21572
865.349	21473
865.48	21466
865.612	21485
865.743	21622
865.875	21519
866.006	21545
866.137	21542
866.269	21610
866.4	21523
866.531	21587
866.662	21405
866.793	21481
866.924	21568
867.055	21466
867.186	21496
867.317	21462
867.448	21515
867.579	21378
867.71	21367
867.841	21359
867.972	21443
868.103	21439
868.233	21416
868.364	21538
868.495	21561
868.625	21732
868.756	21770
868.886	21720
869.017	21561
869.147	21842
869.278	21903
869.408	21724
869.539	21739
869.669	21705
869.799	21759
869.929	21880
870.06	21899
870.19	22067
870.32	22017
870.45	22010
870.58	22131
870.71	22238
870.84	22192
870.97	22158
871.1	22112
871.23	22333
871.36	22314
871.489	22207
871.619	22272
871.749	22150
871.879	22280
872.008	22447
872.138	22325
872.267	22333
872.397	22207
872.526	22147
872.656	22196
872.785	22147
872.915	22333
873.044	22417
873.173	22375
873.303	22432
873.432	22329
873.561	22451
873.69	22398
873.819	22333
873.948	22352
874.077	22382
874.206	22356
874.335	22402
874.464	22557
874.593	22527
874.722	22584
874.851	22607
874.979	22546
875.108	22508
875.237	22561
875.365	22474
875.494	22577
875.623	22557
875.751	22481
875.88	22493
876.008	22702
876.136	22778
876.265	22816
876.393	23010
876.521	23029
876.65	23041
876.778	23064
876.906	23044
877.034	22740
877.162	22980
877.29	22980
877.418	22889
877.546	22908
877.674	22915
877.802	22961
877.93	22820
878.058	22938
878.185	22782
878.313	22778
878.441	22843
878.568	22634
878.696	22752
878.824	22961
878.951	22900
879.079	23105
879.206	23170
879.333	22915
879.461	22938
879.588	22999
879.715	23075
879.842	23258
879.97	22999
880.097	22740
880.224	22763
880.351	22824
880.478	22656
880.605	22710
880.732	22710
880.859	22915
880.986	22805
881.112	22740
881.239	22649
881.366	22386
881.493	22303
881.619	22329
881.746	22287
881.872	22413
881.999	22314
882.125	22314
882.252	22291
882.378	22253
882.505	22295
882.631	22147
882.757	21934
882.883	22025
883.01	22036
883.136	21895
883.262	21949
883.388	21800
883.514	21994
883.64	22070
883.766	21907
883.892	21732
884.018	21648
884.143	21785
884.269	21956
884.395	21732
884.52	21648
884.646	21663
884.772	21679
884.897	21393
885.023	21743
885.148	21667
885.274	21770
885.399	21739
885.524	21523
885.65	21682
885.775	21587
885.9	21477
886.025	21736
886.15	21637
886.275	21530
886.4	21587
886.525	21515
886.65	21530
886.775	21469
886.9	21644
887.025	21648
887.149	21606
887.274	21359
887.399	21348
887.523	21412
887.648	21226
887.773	21287
887.897	21393
888.021	21469
888.146	21317
888.27	21420
888.395	21329
888.519	21370
888.643	21420
888.767	21511
888.891	21340
889.015	21066
889.139	21207
889.263	21222
889.387	21192
889.511	21226
889.635	21272
889.759	21169
889.883	21074
890.006	21100
890.13	21100
890.254	21188
890.377	21180
890.501	20918
890.624	20944
890.748	20990
890.871	20735
890.995	20716
891.118	20686
891.241	20708
891.364	20754
891.488	20785
891.611	20682
891.734	20651
891.857	20754
891.98	20777
892.103	20708
892.226	20724
892.349	20621
892.471	20522
892.594	20613
892.717	20655
892.839	20640
892.962	20571
893.085	20659
893.207	20583
893.33	20377
893.452	20480
893.575	20720
893.697	20617
893.819	20765
893.941	20887
894.064	20708
894.186	20552
894.308	20476
894.43	20689
894.552	20686
894.674	20762
894.796	20499
894.918	20590
895.04	20663
895.161	20701
895.283	20598
895.405	20575
895.526	20461
895.648	20552
895.769	20598
895.891	20552
896.012	20674
896.134	20720
896.255	20579
896.376	20609
896.498	20644
896.619	20648
896.74	20575
896.861	20750
896.982	20948
897.103	21093
897.224	20937
897.345	20830
897.466	20697
897.587	20861
897.708	20975
897.828	20819
897.949	20758
898.07	20575
898.19	20712
898.311	20941
898.431	20796
898.552	20792
898.672	20845
898.792	20906
898.913	20804
899.033	20762
899.153	20594
899.273	20507
899.393	20640
899.513	20644
899.633	20484
899.753	20511
899.873	20473
899.993	20651
900.113	20590
900.232	20571
900.352	20518
900.472	20393
900.591	20317
900.711	20294
900.83	20431
900.95	20339
901.069	20389
901.189	20252
901.308	20115
901.427	19871
901.546	19913
901.665	19986
901.784	19875
901.904	19616
902.023	19666
902.141	19495
902.26	19491
902.379	19529
902.498	19419
902.617	19403
902.735	19438
902.854	19354
902.973	19335
903.091	19084
903.21	19050
903.328	19084
903.446	18886
903.565	18962
903.683	18970
903.801	18817
903.919	18897
904.038	18776
904.156	18635
904.274	18783
904.392	18692
904.51	18597
904.627	18597
904.745	18738
904.863	18654
904.981	18479
905.098	18266
905.216	18353
905.334	18338
905.451	18342
905.569	18285
905.686	18361
905.803	18342
905.921	18098
906.038	18281
906.155	18003
906.272	17996
906.389	18057
906.506	17889
906.623	17977
906.74	17790
906.857	17642
906.974	17737
907.091	17851
907.208	17878
907.324	17870
907.441	17760
907.557	17604
907.674	17657
907.79	17509
907.907	17482
908.023	17657
908.139	17596
908.256	17539
908.372	17532
908.488	17463
908.604	17250
908.72	17239
908.836	17277
908.952	17254
909.068	17254
909.184	17235
909.3	17318
909.415	17299
909.531	17220
909.647	17079
909.762	16949
909.878	16938
909.993	16965
910.108	16938
910.224	16854
910.339	16889
910.454	16961
910.57	16915
910.685	16805
910.8	17048
910.915	16961
911.03	16771
911.145	16626
911.259	16516
911.374	16500
911.489	16413
911.604	16325
911.718	16234
911.833	16322
911.947	16284
912.062	16166
912.176	16360
912.291	16185
912.405	16219
912.519	16474
912.633	16538
912.748	16398
912.862	16291
912.976	16143
913.09	16086
913.204	16112
913.318	16150
913.431	16166
913.545	16166
913.659	16131
913.772	15998
913.886	15892
914	15930
914.113	16090
914.226	15991
914.34	15953
914.453	15739
914.566	15972
914.68	15785
914.793	15766
914.906	15641
915.019	15473
915.132	15504
915.245	15420
915.358	15496
915.47	15485
915.583	15477
915.696	15496
915.809	15633
915.921	15637
916.034	15405
916.146	15329
916.259	15389
916.371	15507
916.483	15530
916.595	15439
916.708	15321
916.82	15313
916.932	15306
917.044	15329
917.156	15169
917.268	15123
917.38	15157
917.491	15169
917.603	15074
917.715	15169
917.826	15222
917.938	15085
918.049	14967
918.161	15074
918.272	15214
918.384	15161
918.495	15062
918.606	14967
918.717	14823
918.828	14929
918.939	15017
919.05	14727
919.161	14815
919.272	14678
919.383	14705
919.494	14952
919.604	15013
919.715	14864
919.826	14819
919.936	14788
920.047	14998
920.157	14914
920.267	15043
920.378	14849
920.488	14758
920.598	14921
920.708	15108
920.818	14910
920.928	15047
921.038	15195
921.148	15058
921.258	14819
921.368	14705
921.477	14621
921.587	14507
921.697	14473
921.806	14541
921.916	14400
922.025	14210
922.134	14206
922.244	14191
922.353	14244
922.462	14050
922.571	14005
922.68	13826
922.789	13879
922.898	13925
923.007	13734
923.116	13883
923.224	13868
923.333	13803
923.442	13750
923.55	13674
923.659	13704
923.767	13799
923.876	13674
923.984	13746
924.092	13556
924.201	13670
924.309	13647
924.417	13632
924.525	13502
924.633	13525
924.741	14298
924.849	13377
924.956	13411
925.064	13255
925.172	13244
925.279	13289
925.387	13259
925.494	13278
925.602	13419
925.709	13335
925.816	13240
925.924	13247
926.031	13270
926.138	13145
926.245	13255
926.352	13069
926.459	13304
926.566	13301
926.673	13206
926.779	12958
926.886	13015
926.993	12882
927.099	12856
927.206	12745
927.312	12833
927.419	12867
927.525	12878
927.631	12810
927.737	12707
927.843	12764
927.95	12578
928.056	12669
928.162	12658
928.267	12684
928.373	13297
928.479	12776
928.585	12544
928.69	12646
928.796	12711
928.901	12570
929.007	12513
929.112	12540
929.218	12475
929.323	12426
929.428	12350
929.533	12566
929.638	12292
929.743	12342
929.848	12372
929.953	12357
930.058	12228
930.163	12019
930.267	12114
930.372	12216
930.477	12053
930.581	12277
930.685	12110
930.79	11961
930.894	12007
930.998	11889
931.103	12049
931.207	11695
931.311	11551
931.415	11596
931.519	11391
931.623	11341
