Data from test_V78500241_461.txt Node
Date: Fri Mar 25 15:44:59 CST 2022
User: usil
Spectrometer: V785-0024
Trigger mode: 0
Integration Time (sec): 4.000000E-1
Scans to average: 1
Nonlinearity correction enabled: false
Boxcar width: 0
Storing dark spectrum: false
XAxis mode: Wavelengths
Number of Pixels in Spectrum: 1024
>>>>>Begin Spectral Data<<<<<
801.071	27542
801.214	27515
801.356	27321
801.499	27374
801.641	27055
801.783	27211
801.926	27294
802.068	27093
802.211	26994
802.353	26906
802.496	26765
802.638	26750
802.78	26914
802.923	26769
803.065	26762
803.208	26849
803.35	26739
803.492	26937
803.635	26750
803.777	26735
803.919	26918
804.061	27032
804.204	26986
804.346	26800
804.488	26762
804.63	26906
804.773	26925
804.915	26937
805.057	27024
805.199	26906
805.341	27024
805.483	27123
805.626	26956
805.768	26975
805.91	27020
806.052	27142
806.194	27074
806.336	27351
806.478	27116
806.62	27028
806.762	27218
806.904	27363
807.046	27526
807.188	27420
807.33	27401
807.472	27591
807.614	27553
807.756	27431
807.898	27306
808.04	27214
808.182	27249
808.324	27348
808.465	27089
808.607	27504
808.749	27606
808.891	27816
809.033	27880
809.174	27660
809.316	27690
809.458	27698
809.6	27671
809.741	27895
809.883	27941
810.025	27857
810.166	27873
810.308	27907
810.45	27945
810.591	27838
810.733	27667
810.875	27500
811.016	27603
811.158	27603
811.299	27701
811.441	27861
811.582	27835
811.724	27644
811.865	27561
812.007	27694
812.148	27682
812.29	27660
812.431	27934
812.573	27991
812.714	28109
812.855	28223
812.997	28455
813.138	28459
813.279	28337
813.421	28158
813.562	28230
813.703	28017
813.845	27770
813.986	27439
814.127	27348
814.268	27252
814.41	27355
814.551	27268
814.692	27275
814.833	27199
814.974	27382
815.115	27275
815.256	27123
815.397	27306
815.539	27420
815.68	27176
815.821	26937
815.962	27222
816.103	27138
816.244	26895
816.385	26891
816.526	26792
816.666	26670
816.807	26583
816.948	26720
817.089	26697
817.23	26621
817.371	26575
817.512	26518
817.653	26678
817.793	26533
817.934	26697
818.075	26697
818.216	26564
818.356	26518
818.497	26389
818.638	26320
818.778	26362
818.919	26396
819.06	26442
819.2	26431
819.341	26480
819.481	26571
819.622	26731
819.762	26960
819.903	26796
820.043	26750
820.184	26636
820.324	26651
820.465	26815
820.605	26701
820.746	26689
820.886	26598
821.026	26682
821.167	26495
821.307	26735
821.447	26617
821.588	26632
821.728	26495
821.868	26282
822.008	26065
822.149	25951
822.289	26077
822.429	25852
822.569	25807
822.709	25807
822.849	25521
822.99	25548
823.13	25575
823.27	25438
823.41	25346
823.55	25129
823.69	25331
823.83	25343
823.97	25297
824.11	25244
824.25	25164
824.389	25270
824.529	25316
824.669	25171
824.809	25217
824.949	25285
825.089	25266
825.228	25285
825.368	25031
825.508	25031
825.648	25202
825.787	25084
825.927	24920
826.067	25088
826.206	25046
826.346	25038
826.485	25114
826.625	24996
826.765	25168
826.904	25050
827.044	24760
827.183	24840
827.323	24620
827.462	24779
827.601	24779
827.741	24608
827.88	24574
828.02	24574
828.159	24627
828.298	24768
828.437	24738
828.577	24669
828.716	24719
828.855	24779
828.994	24460
829.134	24433
829.273	24525
829.412	24441
829.551	24353
829.69	24521
829.829	24509
829.968	24505
830.107	24319
830.246	24551
830.385	24365
830.524	24232
830.663	24277
830.802	24110
830.941	23996
831.08	24022
831.219	24133
831.357	24155
831.496	24232
831.635	24011
831.774	23939
831.913	24018
832.051	23882
832.19	23783
832.329	23866
832.467	23684
832.606	23604
832.744	23619
832.883	23699
833.022	23687
833.16	23729
833.299	23863
833.437	23794
833.576	23756
833.714	23832
833.852	23764
833.991	23843
834.129	23863
834.267	23745
834.406	23726
834.544	23851
834.682	23699
834.821	23672
834.959	23874
835.097	23729
835.235	23904
835.373	23794
835.511	23840
835.65	23547
835.788	23505
835.926	23524
836.064	23402
836.202	23433
836.34	23543
836.478	23543
836.615	23562
836.753	23653
836.891	23729
837.029	23562
837.167	23558
837.305	23581
837.443	23395
837.58	23509
837.718	23493
837.856	23433
837.993	23383
838.131	23341
838.269	23296
838.406	23429
838.544	23250
838.681	23178
838.819	23155
838.956	22904
839.094	22942
839.231	22976
839.369	23124
839.506	23288
839.643	23102
839.781	22816
839.918	22839
840.055	22927
840.193	22866
840.33	22812
840.467	22892
840.604	22984
840.742	23140
840.879	22721
841.016	22900
841.153	22611
841.29	22961
841.427	22782
841.564	22881
841.701	22805
841.838	22858
841.975	22805
842.112	22649
842.249	22603
842.385	22603
842.522	22759
842.659	22694
842.796	22592
842.933	22615
843.069	22489
843.206	22485
843.343	22672
843.479	22622
843.616	22607
843.752	22405
843.889	22306
844.025	22478
844.162	22299
844.298	22409
844.435	22455
844.571	22234
844.708	22375
844.844	22470
844.98	22542
845.117	22405
845.253	22242
845.389	22219
845.525	22219
845.661	22261
845.798	22040
845.934	22128
846.07	21998
846.206	22154
846.342	22207
846.478	22029
846.614	21926
846.75	21759
846.886	21785
847.022	21770
847.158	21892
847.294	21774
847.429	21876
847.565	21823
847.701	22029
847.837	21568
847.972	21481
848.108	21618
848.244	21549
848.379	21481
848.515	21488
848.65	21348
848.786	21260
848.921	21408
849.057	21557
849.192	21408
849.328	21386
849.463	21370
849.598	21279
849.734	21237
849.869	21184
850.004	21108
850.14	21180
850.275	21146
850.41	21165
850.545	21074
850.68	21123
850.815	21081
850.95	21272
851.085	21351
851.22	21226
851.355	21135
851.49	21093
851.625	21127
851.76	21081
851.895	21017
852.03	21176
852.165	21192
852.299	21127
852.434	21203
852.569	21230
852.703	21252
852.838	21154
852.973	21416
853.107	21298
853.242	20998
853.376	21089
853.511	20857
853.645	20963
853.78	21131
853.914	21116
854.048	21001
854.183	20864
854.317	20971
854.451	21218
854.585	21024
854.72	21036
854.854	21051
854.988	20868
855.122	21039
855.256	20842
855.39	20971
855.524	20921
855.658	21077
855.792	20986
855.926	21081
856.06	20994
856.194	21138
856.327	21009
856.461	20918
856.595	20998
856.729	20986
856.862	21112
856.996	20998
857.13	20967
857.263	21142
857.397	21039
857.53	20941
857.664	20982
857.797	20990
857.931	21154
858.064	21127
858.197	21165
858.331	20948
858.464	20883
858.597	20880
858.731	20986
858.864	20944
858.997	21001
859.13	20960
859.263	21039
859.396	21058
859.529	21085
859.662	20971
859.795	21070
859.928	21013
860.061	21024
860.194	21260
860.327	21013
860.46	21039
860.592	21096
860.725	21116
860.858	21085
860.99	20982
861.123	20887
861.256	20819
861.388	21017
861.521	21519
861.653	20804
861.786	20815
861.918	20762
862.05	21013
862.183	20842
862.315	20979
862.447	20990
862.58	20868
862.712	20705
862.844	20655
862.976	20743
863.108	20796
863.24	21233
863.372	20632
863.504	20731
863.636	20640
863.768	20815
863.9	20769
864.032	20556
864.164	20667
864.296	20701
864.428	20781
864.559	20724
864.691	20727
864.823	20746
864.954	20636
865.086	20575
865.217	20606
865.349	20446
865.48	20632
865.612	20686
865.743	20727
865.875	20606
866.006	20545
866.137	20659
866.269	20602
866.4	20549
866.531	20636
866.662	20579
866.793	20431
866.924	20526
867.055	20640
867.186	20522
867.317	20457
867.448	20457
867.579	20495
867.71	20393
867.841	20313
867.972	20579
868.103	20488
868.233	20545
868.364	20507
868.495	20590
868.625	20876
868.756	20678
868.886	20689
869.017	20941
869.147	20823
869.278	20880
869.408	20796
869.539	20857
869.669	20762
869.799	20750
869.929	20887
870.06	20864
870.19	21184
870.32	21047
870.45	21074
870.58	21260
870.71	21256
870.84	21260
870.97	21131
871.1	21180
871.23	21310
871.36	21447
871.489	21287
871.619	21340
871.749	21279
871.879	21367
872.008	21447
872.138	21530
872.267	21325
872.397	21237
872.526	21211
872.656	21245
872.785	21214
872.915	21393
873.044	21466
873.173	21348
873.303	21428
873.432	21473
873.561	21477
873.69	21237
873.819	21431
873.948	21538
874.077	21492
874.206	21420
874.335	21458
874.464	21538
874.593	21698
874.722	21603
874.851	21629
874.979	21656
875.108	21789
875.237	21637
875.365	21534
875.494	21542
875.623	21720
875.751	21519
875.88	21701
876.008	21709
876.136	21911
876.265	22032
876.393	22238
876.521	22044
876.65	22086
876.778	22150
876.906	22067
877.034	21903
877.162	22074
877.29	22044
877.418	22086
877.546	22097
877.674	21953
877.802	22010
877.93	21956
878.058	21998
878.185	21854
878.313	21975
878.441	22010
878.568	21751
878.696	21911
878.824	22029
878.951	22082
879.079	22223
879.206	22234
879.333	22166
879.461	22101
879.588	22128
879.715	22215
879.842	22333
879.97	22158
880.097	21785
880.224	21804
880.351	21831
880.478	21812
880.605	21739
880.732	21854
880.859	22112
880.986	21899
881.112	21888
881.239	21622
881.366	21580
881.493	21500
881.619	21351
881.746	21488
881.872	21393
881.999	21393
882.125	21336
882.252	21496
882.378	21416
882.505	21542
882.631	21294
882.757	21184
882.883	21199
883.01	21017
883.136	21005
883.262	21001
883.388	20937
883.514	21066
883.64	21104
883.766	20990
883.892	20975
884.018	20937
884.143	21039
884.269	21211
884.395	20853
884.52	20762
884.646	20823
884.772	20609
884.897	20632
885.023	20682
885.148	20800
885.274	21028
885.399	20834
885.524	20746
885.65	20815
885.775	20807
885.9	20739
886.025	20781
886.15	20762
886.275	20682
886.4	20670
886.525	20785
886.65	20743
886.775	20750
886.9	20743
887.025	20906
887.149	20788
887.274	20583
887.399	20556
887.523	20503
887.648	20355
887.773	20423
887.897	20594
888.021	20560
888.146	20400
888.27	20686
888.395	20533
888.519	20636
888.643	20556
888.767	20632
888.891	20438
889.015	20358
889.139	20423
889.263	20282
889.387	20533
889.511	20575
889.635	20495
889.759	20271
889.883	20434
890.006	20282
890.13	20400
890.254	20351
890.377	20324
890.501	20145
890.624	20077
890.748	20183
890.871	20020
890.995	19947
891.118	19849
891.241	19887
891.364	19974
891.488	20138
891.611	19951
891.734	19875
891.857	20020
891.98	19913
892.103	19951
892.226	19932
892.349	19875
892.471	19784
892.594	19795
892.717	19940
892.839	19788
892.962	19879
893.085	19902
893.207	19708
893.33	19727
893.452	19715
893.575	19799
893.697	19693
893.819	20031
893.941	20088
894.064	20031
894.186	19826
894.308	19704
894.43	19906
894.552	19993
894.674	19936
894.796	19761
894.918	19814
895.04	19807
895.161	19906
895.283	19955
895.405	19830
895.526	19780
895.648	19799
895.769	19860
895.891	19879
896.012	19849
896.134	19921
896.255	19917
896.376	19803
896.498	19795
896.619	19894
896.74	19830
896.861	19932
896.982	20050
897.103	20248
897.224	20062
897.345	20035
897.466	20027
897.587	20073
897.708	20088
897.828	20008
897.949	20035
898.07	19795
898.19	19986
898.311	20111
898.431	19993
898.552	20050
898.672	20096
898.792	20115
898.913	20054
899.033	19997
899.153	19868
899.273	19613
899.393	19780
899.513	19814
899.633	19833
899.753	19757
899.873	19765
899.993	19845
900.113	19776
900.232	19818
900.352	19757
900.472	19784
900.591	19571
900.711	19651
900.83	19457
900.95	19537
901.069	19635
901.189	19434
901.308	19320
901.427	19179
901.546	19251
901.665	19110
901.784	19285
901.904	19145
902.023	19012
902.141	18696
902.26	18776
902.379	18719
902.498	18741
902.617	18802
902.735	18684
902.854	18688
902.973	18506
903.091	18273
903.21	18384
903.328	18338
903.446	18281
903.565	18148
903.683	18243
903.801	18003
903.919	18125
904.038	18064
904.156	17988
904.274	17973
904.392	17920
904.51	17882
904.627	17920
904.745	17935
904.863	18087
904.981	17760
905.098	17634
905.216	17661
905.334	17665
905.451	17691
905.569	17627
905.686	17630
905.803	17600
905.921	17414
906.038	17585
906.155	17284
906.272	17330
906.389	17345
906.506	17185
906.623	17159
906.74	17223
906.857	16991
906.974	17098
907.091	17258
907.208	17353
907.324	17227
907.441	17006
907.557	16847
907.674	16900
907.79	16824
907.907	16824
908.023	16889
908.139	16908
908.256	16797
908.372	16831
908.488	16767
908.604	16607
908.72	16481
908.836	16542
908.952	16573
909.068	16687
909.184	16748
909.3	16615
909.415	16546
909.531	16634
909.647	16341
909.762	16322
909.878	16173
909.993	16356
910.108	16284
910.224	16284
910.339	16329
910.454	16128
910.57	16131
910.685	16082
910.8	16291
910.915	16276
911.03	16040
911.145	15960
911.259	15907
911.374	15911
911.489	15937
911.604	15865
911.718	15622
911.833	15603
911.947	15431
912.062	15545
912.176	15644
912.291	15557
912.405	15686
912.519	15857
912.633	15823
912.748	15663
912.862	15587
912.976	15428
913.09	15378
913.204	15458
913.318	15397
913.431	15561
913.545	15469
913.659	15595
913.772	15488
913.886	15348
914	15214
914.113	15310
914.226	15412
914.34	15275
914.453	15081
914.566	15294
914.68	15154
914.793	15100
914.906	14895
915.019	14838
915.132	14914
915.245	14899
915.358	14952
915.47	14883
915.583	14960
915.696	14910
915.809	14956
915.921	15100
916.034	14834
916.146	14769
916.259	14857
916.371	14819
916.483	14929
916.595	14667
916.708	14697
916.82	14712
916.932	14739
917.044	14625
917.156	14556
917.268	14499
917.38	14598
917.491	14587
917.603	14511
917.715	14693
917.826	14670
917.938	14461
918.049	14374
918.161	14484
918.272	14678
918.384	14594
918.495	14476
918.606	14317
918.717	14221
918.828	14328
918.939	14343
919.05	14244
919.161	14294
919.272	14031
919.383	14081
919.494	14282
919.604	14408
919.715	14313
919.826	14202
919.936	14259
920.047	14305
920.157	14286
920.267	14480
920.378	14206
920.488	14199
920.598	14461
920.708	14594
920.818	14339
920.928	14438
921.038	14579
921.148	14484
921.258	14244
921.368	14134
921.477	14084
921.587	14020
921.697	13936
921.806	14039
921.916	13887
922.025	13708
922.134	13613
922.244	13594
922.353	13799
922.462	13518
922.571	13590
922.68	13358
922.789	13308
922.898	13244
923.007	13274
923.116	13381
923.224	13335
923.333	13217
923.442	13179
923.55	13114
923.659	13190
923.767	13084
923.876	13080
923.984	13194
924.092	12970
924.201	13084
924.309	13004
924.417	12985
924.525	12867
924.633	12962
924.741	13670
924.849	12764
924.956	12882
925.064	12749
925.172	12688
925.279	12692
925.387	12810
925.494	12707
925.602	12909
925.709	12692
925.816	12715
925.924	12669
926.031	12806
926.138	12654
926.245	12650
926.352	12700
926.459	12783
926.566	12749
926.673	12612
926.779	12547
926.886	12445
926.993	12281
927.099	12254
927.206	12273
927.312	12171
927.419	12369
927.525	12277
927.631	12270
927.737	12163
927.843	12182
927.95	12121
928.056	12091
928.162	12171
928.267	12239
928.373	12730
928.479	12125
928.585	12003
928.69	12102
928.796	12121
928.901	12038
929.007	11916
929.112	12030
929.218	11904
929.323	11954
929.428	11813
929.533	12015
929.638	11878
929.743	11817
929.848	11817
929.953	11809
930.058	11710
930.163	11570
930.267	11623
930.372	11752
930.477	11535
930.581	11775
930.685	11672
930.79	11486
930.894	11459
930.998	11395
931.103	11604
931.207	11201
931.311	11155
931.415	11029
931.519	10869
931.623	10828
