Data from test_V78500241_722.txt Node
Date: Fri Mar 25 15:46:48 CST 2022
User: usil
Spectrometer: V785-0024
Trigger mode: 0
Integration Time (sec): 4.000000E-1
Scans to average: 1
Nonlinearity correction enabled: false
Boxcar width: 0
Storing dark spectrum: false
XAxis mode: Wavelengths
Number of Pixels in Spectrum: 1024
>>>>>Begin Spectral Data<<<<<
801.071	27435
801.214	27344
801.356	27169
801.499	27138
801.641	26880
801.783	26914
801.926	27070
802.068	26925
802.211	26975
802.353	26864
802.496	26564
802.638	26678
802.78	26651
802.923	26697
803.065	26549
803.208	26678
803.35	26583
803.492	26686
803.635	26849
803.777	26651
803.919	26830
804.061	27272
804.204	26902
804.346	26838
804.488	26785
804.63	26830
804.773	26606
804.915	26773
805.057	26933
805.199	26895
805.341	26979
805.483	26975
805.626	26937
805.768	26815
805.91	27043
806.052	26887
806.194	26785
806.336	27138
806.478	26940
806.62	26986
806.762	27119
806.904	27112
807.046	27485
807.188	27405
807.33	27466
807.472	27466
807.614	27268
807.756	27226
807.898	27237
808.04	27192
808.182	27222
808.324	27108
808.465	27161
808.607	27504
808.749	27564
808.891	27694
809.033	27846
809.174	27595
809.316	27606
809.458	27572
809.6	27564
809.741	27713
809.883	27789
810.025	27838
810.166	27941
810.308	27732
810.45	27861
810.591	27637
810.733	27538
810.875	27344
811.016	27458
811.158	27542
811.299	27728
811.441	27823
811.582	27656
811.724	27568
811.865	27557
812.007	27595
812.148	27701
812.29	27671
812.431	27739
812.573	27903
812.714	27972
812.855	28051
812.997	28086
813.138	28390
813.279	28162
813.421	28101
813.562	27907
813.703	27983
813.845	27720
813.986	27564
814.127	27321
814.268	27310
814.41	27412
814.551	27138
814.692	27294
814.833	27116
814.974	27272
815.115	27226
815.256	27089
815.397	27142
815.539	26998
815.68	27283
815.821	26952
815.962	27036
816.103	26960
816.244	27055
816.385	26823
816.526	26777
816.666	26655
816.807	26530
816.948	26431
817.089	26587
817.23	26667
817.371	26488
817.512	26651
817.653	26590
817.793	26377
817.934	26583
818.075	26499
818.216	26549
818.356	26408
818.497	26450
818.638	26256
818.778	26259
818.919	26259
819.06	26317
819.2	26370
819.341	26522
819.481	26507
819.622	26552
819.762	26887
819.903	26777
820.043	26632
820.184	26575
820.324	26602
820.465	26659
820.605	26640
820.746	26583
820.886	26393
821.026	26545
821.167	26533
821.307	26689
821.447	26590
821.588	26423
821.728	26298
821.868	26145
822.008	25913
822.149	26046
822.289	26058
822.429	25788
822.569	25700
822.709	25727
822.849	25491
822.99	25445
823.13	25510
823.27	25396
823.41	25510
823.55	25228
823.69	25373
823.83	25297
823.97	25274
824.11	25110
824.25	25076
824.389	25179
824.529	25156
824.669	25050
824.809	25259
824.949	25240
825.089	25255
825.228	25259
825.368	24943
825.508	24958
825.648	25023
825.787	25126
825.927	24954
826.067	24981
826.206	24996
826.346	25084
826.485	25015
826.625	25019
826.765	25183
826.904	25088
827.044	24970
827.183	24798
827.323	24627
827.462	24852
827.601	24757
827.741	24669
827.88	24730
828.02	24525
828.159	24665
828.298	24711
828.437	24719
828.577	24490
828.716	24726
828.855	24635
828.994	24414
829.134	24281
829.273	24380
829.412	24247
829.551	24308
829.69	24330
829.829	24452
829.968	24471
830.107	24494
830.246	24486
830.385	24197
830.524	24384
830.663	24159
830.802	24152
830.941	24053
831.08	23946
831.219	24079
831.357	24140
831.496	24232
831.635	23897
831.774	23935
831.913	23920
832.051	23794
832.19	23828
832.329	23946
832.467	23676
832.606	23672
832.744	23634
832.883	23615
833.022	23684
833.16	23608
833.299	23642
833.437	23691
833.576	23741
833.714	23722
833.852	23710
833.991	23824
834.129	23741
834.267	23783
834.406	23707
834.544	23764
834.682	23665
834.821	23646
834.959	23908
835.097	23657
835.235	23889
835.373	23611
835.511	23764
835.65	23691
835.788	23585
835.926	23455
836.064	23254
836.202	23486
836.34	23551
836.478	23794
836.615	23608
836.753	23581
836.891	23676
837.029	23539
837.167	23467
837.305	23486
837.443	23474
837.58	23455
837.718	23509
837.856	23296
837.993	23444
838.131	23398
838.269	23239
838.406	23345
838.544	23307
838.681	23090
838.819	23178
838.956	22892
839.094	22862
839.231	22995
839.369	22984
839.506	23265
839.643	23140
839.781	22908
839.918	22793
840.055	22923
840.193	22820
840.33	22847
840.467	22748
840.604	22824
840.742	23083
840.879	22713
841.016	22854
841.153	22675
841.29	22843
841.427	22850
841.564	22733
841.701	22740
841.838	22759
841.975	22691
842.112	22752
842.249	22584
842.385	22542
842.522	22824
842.659	22474
842.796	22402
842.933	22653
843.069	22561
843.206	22470
843.343	22557
843.479	22565
843.616	22451
843.752	22242
843.889	22299
844.025	22470
844.162	22363
844.298	22413
844.435	22360
844.571	22230
844.708	22390
844.844	22432
844.98	22577
845.117	22478
845.253	22200
845.389	22325
845.525	22242
845.661	22128
845.798	22135
845.934	22234
846.07	21945
846.206	22158
846.342	22162
846.478	22013
846.614	21895
846.75	21835
846.886	21842
847.022	21762
847.158	22006
847.294	21846
847.429	21797
847.565	21766
847.701	22059
847.837	21553
847.972	21618
848.108	21698
848.244	21652
848.379	21488
848.515	21363
848.65	21397
848.786	21416
848.921	21469
849.057	21530
849.192	21511
849.328	21374
849.463	21408
849.598	21397
849.734	21287
849.869	21408
850.004	21108
850.14	21169
850.275	21214
850.41	21119
850.545	21085
850.68	21180
850.815	21173
850.95	21157
851.085	21355
851.22	21272
851.355	21150
851.49	21142
851.625	21165
851.76	21142
851.895	21108
852.03	21131
852.165	21085
852.299	21157
852.434	21310
852.569	21249
852.703	21146
852.838	21264
852.973	21184
853.107	21169
853.242	21146
853.376	21017
853.511	20765
853.645	20807
853.78	20971
853.914	21020
854.048	21001
854.183	20979
854.317	21024
854.451	21085
854.585	20944
854.72	20956
854.854	21039
854.988	20998
855.122	21020
855.256	20887
855.39	20891
855.524	21104
855.658	21039
855.792	21043
855.926	21116
856.06	20948
856.194	21055
856.327	21070
856.461	21005
856.595	20921
856.729	21032
856.862	21127
856.996	21047
857.13	20994
857.263	21146
857.397	21108
857.53	21047
857.664	21028
857.797	21066
857.931	21096
858.064	20925
858.197	21184
858.331	21077
858.464	20929
858.597	20693
858.731	20956
858.864	21028
858.997	21017
859.13	20941
859.263	21001
859.396	21192
859.529	21032
859.662	20880
859.795	20948
859.928	21062
860.061	21062
860.194	21100
860.327	21081
860.46	21013
860.592	21154
860.725	21081
860.858	21211
860.99	20948
861.123	20979
861.256	20952
861.388	21062
861.521	21622
861.653	20834
861.786	20781
861.918	20838
862.05	20853
862.183	20979
862.315	21036
862.447	20975
862.58	20982
862.712	20739
862.844	20762
862.976	20921
863.108	20731
863.24	21264
863.372	20583
863.504	20667
863.636	20746
863.768	20708
863.9	20697
864.032	20663
864.164	20629
864.296	20758
864.428	20902
864.559	20785
864.691	20937
864.823	20758
864.954	20762
865.086	20697
865.217	20545
865.349	20537
865.48	20701
865.612	20651
865.743	20785
865.875	20777
866.006	20629
866.137	20613
866.269	20636
866.4	20606
866.531	20629
866.662	20457
866.793	20587
866.924	20587
867.055	20632
867.186	20522
867.317	20469
867.448	20434
867.579	20670
867.71	20549
867.841	20461
867.972	20670
868.103	20560
868.233	20579
868.364	20549
868.495	20697
868.625	20743
868.756	20785
868.886	20762
869.017	20830
869.147	20849
869.278	20830
869.408	20914
869.539	20754
869.669	20960
869.799	20967
869.929	20963
870.06	20864
870.19	21043
870.32	20994
870.45	21127
870.58	21313
870.71	21359
870.84	21317
870.97	21264
871.1	21226
871.23	21348
871.36	21488
871.489	21408
871.619	21386
871.749	21386
871.879	21351
872.008	21542
872.138	21481
872.267	21367
872.397	21389
872.526	21180
872.656	21306
872.785	21161
872.915	21481
873.044	21515
873.173	21317
873.303	21481
873.432	21416
873.561	21511
873.69	21374
873.819	21450
873.948	21431
874.077	21431
874.206	21386
874.335	21515
874.464	21485
874.593	21580
874.722	21580
874.851	21736
874.979	21774
875.108	21759
875.237	21519
875.365	21629
875.494	21701
875.623	21747
875.751	21675
875.88	21728
876.008	21774
876.136	21854
876.265	21975
876.393	22196
876.521	22143
876.65	22200
876.778	22097
876.906	21964
877.034	22006
877.162	22021
877.29	21937
877.418	22010
877.546	22013
877.674	22055
877.802	22025
877.93	22021
878.058	22032
878.185	21895
878.313	22010
878.441	22048
878.568	21934
878.696	21983
878.824	22017
878.951	22078
879.079	22188
879.206	22287
879.333	22223
879.461	22078
879.588	22101
879.715	22166
879.842	22303
879.97	22207
880.097	21804
880.224	21789
880.351	22017
880.478	21789
880.605	21781
880.732	21899
880.859	22078
880.986	21838
881.112	21755
881.239	21660
881.366	21603
881.493	21576
881.619	21428
881.746	21439
881.872	21336
881.999	21408
882.125	21291
882.252	21428
882.378	21447
882.505	21454
882.631	21150
882.757	21043
882.883	21222
883.01	21154
883.136	21104
883.262	21093
883.388	21039
883.514	21165
883.64	21165
883.766	21039
883.892	20960
884.018	21020
884.143	21005
884.269	21135
884.395	20781
884.52	20823
884.646	20804
884.772	20724
884.897	20583
885.023	20708
885.148	20864
885.274	20842
885.399	20819
885.524	20826
885.65	20788
885.775	20769
885.9	20800
886.025	20777
886.15	20834
886.275	20777
886.4	20621
886.525	20727
886.65	20670
886.775	20606
886.9	20788
887.025	20921
887.149	20644
887.274	20659
887.399	20454
887.523	20511
887.648	20419
887.773	20480
887.897	20663
888.021	20689
888.146	20446
888.27	20590
888.395	20590
888.519	20571
888.643	20549
888.767	20613
888.891	20530
889.015	20408
889.139	20366
889.263	20294
889.387	20450
889.511	20537
889.635	20530
889.759	20309
889.883	20317
890.006	20301
890.13	20404
890.254	20324
890.377	20256
890.501	20130
890.624	20138
890.748	20103
890.871	20005
890.995	19841
891.118	19731
891.241	19917
891.364	19890
891.488	20073
891.611	19898
891.734	19879
891.857	19925
891.98	19883
892.103	19868
892.226	19875
892.349	19791
892.471	19791
892.594	19841
892.717	19799
892.839	19879
892.962	19818
893.085	19963
893.207	19909
893.33	19776
893.452	19807
893.575	19826
893.697	19772
893.819	20020
893.941	20039
894.064	19970
894.186	19734
894.308	19765
894.43	19906
894.552	19849
894.674	19879
894.796	19715
894.918	19780
895.04	19769
895.161	19906
895.283	19917
895.405	19791
895.526	19803
895.648	19772
895.769	19883
895.891	19932
896.012	19887
896.134	19921
896.255	19982
896.376	19814
896.498	19902
896.619	19967
896.74	19814
896.861	19913
896.982	20073
897.103	20256
897.224	20100
897.345	20035
897.466	19944
897.587	19963
897.708	20301
897.828	20050
897.949	20084
898.07	19883
898.19	20008
898.311	20107
898.431	20039
898.552	20081
898.672	20081
898.792	20317
898.913	20001
899.033	19921
899.153	19982
899.273	19750
899.393	19849
899.513	19814
899.633	19807
899.753	19913
899.873	19647
899.993	19909
900.113	19712
900.232	19693
900.352	19765
900.472	19818
900.591	19563
900.711	19670
900.83	19594
900.95	19571
901.069	19616
901.189	19544
901.308	19304
901.427	19183
901.546	19228
901.665	19232
901.784	19118
901.904	19152
902.023	18996
902.141	18741
902.26	18783
902.379	18795
902.498	18810
902.617	18715
902.735	18848
902.854	18734
902.973	18681
903.091	18289
903.21	18365
903.328	18441
903.446	18330
903.565	18087
903.683	18273
903.801	18015
903.919	18129
904.038	18060
904.156	17999
904.274	18064
904.392	17931
904.51	17973
904.627	17912
904.745	17939
904.863	17946
904.981	17672
905.098	17687
905.216	17676
905.334	17596
905.451	17604
905.569	17638
905.686	17619
905.803	17608
905.921	17379
906.038	17558
906.155	17417
906.272	17341
906.389	17387
906.506	17136
906.623	17185
906.74	17136
906.857	17029
906.974	17136
907.091	17181
907.208	17220
907.324	17094
907.441	17098
907.557	16889
907.674	16812
907.79	16812
907.907	16725
908.023	16900
908.139	16831
908.256	16755
908.372	16816
908.488	16740
908.604	16698
908.72	16603
908.836	16538
908.952	16603
909.068	16546
909.184	16641
909.3	16759
909.415	16721
909.531	16596
909.647	16398
909.762	16318
909.878	16303
909.993	16348
910.108	16287
910.224	16200
910.339	16322
910.454	16242
910.57	16120
910.685	16032
910.8	16337
910.915	16249
911.03	16055
911.145	15953
911.259	15857
911.374	15869
911.489	15778
911.604	15667
911.718	15629
911.833	15648
911.947	15507
912.062	15485
912.176	15717
912.291	15656
912.405	15660
912.519	15793
912.633	15842
912.748	15705
912.862	15553
912.976	15481
913.09	15401
913.204	15511
913.318	15435
913.431	15660
913.545	15523
913.659	15648
913.772	15264
913.886	15272
914	15252
914.113	15355
914.226	15321
914.34	15264
914.453	15176
914.566	15233
914.68	15180
914.793	15131
914.906	14834
915.019	14986
915.132	14929
915.245	14826
915.358	14887
915.47	14872
915.583	14925
915.696	14948
915.809	15062
915.921	15085
916.034	14811
916.146	14785
916.259	14819
916.371	14853
916.483	14804
916.595	14655
916.708	14716
916.82	14758
916.932	14701
917.044	14727
917.156	14579
917.268	14560
917.38	14526
917.491	14564
917.603	14617
917.715	14613
917.826	14705
917.938	14587
918.049	14396
918.161	14457
918.272	14640
918.384	14606
918.495	14408
918.606	14328
918.717	14317
918.828	14332
918.939	14404
919.05	14157
919.161	14263
919.272	14138
919.383	14256
919.494	14400
919.604	14454
919.715	14278
919.826	14183
919.936	14259
920.047	14347
920.157	14332
920.267	14492
920.378	14290
920.488	14328
920.598	14454
920.708	14621
920.818	14454
920.928	14396
921.038	14594
921.148	14518
921.258	14320
921.368	14103
921.477	14054
921.587	14050
921.697	13906
921.806	14062
921.916	13875
922.025	13791
922.134	13681
922.244	13677
922.353	13700
922.462	13518
922.571	13502
922.68	13362
922.789	13396
922.898	13259
923.007	13259
923.116	13369
923.224	13244
923.333	13251
923.442	13160
923.55	13190
923.659	13247
923.767	13175
923.876	13099
923.984	13168
924.092	13031
924.201	13103
924.309	13118
924.417	12970
924.525	12985
924.633	12913
924.741	13898
924.849	12821
924.956	12973
925.064	12814
925.172	12673
925.279	12662
925.387	12730
925.494	12684
925.602	12878
925.709	12806
925.816	12734
925.924	12654
926.031	12776
926.138	12703
926.245	12783
926.352	12650
926.459	12692
926.566	12764
926.673	12658
926.779	12490
926.886	12486
926.993	12372
927.099	12315
927.206	12224
927.312	12228
927.419	12334
927.525	12308
927.631	12346
927.737	12232
927.843	12201
927.95	11977
928.056	12106
928.162	12190
928.267	12247
928.373	12890
928.479	12247
928.585	12026
928.69	12129
928.796	12182
928.901	12011
929.007	11866
929.112	12049
929.218	11999
929.323	11916
929.428	11889
929.533	12003
929.638	11824
929.743	11874
929.848	11958
929.953	11893
930.058	11707
930.163	11608
930.267	11657
930.372	11771
930.477	11512
930.581	11733
930.685	11665
930.79	11509
930.894	11535
930.998	11440
931.103	11592
931.207	11204
931.311	11227
931.415	11071
931.519	10991
931.623	10900
