Data from test_V78500241_1079.txt Node
Date: Fri Mar 25 15:49:16 CST 2022
User: usil
Spectrometer: V785-0024
Trigger mode: 0
Integration Time (sec): 4.000000E-1
Scans to average: 1
Nonlinearity correction enabled: false
Boxcar width: 0
Storing dark spectrum: false
XAxis mode: Wavelengths
Number of Pixels in Spectrum: 1024
>>>>>Begin Spectral Data<<<<<
801.071	28325
801.214	28169
801.356	28040
801.499	28002
801.641	27930
801.783	27907
801.926	27945
802.068	28120
802.211	27793
802.353	27713
802.496	27526
802.638	27454
802.78	27519
802.923	27515
803.065	27447
803.208	27473
803.35	27580
803.492	27736
803.635	27781
803.777	27625
803.919	27892
804.061	28078
804.204	27804
804.346	27656
804.488	27641
804.63	27713
804.773	27530
804.915	27587
805.057	27861
805.199	27770
805.341	27903
805.483	27888
805.626	27800
805.768	27751
805.91	27876
806.052	28048
806.194	27751
806.336	28223
806.478	27987
806.62	28025
806.762	28025
806.904	28101
807.046	28417
807.188	28398
807.33	28337
807.472	28367
807.614	28162
807.756	28318
807.898	28226
808.04	28223
808.182	28230
808.324	28265
808.465	28284
808.607	28508
808.749	28592
808.891	28687
809.033	28687
809.174	28634
809.316	28569
809.458	28626
809.6	28478
809.741	28774
809.883	28713
810.025	28774
810.166	28896
810.308	28793
810.45	28877
810.591	28816
810.733	28656
810.875	28527
811.016	28451
811.158	28565
811.299	28660
811.441	28938
811.582	28752
811.724	28656
811.865	28653
812.007	28523
812.148	28687
812.29	28618
812.431	28691
812.573	28911
812.714	29022
812.855	29094
812.997	29223
813.138	29398
813.279	29398
813.421	29208
813.562	29143
813.703	29003
813.845	28999
813.986	28527
814.127	28470
814.268	28329
814.41	28398
814.551	28314
814.692	28386
814.833	28379
814.974	28287
815.115	28287
815.256	28185
815.397	28257
815.539	28268
815.68	28078
815.821	27937
815.962	28211
816.103	28017
816.244	27979
816.385	27991
816.526	27869
816.666	27713
816.807	27648
816.948	27610
817.089	27656
817.23	27545
817.371	27580
817.512	27781
817.653	27587
817.793	27671
817.934	27576
818.075	27553
818.216	27656
818.356	27488
818.497	27424
818.638	27466
818.778	27336
818.919	27386
819.06	27462
819.2	27523
819.341	27644
819.481	27641
819.622	27614
819.762	27861
819.903	27899
820.043	27766
820.184	27599
820.324	27637
820.465	27717
820.605	27679
820.746	27732
820.886	27606
821.026	27587
821.167	27648
821.307	27701
821.447	27622
821.588	27663
821.728	27355
821.868	27173
822.008	27028
822.149	27161
822.289	27154
822.429	26811
822.569	26868
822.709	26769
822.849	26765
822.99	26587
823.13	26712
823.27	26712
823.41	26514
823.55	26244
823.69	26396
823.83	26473
823.97	26366
824.11	26313
824.25	26206
824.389	26206
824.529	26267
824.669	26339
824.809	26415
824.949	26366
825.089	26317
825.228	26221
825.368	26130
825.508	26145
825.648	26092
825.787	26191
825.927	26214
826.067	26069
826.206	26202
826.346	26145
826.485	26149
826.625	26069
826.765	26244
826.904	26138
827.044	25898
827.183	25947
827.323	25845
827.462	25959
827.601	25875
827.741	25837
827.88	25841
828.02	25852
828.159	25765
828.298	25894
828.437	25928
828.577	25780
828.716	25917
828.855	25791
828.994	25457
829.134	25464
829.273	25651
829.412	25506
829.551	25434
829.69	25415
829.829	25677
829.968	25643
830.107	25609
830.246	25586
830.385	25533
830.524	25445
830.663	25274
830.802	25202
830.941	25152
831.08	25061
831.219	25209
831.357	25183
831.496	25213
831.635	25168
831.774	25050
831.913	25019
832.051	24951
832.19	24886
832.329	24958
832.467	25015
832.606	24703
832.744	24753
832.883	24715
833.022	24806
833.16	24734
833.299	24905
833.437	24772
833.576	24894
833.714	24829
833.852	24996
833.991	24916
834.129	25015
834.267	25023
834.406	24882
834.544	24905
834.682	24928
834.821	24913
834.959	24985
835.097	24745
835.235	24901
835.373	24741
835.511	24787
835.65	24665
835.788	24601
835.926	24536
836.064	24513
836.202	24563
836.34	24673
836.478	24722
836.615	24646
836.753	24620
836.891	24878
837.029	24650
837.167	24563
837.305	24646
837.443	24521
837.58	24540
837.718	24574
837.856	24566
837.993	24502
838.131	24521
838.269	24407
838.406	24414
838.544	24243
838.681	24148
838.819	24224
838.956	23984
839.094	23923
839.231	24064
839.369	24098
839.506	24353
839.643	24304
839.781	23904
839.918	23965
840.055	24064
840.193	23973
840.33	23878
840.467	23973
840.604	23946
840.742	24194
840.879	23931
841.016	23790
841.153	23760
841.29	23977
841.427	23847
841.564	23866
841.701	23813
841.838	23832
841.975	23745
842.112	23843
842.249	23748
842.385	23687
842.522	23832
842.659	23882
842.796	23668
842.933	23657
843.069	23543
843.206	23490
843.343	23775
843.479	23707
843.616	23653
843.752	23376
843.889	23417
844.025	23699
844.162	23421
844.298	23535
844.435	23440
844.571	23368
844.708	23429
844.844	23490
844.98	23585
845.117	23516
845.253	23337
845.389	23421
845.525	23356
845.661	23254
845.798	23136
845.934	23185
846.07	23079
846.206	23143
846.342	23254
846.478	23155
846.614	23060
846.75	22797
846.886	22885
847.022	22949
847.158	22908
847.294	22896
847.429	22877
847.565	22858
847.701	23098
847.837	22569
847.972	22653
848.108	22565
848.244	22618
848.379	22402
848.515	22462
848.65	22550
848.786	22542
848.921	22519
849.057	22607
849.192	22531
849.328	22504
849.463	22485
849.598	22466
849.734	22265
849.869	22322
850.004	22154
850.14	22379
850.275	22291
850.41	22295
850.545	22162
850.68	22143
850.815	22207
850.95	22238
851.085	22402
851.22	22299
851.355	22280
851.49	22131
851.625	22143
851.76	22291
851.895	22105
852.03	22188
852.165	22306
852.299	22257
852.434	22268
852.569	22295
852.703	22200
852.838	22173
852.973	22360
853.107	22386
853.242	22238
853.376	22044
853.511	21937
853.645	22032
853.78	22242
853.914	22029
854.048	22051
854.183	22025
854.317	22082
854.451	22093
854.585	22078
854.72	21998
854.854	22181
854.988	22029
855.122	22013
855.256	21854
855.39	22070
855.524	22097
855.658	22162
855.792	21930
855.926	22112
856.06	22059
856.194	22200
856.327	22097
856.461	22048
856.595	22078
856.729	21941
856.862	22143
856.996	22093
857.13	22082
857.263	22246
857.397	22131
857.53	22063
857.664	22177
857.797	22139
857.931	22276
858.064	22097
858.197	22200
858.331	22013
858.464	21945
858.597	21945
858.731	21983
858.864	21953
858.997	22010
859.13	22021
859.263	22116
859.396	22166
859.529	21968
859.662	22055
859.795	22082
859.928	22090
860.061	22265
860.194	22128
860.327	22074
860.46	22139
860.592	22131
860.725	22223
860.858	22253
860.99	22063
861.123	21972
861.256	22021
861.388	22006
861.521	22805
861.653	21934
861.786	21797
861.918	21827
862.05	21987
862.183	22006
862.315	22048
862.447	22021
862.58	21857
862.712	21762
862.844	21797
862.976	21778
863.108	21800
863.24	22287
863.372	21739
863.504	21717
863.636	21793
863.768	21781
863.9	21770
864.032	21679
864.164	21838
864.296	21857
864.428	21778
864.559	21907
864.691	21850
864.823	21857
864.954	21762
865.086	21705
865.217	21743
865.349	21698
865.48	21686
865.612	21606
865.743	21739
865.875	21675
866.006	21637
866.137	21694
866.269	21614
866.4	21542
866.531	21599
866.662	21606
866.793	21538
866.924	21526
867.055	21633
867.186	21663
867.317	21443
867.448	21580
867.579	21553
867.71	21507
867.841	21504
867.972	21500
868.103	21519
868.233	21599
868.364	21553
868.495	21709
868.625	21892
868.756	21922
868.886	21835
869.017	21739
869.147	21823
869.278	21903
869.408	21926
869.539	21827
869.669	21785
869.799	21941
869.929	21838
870.06	21888
870.19	22128
870.32	22150
870.45	22154
870.58	22215
870.71	22386
870.84	22398
870.97	22147
871.1	22150
871.23	22352
871.36	22402
871.489	22325
871.619	22390
871.749	22417
871.879	22417
872.008	22500
872.138	22382
872.267	22462
872.397	22196
872.526	22200
872.656	22314
872.785	22299
872.915	22333
873.044	22466
873.173	22360
873.303	22424
873.432	22485
873.561	22462
873.69	22432
873.819	22394
873.948	22485
874.077	22466
874.206	22443
874.335	22318
874.464	22561
874.593	22687
874.722	22478
874.851	22675
874.979	22774
875.108	22713
875.237	22634
875.365	22500
875.494	22580
875.623	22717
875.751	22645
875.88	22607
876.008	22733
876.136	22835
876.265	22938
876.393	23124
876.521	23086
876.65	23060
876.778	23041
876.906	23003
877.034	23018
877.162	23067
877.29	22961
877.418	22980
877.546	23105
877.674	22965
877.802	22942
877.93	23064
878.058	22889
878.185	22885
878.313	22923
878.441	23003
878.568	22698
878.696	22881
878.824	23022
878.951	23060
879.079	23181
879.206	23254
879.333	23124
879.461	23105
879.588	23136
879.715	23227
879.842	23311
879.97	23113
880.097	22828
880.224	22778
880.351	22866
880.478	22831
880.605	22626
880.732	22824
880.859	23124
880.986	22687
881.112	22892
881.239	22656
881.366	22436
881.493	22485
881.619	22443
881.746	22367
881.872	22390
881.999	22295
882.125	22257
882.252	22394
882.378	22459
882.505	22394
882.631	22154
882.757	22112
882.883	22226
883.01	22067
883.136	22021
883.262	21804
883.388	21880
883.514	22013
883.64	22013
883.766	22036
883.892	21774
884.018	21857
884.143	21922
884.269	22154
884.395	21808
884.52	21591
884.646	21720
884.772	21633
884.897	21667
885.023	21667
885.148	21705
885.274	21869
885.399	21831
885.524	21762
885.65	21751
885.775	21736
885.9	21629
886.025	21793
886.15	21770
886.275	21679
886.4	21739
886.525	21603
886.65	21610
886.775	21538
886.9	21739
887.025	21945
887.149	21625
887.274	21408
887.399	21439
887.523	21530
887.648	21439
887.773	21439
887.897	21473
888.021	21477
888.146	21374
888.27	21519
888.395	21561
888.519	21412
888.643	21454
888.767	21488
888.891	21252
889.015	21279
889.139	21268
889.263	21218
889.387	21393
889.511	21431
889.635	21313
889.759	21302
889.883	21108
890.006	21272
890.13	21332
890.254	21150
890.377	21093
890.501	20899
890.624	20887
890.748	21100
890.871	20880
890.995	20682
891.118	20689
891.241	20834
891.364	20701
891.488	20910
891.611	20819
891.734	20785
891.857	20921
891.98	20777
892.103	20853
892.226	20792
892.349	20788
892.471	20583
892.594	20720
892.717	20826
892.839	20731
892.962	20750
893.085	20773
893.207	20720
893.33	20552
893.452	20670
893.575	20868
893.697	20617
893.819	20800
893.941	20902
894.064	20872
894.186	20655
894.308	20587
894.43	20769
894.552	20838
894.674	20781
894.796	20727
894.918	20720
895.04	20697
895.161	20754
895.283	20777
895.405	20632
895.526	20667
895.648	20731
895.769	20708
895.891	20606
896.012	20701
896.134	20727
896.255	20807
896.376	20716
896.498	20720
896.619	20743
896.74	20644
896.861	20758
896.982	21001
897.103	21214
897.224	20998
897.345	20971
897.466	20834
897.587	20891
897.708	21013
897.828	20956
897.949	20762
898.07	20781
898.19	20826
898.311	20883
898.431	20785
898.552	20883
898.672	20906
898.792	20967
898.913	20921
899.033	20792
899.153	20629
899.273	20613
899.393	20663
899.513	20644
899.633	20632
899.753	20667
899.873	20571
899.993	20674
900.113	20613
900.232	20674
900.352	20587
900.472	20419
900.591	20366
900.711	20438
900.83	20278
900.95	20495
901.069	20541
901.189	20313
901.308	19974
901.427	19955
901.546	19982
901.665	19997
901.784	19913
901.904	19845
902.023	19761
902.141	19510
902.26	19559
902.379	19609
902.498	19525
902.617	19422
902.735	19483
902.854	19403
902.973	19362
903.091	19206
903.21	19156
903.328	19198
903.446	19000
903.565	18932
903.683	18909
903.801	18840
903.919	18993
904.038	18894
904.156	18738
904.274	18760
904.392	18688
904.51	18719
904.627	18696
904.745	18726
904.863	18772
904.981	18559
905.098	18445
905.216	18304
905.334	18414
905.451	18304
905.569	18490
905.686	18365
905.803	18285
905.921	18186
906.038	18296
906.155	18243
906.272	18041
906.389	18178
906.506	17931
906.623	17874
906.74	17874
906.857	17775
906.974	17809
907.091	17904
907.208	18045
907.324	17923
907.441	17756
907.557	17600
907.674	17649
907.79	17539
907.907	17611
908.023	17661
908.139	17687
908.256	17596
908.372	17455
908.488	17421
908.604	17322
908.72	17277
908.836	17398
908.952	17299
909.068	17444
909.184	17379
909.3	17356
909.415	17429
909.531	17421
909.647	17113
909.762	17090
909.878	16991
909.993	17140
910.108	16911
910.224	16976
910.339	17018
910.454	16889
910.57	16877
910.685	16847
910.8	16976
910.915	16961
911.03	16790
911.145	16706
911.259	16592
911.374	16668
911.489	16535
911.604	16478
911.718	16363
911.833	16394
911.947	16192
912.062	16295
912.176	16348
912.291	16390
912.405	16402
912.519	16550
912.633	16478
912.748	16382
912.862	16402
912.976	16181
913.09	16120
913.204	16322
913.318	16188
913.431	16325
913.545	16249
913.659	16226
913.772	16166
913.886	15998
914	16036
914.113	15972
914.226	16067
914.34	16055
914.453	15778
914.566	15998
914.68	15846
914.793	15884
914.906	15637
915.019	15572
915.132	15557
915.245	15458
915.358	15614
915.47	15584
915.583	15561
915.696	15622
915.809	15572
915.921	15694
916.034	15511
916.146	15538
916.259	15481
916.371	15542
916.483	15534
916.595	15382
916.708	15283
916.82	15405
916.932	15237
917.044	15306
917.156	15351
917.268	15241
917.38	15218
917.491	15112
917.603	15214
917.715	15317
917.826	15325
917.938	15116
918.049	15032
918.161	15169
918.272	15279
918.384	15298
918.495	15127
918.606	14998
918.717	14918
918.828	14990
918.939	14937
919.05	14895
919.161	14864
919.272	14746
919.383	14773
919.494	15005
919.604	15207
919.715	14956
919.826	14842
919.936	14845
920.047	14906
920.157	14948
920.267	15013
920.378	14849
920.488	14982
920.598	15058
920.708	15138
920.818	15005
920.928	15043
921.038	15154
921.148	15036
921.258	14948
921.368	14800
921.477	14583
921.587	14583
921.697	14454
921.806	14587
921.916	14511
922.025	14282
922.134	14358
922.244	14187
922.353	14351
922.462	14084
922.571	14134
922.68	13883
922.789	13879
922.898	13974
923.007	13837
923.116	13909
923.224	13921
923.333	13837
923.442	13742
923.55	13662
923.659	13776
923.767	13830
923.876	13742
923.984	13807
924.092	13567
924.201	13674
924.309	13571
924.417	13613
924.525	13556
924.633	13628
924.741	14404
924.849	13304
924.956	13525
925.064	13388
925.172	13183
925.279	13301
925.387	13346
925.494	13289
925.602	13483
925.709	13324
925.816	13247
925.924	13213
926.031	13228
926.138	13194
926.245	13259
926.352	13198
926.459	13232
926.566	13304
926.673	13122
926.779	13019
926.886	13004
926.993	12852
927.099	12928
927.206	12787
927.312	12779
927.419	12875
927.525	12909
927.631	12837
927.737	12665
927.843	12639
927.95	12604
928.056	12669
928.162	12738
928.267	12654
928.373	13259
928.479	12703
928.585	12407
928.69	12677
928.796	12703
928.901	12589
929.007	12384
929.112	12525
929.218	12456
929.323	12445
929.428	12391
929.533	12555
929.638	12334
929.743	12311
929.848	12376
929.953	12372
930.058	12270
930.163	12045
930.267	11965
930.372	12243
930.477	12007
930.581	12190
930.685	12114
930.79	11958
930.894	12117
930.998	11863
931.103	12045
931.207	11634
931.311	11638
931.415	11471
931.519	11341
931.623	11273
