Data from test_V78500241_660.txt Node
Date: Fri Mar 25 15:46:22 CST 2022
User: usil
Spectrometer: V785-0024
Trigger mode: 0
Integration Time (sec): 4.000000E-1
Scans to average: 1
Nonlinearity correction enabled: false
Boxcar width: 0
Storing dark spectrum: false
XAxis mode: Wavelengths
Number of Pixels in Spectrum: 1024
>>>>>Begin Spectral Data<<<<<
801.071	26537
801.214	26381
801.356	26134
801.499	26084
801.641	25932
801.783	26005
801.926	26050
802.068	26024
802.211	25765
802.353	25784
802.496	25635
802.638	25635
802.78	25556
802.923	25525
803.065	25354
803.208	25510
803.35	25567
803.492	25540
803.635	25613
803.777	25605
803.919	25635
804.061	26001
804.204	25586
804.346	25609
804.488	25529
804.63	25651
804.773	25491
804.915	25597
805.057	25712
805.199	25651
805.341	25746
805.483	25689
805.626	25765
805.768	25696
805.91	25723
806.052	25651
806.194	25689
806.336	25871
806.478	25772
806.62	25871
806.762	25852
806.904	26077
807.046	26199
807.188	26107
807.33	26225
807.472	26145
807.614	25966
807.756	26005
807.898	25814
808.04	25791
808.182	25890
808.324	26039
808.465	26088
808.607	26267
808.749	26153
808.891	26362
809.033	26484
809.174	26389
809.316	26301
809.458	26442
809.6	26233
809.741	26442
809.883	26385
810.025	26636
810.166	26598
810.308	26465
810.45	26507
810.591	26415
810.733	26237
810.875	26134
811.016	26221
811.158	26119
811.299	26457
811.441	26541
811.582	26465
811.724	26275
811.865	26126
812.007	26229
812.148	26267
812.29	26263
812.431	26374
812.573	26613
812.714	26609
812.855	26678
812.997	26929
813.138	27036
813.279	26834
813.421	26762
813.562	26853
813.703	26507
813.845	26450
813.986	26176
814.127	26069
814.268	25909
814.41	25951
814.551	25811
814.692	25921
814.833	25887
814.974	25803
815.115	25841
815.256	25837
815.397	25666
815.539	25708
815.68	25776
815.821	25651
815.962	25712
816.103	25559
816.244	25540
816.385	25499
816.526	25415
816.666	25335
816.807	25183
816.948	25217
817.089	25247
817.23	25232
817.371	25297
817.512	25217
817.653	25050
817.793	25137
817.934	25023
818.075	25335
818.216	25110
818.356	25072
818.497	25042
818.638	24951
818.778	24981
818.919	24871
819.06	24928
819.2	25099
819.341	25141
819.481	25110
819.622	25198
819.762	25518
819.903	25445
820.043	25194
820.184	25228
820.324	25213
820.465	25316
820.605	25259
820.746	25171
820.886	25065
821.026	25209
821.167	25168
821.307	25228
821.447	25198
821.588	25133
821.728	24867
821.868	24719
822.008	24669
822.149	24536
822.289	24544
822.429	24174
822.569	24239
822.709	24209
822.849	24163
822.99	24114
823.13	24140
823.27	24060
823.41	23798
823.55	23893
823.69	23923
823.83	23961
823.97	24022
824.11	23733
824.25	23661
824.389	23703
824.529	23843
824.669	23813
824.809	23912
824.949	23817
825.089	23897
825.228	23836
825.368	23573
825.508	23554
825.648	23608
825.787	23596
825.927	23600
826.067	23486
826.206	23501
826.346	23581
826.485	23573
826.625	23535
826.765	23657
826.904	23547
827.044	23254
827.183	23330
827.323	23239
827.462	23372
827.601	23166
827.741	23299
827.88	23296
828.02	23124
828.159	23227
828.298	23277
828.437	23296
828.577	23318
828.716	23318
828.855	23269
828.994	22976
829.134	22885
829.273	23098
829.412	22965
829.551	22892
829.69	22984
829.829	23056
829.968	23048
830.107	23060
830.246	23075
830.385	22999
830.524	22843
830.663	22691
830.802	22698
830.941	22516
831.08	22538
831.219	22717
831.357	22675
831.496	22793
831.635	22519
831.774	22440
831.913	22481
832.051	22291
832.19	22379
832.329	22402
832.467	22329
832.606	22253
832.744	22276
832.883	22287
833.022	22367
833.16	22284
833.299	22360
833.437	22356
833.576	22230
833.714	22299
833.852	22398
833.991	22303
834.129	22325
834.267	22367
834.406	22363
834.544	22333
834.682	22284
834.821	22337
834.959	22409
835.097	22246
835.235	22474
835.373	22421
835.511	22234
835.65	22276
835.788	22032
835.926	22120
836.064	21968
836.202	22006
836.34	22230
836.478	22280
836.615	22158
836.753	22234
836.891	22139
837.029	22207
837.167	22112
837.305	22090
837.443	21987
837.58	21987
837.718	22017
837.856	22040
837.993	21838
838.131	22055
838.269	21911
838.406	21884
838.544	21865
838.681	21671
838.819	21686
838.956	21454
839.094	21428
839.231	21648
839.369	21705
839.506	21907
839.643	21732
839.781	21488
839.918	21466
840.055	21450
840.193	21443
840.33	21408
840.467	21515
840.604	21523
840.742	21762
840.879	21359
841.016	21332
841.153	21428
841.29	21523
841.427	21412
841.564	21443
841.701	21370
841.838	21416
841.975	21420
842.112	21340
842.249	21348
842.385	21104
842.522	21469
842.659	21359
842.796	21184
842.933	21302
843.069	21051
843.206	21214
843.343	21260
843.479	21256
843.616	21195
843.752	20952
843.889	20982
844.025	21138
844.162	20857
844.298	21062
844.435	20921
844.571	20853
844.708	20952
844.844	21150
844.98	21188
845.117	21161
845.253	20861
845.389	20868
845.525	20819
845.661	20758
845.798	20739
845.934	20815
846.07	20678
846.206	20670
846.342	20819
846.478	20781
846.614	20446
846.75	20423
846.886	20408
847.022	20499
847.158	20415
847.294	20400
847.429	20560
847.565	20393
847.701	20674
847.837	20221
847.972	20142
848.108	20214
848.244	20370
848.379	20069
848.515	20081
848.65	20081
848.786	20024
848.921	20039
849.057	20180
849.192	20161
849.328	20103
849.463	20111
849.598	20081
849.734	20062
849.869	19852
850.004	19883
850.14	19913
850.275	19852
850.41	19696
850.545	19731
850.68	19807
850.815	19845
850.95	19917
851.085	19936
851.22	19967
851.355	19849
851.49	19902
851.625	19734
851.76	19780
851.895	19753
852.03	19674
852.165	19856
852.299	19826
852.434	19898
852.569	19883
852.703	19765
852.838	19909
852.973	19902
853.107	20046
853.242	19666
853.376	19689
853.511	19521
853.645	19632
853.78	19772
853.914	19594
854.048	19761
854.183	19594
854.317	19681
854.451	19780
854.585	19632
854.72	19651
854.854	19666
854.988	19620
855.122	19677
855.256	19502
855.39	19548
855.524	19791
855.658	19727
855.792	19643
855.926	19708
856.06	19685
856.194	19727
856.327	19723
856.461	19620
856.595	19499
856.729	19715
856.862	19712
856.996	19734
857.13	19696
857.263	19807
857.397	19780
857.53	19655
857.664	19567
857.797	19643
857.931	19780
858.064	19689
858.197	19799
858.331	19742
858.464	19651
858.597	19628
858.731	19609
858.864	19639
858.997	19677
859.13	19628
859.263	19700
859.396	19719
859.529	19655
859.662	19601
859.795	19510
859.928	19776
860.061	19830
860.194	19818
860.327	19658
860.46	19677
860.592	19811
860.725	19746
860.858	19803
860.99	19601
861.123	19674
861.256	19491
861.388	19635
861.521	20229
861.653	19540
861.786	19426
861.918	19624
862.05	19544
862.183	19464
862.315	19559
862.447	19742
862.58	19597
862.712	19407
862.844	19377
862.976	19521
863.108	19381
863.24	19769
863.372	19255
863.504	19415
863.636	19339
863.768	19381
863.9	19453
864.032	19335
864.164	19270
864.296	19373
864.428	19377
864.559	19438
864.691	19350
864.823	19320
864.954	19266
865.086	19316
865.217	19278
865.349	19297
865.48	19274
865.612	19327
865.743	19251
865.875	19346
866.006	19289
866.137	19362
866.269	19240
866.4	19282
866.531	19221
866.662	19221
866.793	19213
866.924	19247
867.055	19244
867.186	19251
867.317	19236
867.448	19095
867.579	19274
867.71	19168
867.841	19194
867.972	19187
868.103	19198
868.233	19152
868.364	19228
868.495	19400
868.625	19487
868.756	19487
868.886	19403
869.017	19396
869.147	19712
869.278	19544
869.408	19578
869.539	19453
869.669	19540
869.799	19582
869.929	19597
870.06	19563
870.19	19803
870.32	19696
870.45	19822
870.58	19917
870.71	20065
870.84	20065
870.97	19894
871.1	19841
871.23	20081
871.36	20031
871.489	19936
871.619	20008
871.749	20088
871.879	20008
872.008	20187
872.138	20187
872.267	19970
872.397	19989
872.526	19947
872.656	19921
872.785	19868
872.915	20126
873.044	20240
873.173	19955
873.303	20054
873.432	20161
873.561	20263
873.69	20309
873.819	20153
873.948	20229
874.077	20149
874.206	20107
874.335	20081
874.464	20157
874.593	20328
874.722	20286
874.851	20351
874.979	20393
875.108	20385
875.237	20259
875.365	20438
875.494	20423
875.623	20446
875.751	20309
875.88	20366
876.008	20556
876.136	20549
876.265	20701
876.393	20819
876.521	20762
876.65	20781
876.778	20868
876.906	20750
877.034	20648
877.162	20720
877.29	20678
877.418	20670
877.546	20686
877.674	20727
877.802	20689
877.93	20617
878.058	20602
878.185	20590
878.313	20667
878.441	20739
878.568	20613
878.696	20476
878.824	20621
878.951	20785
879.079	20925
879.206	21039
879.333	20868
879.461	20746
879.588	20861
879.715	20899
879.842	21047
879.97	20796
880.097	20632
880.224	20476
880.351	20609
880.478	20682
880.605	20621
880.732	20583
880.859	20800
880.986	20625
881.112	20682
881.239	20332
881.366	20366
881.493	20294
881.619	20180
881.746	20119
881.872	20088
881.999	20157
882.125	20058
882.252	20221
882.378	20183
882.505	20233
882.631	20107
882.757	19906
882.883	19902
883.01	19871
883.136	19871
883.262	19708
883.388	19788
883.514	19909
883.64	19890
883.766	19875
883.892	19597
884.018	19677
884.143	19871
884.269	19894
884.395	19639
884.52	19483
884.646	19556
884.772	19502
884.897	19388
885.023	19499
885.148	19647
885.274	19811
885.399	19647
885.524	19510
885.65	19506
885.775	19620
885.9	19487
886.025	19628
886.15	19594
886.275	19339
886.4	19510
886.525	19453
886.65	19578
886.775	19384
886.9	19605
887.025	19761
887.149	19434
887.274	19304
887.399	19373
887.523	19365
887.648	19274
887.773	19145
887.897	19403
888.021	19335
888.146	19320
888.27	19365
888.395	19388
888.519	19350
888.643	19327
888.767	19403
888.891	19343
889.015	19217
889.139	19266
889.263	19198
889.387	19278
889.511	19350
889.635	19282
889.759	19145
889.883	19099
890.006	19152
890.13	19221
890.254	19194
890.377	18996
890.501	18970
890.624	18924
890.748	19057
890.871	18745
890.995	18741
891.118	18669
891.241	18745
891.364	18711
891.488	18833
891.611	18795
891.734	18654
891.857	18798
891.98	18692
892.103	18738
892.226	18700
892.349	18658
892.471	18623
892.594	18635
892.717	18700
892.839	18555
892.962	18566
893.085	18631
893.207	18726
893.33	18502
893.452	18593
893.575	18768
893.697	18570
893.819	18787
893.941	18867
894.064	18802
894.186	18627
894.308	18593
894.43	18787
894.552	18825
894.674	18669
894.796	18635
894.918	18597
895.04	18673
895.161	18722
895.283	18719
895.405	18566
895.526	18776
895.648	18760
895.769	18654
895.891	18707
896.012	18764
896.134	18700
896.255	18654
896.376	18593
896.498	18696
896.619	18749
896.74	18681
896.861	18768
896.982	19027
897.103	19171
897.224	19038
897.345	19072
897.466	18875
897.587	18951
897.708	19015
897.828	19015
897.949	18928
898.07	18753
898.19	18920
898.311	18954
898.431	18928
898.552	19110
898.672	18920
898.792	19107
898.913	18966
899.033	18821
899.153	18798
899.273	18684
899.393	18844
899.513	18749
899.633	18760
899.753	18627
899.873	18722
899.993	18863
900.113	18730
900.232	18768
900.352	18639
900.472	18627
900.591	18502
900.711	18612
900.83	18467
900.95	18593
901.069	18544
901.189	18471
901.308	18232
901.427	18091
901.546	18197
901.665	18163
901.784	18209
901.904	18106
902.023	17999
902.141	17790
902.26	17596
902.379	17767
902.498	17714
902.617	17672
902.735	17710
902.854	17627
902.973	17566
903.091	17471
903.21	17303
903.328	17280
903.446	17250
903.565	17204
903.683	17280
903.801	17060
903.919	17113
904.038	17151
904.156	16953
904.274	16957
904.392	17029
904.51	16923
904.627	16843
904.745	16965
904.863	16927
904.981	16771
905.098	16675
905.216	16554
905.334	16611
905.451	16679
905.569	16615
905.686	16641
905.803	16641
905.921	16489
906.038	16580
906.155	16398
906.272	16268
906.389	16390
906.506	16188
906.623	16158
906.74	16135
906.857	16063
906.974	16105
907.091	16268
907.208	16303
907.324	16196
907.441	16097
907.557	15949
907.674	15968
907.79	15804
907.907	15793
908.023	15949
908.139	15945
908.256	15876
908.372	15694
908.488	15728
908.604	15694
908.72	15587
908.836	15618
908.952	15515
909.068	15561
909.184	15736
909.3	15663
909.415	15644
909.531	15675
909.647	15344
909.762	15268
909.878	15306
909.993	15287
910.108	15298
910.224	15325
910.339	15260
910.454	15123
910.57	15157
910.685	15135
910.8	15504
910.915	15252
911.03	15112
911.145	14929
911.259	14998
911.374	14963
911.489	14914
911.604	14925
911.718	14758
911.833	14659
911.947	14564
912.062	14598
912.176	14720
912.291	14689
912.405	14705
912.519	14842
912.633	14876
912.748	14823
912.862	14689
912.976	14522
913.09	14385
913.204	14476
913.318	14488
913.431	14625
913.545	14625
913.659	14617
913.772	14503
913.886	14301
914	14320
914.113	14400
914.226	14465
914.34	14370
914.453	14202
914.566	14328
914.68	14324
914.793	14103
914.906	14031
915.019	14084
915.132	13921
915.245	13993
915.358	13967
915.47	13963
915.583	14035
915.696	14016
915.809	14183
915.921	14096
916.034	13932
916.146	13879
916.259	13860
916.371	14031
916.483	13928
916.595	13879
916.708	13856
916.82	13765
916.932	13803
917.044	13784
917.156	13791
917.268	13693
917.38	13772
917.491	13750
917.603	13681
917.715	13788
917.826	13776
917.938	13712
918.049	13601
918.161	13613
918.272	13719
918.384	13734
918.495	13647
918.606	13460
918.717	13438
918.828	13537
918.939	13582
919.05	13480
919.161	13510
919.272	13270
919.383	13308
919.494	13483
919.604	13753
919.715	13533
919.826	13339
919.936	13472
920.047	13495
920.157	13506
920.267	13723
920.378	13445
920.488	13335
920.598	13693
920.708	13868
920.818	13575
920.928	13651
921.038	13879
921.148	13731
921.258	13392
921.368	13343
921.477	13236
921.587	13198
921.697	13175
921.806	13312
921.916	13034
922.025	12935
922.134	12871
922.244	12802
922.353	12901
922.462	12802
922.571	12726
922.68	12570
922.789	12574
922.898	12521
923.007	12467
923.116	12623
923.224	12559
923.333	12464
923.442	12407
923.55	12407
923.659	12410
923.767	12464
923.876	12357
923.984	12304
924.092	12338
924.201	12243
924.309	12273
924.417	12266
924.525	12273
924.633	12194
924.741	13000
924.849	12083
924.956	12247
925.064	12022
925.172	12045
925.279	11973
925.387	12076
925.494	12045
925.602	12106
925.709	12091
925.816	11946
925.924	11992
926.031	12068
926.138	11973
926.245	12038
926.352	11866
926.459	12091
926.566	12068
926.673	11942
926.779	11786
926.886	11760
926.993	11630
927.099	11611
927.206	11516
927.312	11512
927.419	11501
927.525	11604
927.631	11634
927.737	11543
927.843	11486
927.95	11349
928.056	11459
928.162	11444
928.267	11528
928.373	12140
928.479	11562
928.585	11379
928.69	11459
928.796	11459
928.901	11349
929.007	11189
929.112	11326
929.218	11318
929.323	11239
929.428	11098
929.533	11269
929.638	11064
929.743	11128
929.848	11307
929.953	11132
930.058	11033
930.163	10972
930.267	10953
930.372	11064
930.477	10919
930.581	11075
930.685	10976
930.79	10866
930.894	10835
930.998	10748
931.103	11022
931.207	10519
931.311	10558
931.415	10459
931.519	10223
931.623	10219
