Data from test_V78500241_1325.txt Node
Date: Fri Mar 25 15:50:58 CST 2022
User: usil
Spectrometer: V785-0024
Trigger mode: 0
Integration Time (sec): 4.000000E-1
Scans to average: 1
Nonlinearity correction enabled: false
Boxcar width: 0
Storing dark spectrum: false
XAxis mode: Wavelengths
Number of Pixels in Spectrum: 1024
>>>>>Begin Spectral Data<<<<<
801.071	28599
801.214	28390
801.356	28211
801.499	28162
801.641	27972
801.783	28032
801.926	28017
802.068	28086
802.211	28063
802.353	28055
802.496	27705
802.638	27709
802.78	27675
802.923	27576
803.065	27667
803.208	27652
803.35	27797
803.492	27854
803.635	27918
803.777	27880
803.919	28017
804.061	28287
804.204	28070
804.346	27968
804.488	27850
804.63	28029
804.773	27739
804.915	28048
805.057	28006
805.199	27899
805.341	28036
805.483	28211
805.626	27956
805.768	28010
805.91	28143
806.052	28090
806.194	28147
806.336	28188
806.478	28173
806.62	28139
806.762	28230
806.904	28318
807.046	28580
807.188	28588
807.33	28523
807.472	28580
807.614	28500
807.756	28527
807.898	28481
808.04	28417
808.182	28234
808.324	28489
808.465	28451
808.607	28702
808.749	28786
808.891	28835
809.033	28972
809.174	28896
809.316	28733
809.458	28850
809.6	28927
809.741	29037
809.883	29128
810.025	29094
810.166	29235
810.308	29003
810.45	29189
810.591	29083
810.733	28881
810.875	28877
811.016	28713
811.158	28717
811.299	28858
811.441	28888
811.582	28999
811.724	28957
811.865	28744
812.007	28812
812.148	28797
812.29	28862
812.431	28949
812.573	29083
812.714	29334
812.855	29265
812.997	29467
813.138	29497
813.279	29490
813.421	29375
813.562	29128
813.703	29189
813.845	28987
813.986	28862
814.127	28702
814.268	28462
814.41	28599
814.551	28478
814.692	28535
814.833	28489
814.974	28500
815.115	28561
815.256	28360
815.397	28466
815.539	28440
815.68	28135
815.821	28390
815.962	28500
816.103	28280
816.244	28242
816.385	28234
816.526	28120
816.666	28048
816.807	27717
816.948	27918
817.089	27926
817.23	27743
817.371	27918
817.512	27880
817.653	27800
817.793	27747
817.934	27823
818.075	27743
818.216	27854
818.356	27736
818.497	27709
818.638	27591
818.778	27496
818.919	27580
819.06	27682
819.2	27686
819.341	27728
819.481	27922
819.622	28021
819.762	28207
819.903	28124
820.043	28082
820.184	27922
820.324	27956
820.465	28116
820.605	27998
820.746	27914
820.886	27774
821.026	27854
821.167	27979
821.307	28109
821.447	27827
821.588	27774
821.728	27663
821.868	27515
822.008	27431
822.149	27355
822.289	27313
822.429	27180
822.569	27127
822.709	26971
822.849	26838
822.99	26952
823.13	26807
823.27	26651
823.41	26678
823.55	26522
823.69	26731
823.83	26819
823.97	26667
824.11	26423
824.25	26560
824.389	26469
824.529	26609
824.669	26511
824.809	26686
824.949	26594
825.089	26697
825.228	26507
825.368	26453
825.508	26393
825.648	26453
825.787	26457
825.927	26484
826.067	26301
826.206	26453
826.346	26434
826.485	26412
826.625	26484
826.765	26575
826.904	26362
827.044	26062
827.183	26282
827.323	26027
827.462	26259
827.601	26035
827.741	26081
827.88	26043
828.02	25986
828.159	26008
828.298	26119
828.437	26161
828.577	25944
828.716	26180
828.855	25917
828.994	25841
829.134	25788
829.273	25898
829.412	25776
829.551	25655
829.69	25890
829.829	25765
829.968	25795
830.107	25868
830.246	25757
830.385	25624
830.524	25715
830.663	25670
830.802	25510
830.941	25426
831.08	25228
831.219	25491
831.357	25540
831.496	25590
831.635	25289
831.774	25312
831.913	25346
832.051	25080
832.19	25061
832.329	25107
832.467	24985
832.606	24913
832.744	24981
832.883	25072
833.022	24996
833.16	25133
833.299	25012
833.437	25114
833.576	25057
833.714	25080
833.852	25213
833.991	25164
834.129	25126
834.267	25091
834.406	25065
834.544	25137
834.682	25137
834.821	25057
834.959	25137
835.097	25008
835.235	25187
835.373	25156
835.511	25141
835.65	24901
835.788	24924
835.926	24798
836.064	24776
836.202	24791
836.34	24867
836.478	25031
836.615	24886
836.753	24848
836.891	25004
837.029	24932
837.167	24844
837.305	24764
837.443	24730
837.58	24741
837.718	24730
837.856	24768
837.993	24612
838.131	24768
838.269	24661
838.406	24696
838.544	24570
838.681	24433
838.819	24479
838.956	24330
839.094	24258
839.231	24350
839.369	24384
839.506	24623
839.643	24502
839.781	24304
839.918	24308
840.055	24369
840.193	24171
840.33	24072
840.467	24163
840.604	24232
840.742	24376
840.879	24041
841.016	24125
841.153	24072
841.29	24106
841.427	24133
841.564	24205
841.701	24106
841.838	24053
841.975	24091
842.112	24011
842.249	23927
842.385	23950
842.522	24129
842.659	23859
842.796	23878
842.933	23939
843.069	23817
843.206	23748
843.343	23958
843.479	23912
843.616	23874
843.752	23627
843.889	23718
844.025	23836
844.162	23699
844.298	23764
844.435	23604
844.571	23566
844.708	23745
844.844	23870
844.98	23783
845.117	23851
845.253	23573
845.389	23539
845.525	23657
845.661	23543
845.798	23421
845.934	23573
846.07	23360
846.206	23448
846.342	23493
846.478	23372
846.614	23299
846.75	23128
846.886	23025
847.022	23239
847.158	23083
847.294	23048
847.429	23094
847.565	22968
847.701	23341
847.837	22774
847.972	22820
848.108	23022
848.244	22843
848.379	22717
848.515	22664
848.65	22622
848.786	22805
848.921	22782
849.057	22805
849.192	22869
849.328	22668
849.463	22713
849.598	22679
849.734	22508
849.869	22523
850.004	22485
850.14	22428
850.275	22512
850.41	22394
850.545	22432
850.68	22451
850.815	22504
850.95	22417
851.085	22748
851.22	22489
851.355	22432
851.49	22474
851.625	22462
851.76	22485
851.895	22325
852.03	22405
852.165	22470
852.299	22523
852.434	22417
852.569	22531
852.703	22470
852.838	22436
852.973	22645
853.107	22573
853.242	22375
853.376	22276
853.511	22268
853.645	22246
853.78	22432
853.914	22299
854.048	22242
854.183	22246
854.317	22272
854.451	22618
854.585	22223
854.72	22177
854.854	22348
854.988	22257
855.122	22257
855.256	22219
855.39	22291
855.524	22375
855.658	22428
855.792	22200
855.926	22303
856.06	22402
856.194	22306
856.327	22166
856.461	22158
856.595	22223
856.729	22166
856.862	22379
856.996	22337
857.13	22459
857.263	22440
857.397	22341
857.53	22287
857.664	22257
857.797	22352
857.931	22386
858.064	22185
858.197	22375
858.331	22166
858.464	22280
858.597	22135
858.731	22211
858.864	22200
858.997	22223
859.13	22253
859.263	22333
859.396	22379
859.529	22329
859.662	22215
859.795	22230
859.928	22257
860.061	22424
860.194	22531
860.327	22413
860.46	22280
860.592	22451
860.725	22447
860.858	22409
860.99	22268
861.123	22230
861.256	22253
861.388	22360
861.521	22949
861.653	22131
861.786	22215
861.918	22097
862.05	22272
862.183	22169
862.315	22147
862.447	22432
862.58	22185
862.712	22029
862.844	21983
862.976	22135
863.108	22128
863.24	22306
863.372	22029
863.504	21953
863.636	21937
863.768	21994
863.9	21968
864.032	21972
864.164	22010
864.296	22131
864.428	22120
864.559	22109
864.691	22109
864.823	22093
864.954	21991
865.086	21876
865.217	22093
865.349	21785
865.48	21778
865.612	21903
865.743	22029
865.875	21953
866.006	21865
866.137	21934
866.269	21865
866.4	21884
866.531	21747
866.662	21759
866.793	21804
866.924	21842
867.055	21888
867.186	21850
867.317	21789
867.448	21781
867.579	21800
867.71	21816
867.841	21789
867.972	21759
868.103	21869
868.233	21789
868.364	21895
868.495	21903
868.625	21972
868.756	22086
868.886	21983
869.017	22074
869.147	22143
869.278	22287
869.408	22078
869.539	22040
869.669	22044
869.799	22101
869.929	22166
870.06	22230
870.19	22379
870.32	22253
870.45	22478
870.58	22284
870.71	22565
870.84	22428
870.97	22485
871.1	22352
871.23	22622
871.36	22702
871.489	22398
871.619	22668
871.749	22675
871.879	22656
872.008	22725
872.138	22634
872.267	22550
872.397	22592
872.526	22424
872.656	22489
872.785	22561
872.915	22721
873.044	22744
873.173	22626
873.303	22637
873.432	22664
873.561	22706
873.69	22683
873.819	22588
873.948	22736
874.077	22649
874.206	22694
874.335	22664
874.464	22835
874.593	22896
874.722	22755
874.851	22873
874.979	22816
875.108	22858
875.237	22744
875.365	22713
875.494	22972
875.623	22721
875.751	22812
875.88	22919
876.008	22995
876.136	23075
876.265	23254
876.393	23307
876.521	23356
876.65	23364
876.778	23349
876.906	23189
877.034	23136
877.162	23060
877.29	23105
877.418	23159
877.546	23208
877.674	23128
877.802	23235
877.93	23128
878.058	23090
878.185	23216
878.313	23071
878.441	23052
878.568	22877
878.696	23029
878.824	23288
878.951	23299
879.079	23417
879.206	23360
879.333	23334
879.461	23044
879.588	23353
879.715	23436
879.842	23448
879.97	23265
880.097	23071
880.224	23079
880.351	23022
880.478	22942
880.605	23102
880.732	23029
880.859	23288
880.986	22972
881.112	23033
881.239	22915
881.366	22683
881.493	22599
881.619	22630
881.746	22752
881.872	22622
881.999	22569
882.125	22531
882.252	22626
882.378	22546
882.505	22710
882.631	22451
882.757	22390
882.883	22325
883.01	22242
883.136	22363
883.262	22143
883.388	22124
883.514	22306
883.64	22382
883.766	22181
883.892	21979
884.018	22093
884.143	22230
884.269	22261
884.395	21998
884.52	21835
884.646	21899
884.772	21972
884.897	21686
885.023	21911
885.148	21972
885.274	21972
885.399	22025
885.524	22025
885.65	21979
885.775	21911
885.9	22002
886.025	21983
886.15	21934
886.275	21880
886.4	21835
886.525	21922
886.65	21869
886.775	21846
886.9	22070
887.025	22150
887.149	21880
887.274	21751
887.399	21663
887.523	21606
887.648	21557
887.773	21648
887.897	21861
888.021	21720
888.146	21652
888.27	21679
888.395	21644
888.519	21694
888.643	21705
888.767	21747
888.891	21622
889.015	21500
889.139	21599
889.263	21435
889.387	21644
889.511	21728
889.635	21641
889.759	21291
889.883	21458
890.006	21412
890.13	21576
890.254	21408
890.377	21424
890.501	21287
890.624	21058
890.748	21233
890.871	21085
890.995	21058
891.118	21028
891.241	20994
891.364	21081
891.488	21100
891.611	20941
891.734	21001
891.857	21089
891.98	21036
892.103	21039
892.226	21032
892.349	20979
892.471	20796
892.594	20937
892.717	20982
892.839	20910
892.962	21020
893.085	20971
893.207	20876
893.33	20762
893.452	20842
893.575	20872
893.697	20868
893.819	21058
893.941	21017
894.064	21055
894.186	20868
894.308	20811
894.43	20956
894.552	21154
894.674	20994
894.796	20944
894.918	20895
895.04	20830
895.161	20861
895.283	20857
895.405	20735
895.526	20902
895.648	20952
895.769	21055
895.891	20895
896.012	20861
896.134	20963
896.255	20918
896.376	20804
896.498	20788
896.619	20910
896.74	20906
896.861	20914
896.982	21093
897.103	21340
897.224	21074
897.345	21142
897.466	20975
897.587	21093
897.708	21241
897.828	21237
897.949	21062
898.07	20800
898.19	21024
898.311	21138
898.431	21051
898.552	21188
898.672	21154
898.792	21176
898.913	21104
899.033	20956
899.153	20918
899.273	20750
899.393	20902
899.513	20842
899.633	20750
899.753	20994
899.873	20720
899.993	20804
900.113	20773
900.232	20762
900.352	20853
900.472	20731
900.591	20651
900.711	20678
900.83	20629
900.95	20594
901.069	20705
901.189	20393
901.308	20389
901.427	20221
901.546	20161
901.665	20191
901.784	20005
901.904	19932
902.023	20001
902.141	19890
902.26	19731
902.379	19818
902.498	19670
902.617	19613
902.735	19677
902.854	19643
902.973	19662
903.091	19324
903.21	19400
903.328	19445
903.446	19251
903.565	19244
903.683	19244
903.801	18981
903.919	19099
904.038	19008
904.156	18913
904.274	18981
904.392	18901
904.51	18829
904.627	18875
904.745	18973
904.863	18837
904.981	18654
905.098	18570
905.216	18631
905.334	18616
905.451	18623
905.569	18502
905.686	18490
905.803	18608
905.921	18308
906.038	18323
906.155	18330
906.272	18285
906.389	18308
906.506	18117
906.623	18144
906.74	18034
906.857	17916
906.974	18049
907.091	18125
907.208	18121
907.324	18060
907.441	17939
907.557	17878
907.674	17847
907.79	17836
907.907	17779
908.023	17805
908.139	17805
908.256	17726
908.372	17668
908.488	17665
908.604	17524
908.72	17490
908.836	17471
908.952	17395
909.068	17566
909.184	17638
909.3	17455
909.415	17512
909.531	17539
909.647	17246
909.762	17204
909.878	17178
909.993	17185
910.108	17181
910.224	17265
910.339	17170
910.454	17079
910.57	16953
910.685	17079
910.8	17220
910.915	17136
911.03	16930
911.145	16812
911.259	16797
911.374	16797
911.489	16645
911.604	16656
911.718	16508
911.833	16607
911.947	16436
912.062	16371
912.176	16508
912.291	16542
912.405	16577
912.519	16702
912.633	16725
912.748	16577
912.862	16485
912.976	16394
913.09	16162
913.204	16257
913.318	16390
913.431	16424
913.545	16432
913.659	16519
913.772	16341
913.886	16188
914	16101
914.113	16299
914.226	16265
914.34	16249
914.453	16036
914.566	16086
914.68	16029
914.793	16040
914.906	15823
915.019	15736
915.132	15671
915.245	15739
915.358	15759
915.47	15713
915.583	15717
915.696	15842
915.809	15823
915.921	15865
916.034	15618
916.146	15625
916.259	15538
916.371	15766
916.483	15633
916.595	15561
916.708	15526
916.82	15538
916.932	15519
917.044	15393
917.156	15530
917.268	15412
917.38	15443
917.491	15287
917.603	15374
917.715	15492
917.826	15397
917.938	15317
918.049	15192
918.161	15207
918.272	15382
918.384	15386
918.495	15287
918.606	15074
918.717	14948
918.828	15112
918.939	15074
919.05	14994
919.161	14994
919.272	14914
919.383	14994
919.494	15085
919.604	15268
919.715	15055
919.826	14994
919.936	14925
920.047	15165
920.157	15051
920.267	15321
920.378	15013
920.488	15028
920.598	15176
920.708	15359
920.818	15252
920.928	15176
921.038	15287
921.148	15218
921.258	15074
921.368	14921
921.477	14792
921.587	14834
921.697	14640
921.806	14754
921.916	14648
922.025	14537
922.134	14362
922.244	14366
922.353	14427
922.462	14267
922.571	14214
922.68	14100
922.789	14054
922.898	14024
923.007	14012
923.116	14123
923.224	14035
923.333	13993
923.442	13875
923.55	13894
923.659	13955
923.767	13925
923.876	13788
923.984	13738
924.092	13814
924.201	13814
924.309	13761
924.417	13753
924.525	13715
924.633	13765
924.741	14667
924.849	13529
924.956	13628
925.064	13472
925.172	13384
925.279	13419
925.387	13430
925.494	13540
925.602	13582
925.709	13438
925.816	13464
925.924	13400
926.031	13460
926.138	13426
926.245	13346
926.352	13312
926.459	13411
926.566	13407
926.673	13259
926.779	13156
926.886	13168
926.993	13080
927.099	12993
927.206	12894
927.312	12932
927.419	13023
927.525	12894
927.631	13031
927.737	12897
927.843	12894
927.95	12711
928.056	12848
928.162	12837
928.267	12821
928.373	13377
928.479	12833
928.585	12662
928.69	12703
928.796	12871
928.901	12642
929.007	12547
929.112	12616
929.218	12601
929.323	12585
929.428	12494
929.533	12711
929.638	12513
929.743	12365
929.848	12623
929.953	12532
930.058	12380
930.163	12216
930.267	12163
930.372	12388
930.477	12209
930.581	12391
930.685	12258
930.79	12098
930.894	12041
930.998	12022
931.103	12129
931.207	11790
931.311	11752
931.415	11630
931.519	11440
931.623	11330
