Data from test_V78500241_1428.txt Node
Date: Fri Mar 25 15:51:41 CST 2022
User: usil
Spectrometer: V785-0024
Trigger mode: 0
Integration Time (sec): 4.000000E-1
Scans to average: 1
Nonlinearity correction enabled: false
Boxcar width: 0
Storing dark spectrum: false
XAxis mode: Wavelengths
Number of Pixels in Spectrum: 1024
>>>>>Begin Spectral Data<<<<<
801.071	28261
801.214	28207
801.356	27914
801.499	27911
801.641	27869
801.783	27819
801.926	27800
802.068	27720
802.211	27679
802.353	27507
802.496	27488
802.638	27439
802.78	27473
802.923	27298
803.065	27313
803.208	27344
803.35	27496
803.492	27507
803.635	27599
803.777	27443
803.919	27682
804.061	27804
804.204	27705
804.346	27515
804.488	27504
804.63	27698
804.773	27401
804.915	27625
805.057	27660
805.199	27732
805.341	27713
805.483	27907
805.626	27724
805.768	27648
805.91	27724
806.052	27835
806.194	27812
806.336	28051
806.478	27930
806.62	27747
806.762	27930
806.904	28070
807.046	28329
807.188	28253
807.33	28150
807.472	28265
807.614	28078
807.756	28207
807.898	28185
808.04	28116
808.182	28040
808.324	28021
808.465	28219
808.607	28352
808.749	28493
808.891	28577
809.033	28603
809.174	28447
809.316	28337
809.458	28341
809.6	28584
809.741	28637
809.883	28668
810.025	28649
810.166	28866
810.308	28816
810.45	28793
810.591	28459
810.733	28443
810.875	28459
811.016	28249
811.158	28310
811.299	28394
811.441	28584
811.582	28588
811.724	28417
811.865	28516
812.007	28325
812.148	28470
812.29	28459
812.431	28577
812.573	28824
812.714	28816
812.855	28908
812.997	29086
813.138	29113
813.279	28896
813.421	29102
813.562	29025
813.703	28869
813.845	28641
813.986	28424
814.127	28223
814.268	28268
814.41	28230
814.551	28188
814.692	28181
814.833	28036
814.974	28048
815.115	28128
815.256	28059
815.397	28029
815.539	27937
815.68	27922
815.821	27846
815.962	27953
816.103	27823
816.244	27793
816.385	27648
816.526	27591
816.666	27348
816.807	27427
816.948	27545
817.089	27576
817.23	27443
817.371	27370
817.512	27488
817.653	27348
817.793	27378
817.934	27454
818.075	27458
818.216	27526
818.356	27416
818.497	27268
818.638	27199
818.778	27195
818.919	27188
819.06	27135
819.2	27294
819.341	27469
819.481	27370
819.622	27469
819.762	27804
819.903	27770
820.043	27580
820.184	27553
820.324	27485
820.465	27511
820.605	27583
820.746	27580
820.886	27420
821.026	27534
821.167	27542
821.307	27580
821.447	27610
821.588	27405
821.728	27188
821.868	27074
822.008	27009
822.149	26880
822.289	27009
822.429	26746
822.569	26526
822.709	26667
822.849	26457
822.99	26457
823.13	26374
823.27	26282
823.41	26294
823.55	26081
823.69	26233
823.83	26240
823.97	26233
824.11	26012
824.25	25982
824.389	26103
824.529	26096
824.669	26039
824.809	26244
824.949	26024
825.089	26153
825.228	26202
825.368	25932
825.508	26005
825.648	25936
825.787	26012
825.927	26020
826.067	25989
826.206	25951
826.346	26012
826.485	26084
826.625	25974
826.765	25860
826.904	25993
827.044	25700
827.183	25719
827.323	25499
827.462	25666
827.601	25674
827.741	25597
827.88	25689
828.02	25556
828.159	25685
828.298	25616
828.437	25677
828.577	25662
828.716	25685
828.855	25533
828.994	25354
829.134	25396
829.273	25400
829.412	25187
829.551	25327
829.69	25308
829.829	25278
829.968	25346
830.107	25537
830.246	25438
830.385	25316
830.524	25141
830.663	25358
830.802	24962
830.941	24913
831.08	25042
831.219	25084
831.357	24977
831.496	25236
831.635	25034
831.774	24901
831.913	24798
832.051	24684
832.19	24837
832.329	24935
832.467	24703
832.606	24703
832.744	24574
832.883	24639
833.022	24479
833.16	24768
833.299	24631
833.437	24814
833.576	24665
833.714	24734
833.852	24848
833.991	24642
834.129	24730
834.267	24802
834.406	24749
834.544	24578
834.682	24669
834.821	24749
834.959	24817
835.097	24684
835.235	24696
835.373	24650
835.511	24646
835.65	24391
835.788	24604
835.926	24410
836.064	24319
836.202	24505
836.34	24429
836.478	24608
836.615	24525
836.753	24563
836.891	24551
837.029	24521
837.167	24570
837.305	24589
837.443	24464
837.58	24361
837.718	24395
837.856	24467
837.993	24445
838.131	24330
838.269	24213
838.406	24251
838.544	24224
838.681	24022
838.819	24098
838.956	23794
839.094	23885
839.231	23821
839.369	23984
839.506	24270
839.643	23996
839.781	23897
839.918	23707
840.055	23912
840.193	23832
840.33	23824
840.467	23756
840.604	23832
840.742	23996
840.879	23638
841.016	23687
841.153	23600
841.29	23832
841.427	23764
841.564	23760
841.701	23832
841.838	23672
841.975	23539
842.112	23710
842.249	23535
842.385	23463
842.522	23786
842.659	23562
842.796	23421
842.933	23493
843.069	23387
843.206	23471
843.343	23608
843.479	23509
843.616	23429
843.752	23311
843.889	23322
844.025	23448
844.162	23364
844.298	23315
844.435	23337
844.571	23273
844.708	23246
844.844	23425
844.98	23410
845.117	23341
845.253	23170
845.389	23140
845.525	23124
845.661	23094
845.798	23006
845.934	23071
846.07	22927
846.206	23010
846.342	23197
846.478	22946
846.614	22759
846.75	22740
846.886	22767
847.022	22824
847.158	22774
847.294	22767
847.429	22721
847.565	22679
847.701	22892
847.837	22443
847.972	22238
848.108	22489
848.244	22462
848.379	22284
848.515	22249
848.65	22329
848.786	22257
848.921	22196
849.057	22424
849.192	22504
849.328	22512
849.463	22379
849.598	22150
849.734	22166
849.869	22150
850.004	22101
850.14	22265
850.275	21953
850.41	21991
850.545	22013
850.68	22097
850.815	22166
850.95	22036
851.085	22211
851.22	22204
851.355	22135
851.49	22070
851.625	22055
851.76	21991
851.895	21915
852.03	21983
852.165	22181
852.299	22078
852.434	22150
852.569	22120
852.703	22124
852.838	22051
852.973	22219
853.107	22147
853.242	22025
853.376	21926
853.511	21854
853.645	21823
853.78	22051
853.914	21915
854.048	21747
854.183	21705
854.317	22006
854.451	22166
854.585	21888
854.72	21926
854.854	21972
854.988	21793
855.122	21857
855.256	21835
855.39	21831
855.524	21930
855.658	21964
855.792	21842
855.926	21873
856.06	21838
856.194	22059
856.327	21911
856.461	21979
856.595	21892
856.729	21907
856.862	22055
856.996	21926
857.13	21918
857.263	21911
857.397	22139
857.53	21926
857.664	22090
857.797	21907
857.931	21789
858.064	21945
858.197	21960
858.331	21873
858.464	21876
858.597	21751
858.731	21861
858.864	21819
858.997	21857
859.13	21911
859.263	21899
859.396	22051
859.529	21903
859.662	21838
859.795	21869
859.928	21930
860.061	22150
860.194	22078
860.327	21968
860.46	21850
860.592	21983
860.725	22082
860.858	21922
860.99	21930
861.123	21854
861.256	21835
861.388	21975
861.521	22611
861.653	21709
861.786	21694
861.918	21778
862.05	21736
862.183	21857
862.315	21884
862.447	21884
862.58	21770
862.712	21618
862.844	21637
862.976	21781
863.108	21591
863.24	22120
863.372	21545
863.504	21580
863.636	21553
863.768	21618
863.9	21564
864.032	21466
864.164	21564
864.296	21507
864.428	21785
864.559	21682
864.691	21545
864.823	21587
864.954	21675
865.086	21591
865.217	21561
865.349	21367
865.48	21557
865.612	21500
865.743	21671
865.875	21511
866.006	21370
866.137	21416
866.269	21538
866.4	21545
866.531	21534
866.662	21332
866.793	21462
866.924	21458
867.055	21386
867.186	21485
867.317	21313
867.448	21298
867.579	21344
867.71	21275
867.841	21416
867.972	21458
868.103	21412
868.233	21329
868.364	21420
868.495	21462
868.625	21694
868.756	21766
868.886	21629
869.017	21622
869.147	21743
869.278	21835
869.408	21595
869.539	21618
869.669	21701
869.799	21633
869.929	21884
870.06	21888
870.19	22040
870.32	21937
870.45	21949
870.58	21994
870.71	22200
870.84	22116
870.97	21991
871.1	22070
871.23	22261
871.36	22204
871.489	22234
871.619	22192
871.749	22185
871.879	22238
872.008	22523
872.138	22333
872.267	22211
872.397	22223
872.526	21968
872.656	22112
872.785	22162
872.915	22344
873.044	22325
873.173	22207
873.303	22337
873.432	22284
873.561	22272
873.69	22207
873.819	22090
873.948	22211
874.077	22333
874.206	22299
874.335	22318
874.464	22360
874.593	22500
874.722	22489
874.851	22561
874.979	22516
875.108	22527
875.237	22371
875.365	22421
875.494	22527
875.623	22561
875.751	22451
875.88	22611
876.008	22557
876.136	22698
876.265	22850
876.393	22995
876.521	23044
876.65	22934
876.778	22968
876.906	22858
877.034	22824
877.162	22854
877.29	22740
877.418	22847
877.546	22805
877.674	22866
877.802	22843
877.93	22877
878.058	22843
878.185	22736
878.313	22869
878.441	22889
878.568	22763
878.696	22824
878.824	22965
878.951	22938
879.079	22984
879.206	23128
879.333	23124
879.461	22869
879.588	22957
879.715	23132
879.842	23102
879.97	22843
880.097	22744
880.224	22645
880.351	22782
880.478	22733
880.605	22656
880.732	22691
880.859	22877
880.986	22763
881.112	22660
881.239	22691
881.366	22337
881.493	22417
881.619	22325
881.746	22249
881.872	22284
881.999	22284
882.125	22158
882.252	22226
882.378	22211
882.505	22276
882.631	22173
882.757	21994
882.883	22017
883.01	21831
883.136	21934
883.262	21739
883.388	21736
883.514	21918
883.64	22021
883.766	21751
883.892	21675
884.018	21732
884.143	21804
884.269	21850
884.395	21732
884.52	21610
884.646	21736
884.772	21622
884.897	21458
885.023	21576
885.148	21572
885.274	21705
885.399	21694
885.524	21648
885.65	21583
885.775	21622
885.9	21496
886.025	21663
886.15	21637
886.275	21538
886.4	21321
886.525	21439
886.65	21401
886.775	21530
886.9	21644
887.025	21789
887.149	21603
887.274	21496
887.399	21249
887.523	21378
887.648	21287
887.773	21359
887.897	21367
888.021	21340
888.146	21154
888.27	21351
888.395	21374
888.519	21351
888.643	21386
888.767	21435
888.891	21226
889.015	21169
889.139	21119
889.263	21131
889.387	21283
889.511	21294
889.635	21211
889.759	21104
889.883	21176
890.006	21116
890.13	21207
890.254	21100
890.377	21001
890.501	20941
890.624	20823
890.748	20861
890.871	20823
890.995	20716
891.118	20712
891.241	20708
891.364	20792
891.488	20826
891.611	20735
891.734	20617
891.857	20765
891.98	20693
892.103	20785
892.226	20697
892.349	20632
892.471	20499
892.594	20613
892.717	20693
892.839	20556
892.962	20564
893.085	20587
893.207	20613
893.33	20396
893.452	20503
893.575	20514
893.697	20644
893.819	20845
893.941	20705
894.064	20579
894.186	20583
894.308	20415
894.43	20667
894.552	20705
894.674	20682
894.796	20522
894.918	20514
895.04	20526
895.161	20678
895.283	20678
895.405	20571
895.526	20575
895.648	20507
895.769	20598
895.891	20617
896.012	20701
896.134	20587
896.255	20571
896.376	20476
896.498	20549
896.619	20560
896.74	20545
896.861	20571
896.982	20925
897.103	21058
897.224	20785
897.345	20796
897.466	20746
897.587	20781
897.708	20849
897.828	20872
897.949	20708
898.07	20659
898.19	20735
898.311	20849
898.431	20746
898.552	20811
898.672	20918
898.792	20914
898.913	20941
899.033	20701
899.153	20552
899.273	20499
899.393	20457
899.513	20575
899.633	20568
899.753	20621
899.873	20438
899.993	20480
900.113	20473
900.232	20389
900.352	20423
900.472	20301
900.591	20324
900.711	20358
900.83	20275
900.95	20320
901.069	20195
901.189	20172
901.308	19936
901.427	19879
901.546	19811
901.665	19913
901.784	19864
901.904	19753
902.023	19601
902.141	19567
902.26	19415
902.379	19369
902.498	19358
902.617	19285
902.735	19320
902.854	19259
902.973	19335
903.091	19053
903.21	18951
903.328	19065
903.446	18977
903.565	18875
903.683	18886
903.801	18661
903.919	18840
904.038	18798
904.156	18555
904.274	18593
904.392	18517
904.51	18601
904.627	18555
904.745	18532
904.863	18593
904.981	18369
905.098	18350
905.216	18243
905.334	18262
905.451	18213
905.569	18304
905.686	18338
905.803	18205
905.921	18125
906.038	18133
906.155	17942
906.272	17942
906.389	18060
906.506	17775
906.623	17741
906.74	17863
906.857	17665
906.974	17794
907.091	17767
907.208	17866
907.324	17942
907.441	17657
907.557	17646
907.674	17463
907.79	17505
907.907	17429
908.023	17592
908.139	17528
908.256	17512
908.372	17315
908.488	17334
908.604	17376
908.72	17246
908.836	17280
908.952	17105
909.068	17246
909.184	17288
909.3	17246
909.415	17178
909.531	17155
909.647	16927
909.762	16934
909.878	16835
909.993	16934
910.108	16938
910.224	16953
910.339	16881
910.454	16805
910.57	16801
910.685	16717
910.8	16927
910.915	16828
911.03	16634
911.145	16470
911.259	16428
911.374	16481
911.489	16485
911.604	16363
911.718	16238
911.833	16284
911.947	16143
912.062	16143
912.176	16341
912.291	16295
912.405	16333
912.519	16436
912.633	16466
912.748	16272
912.862	16150
912.976	16036
913.09	15975
913.204	16032
913.318	16048
913.431	16162
913.545	16093
913.659	16219
913.772	16017
913.886	15998
914	15800
914.113	15975
914.226	15994
914.34	15880
914.453	15789
914.566	15892
914.68	15720
914.793	15709
914.906	15553
915.019	15545
915.132	15496
915.245	15397
915.358	15504
915.47	15469
915.583	15477
915.696	15515
915.809	15610
915.921	15549
916.034	15420
916.146	15298
916.259	15332
916.371	15454
916.483	15477
916.595	15279
916.708	15230
916.82	15336
916.932	15150
917.044	15195
917.156	15203
917.268	15089
917.38	15104
917.491	15066
917.603	15039
917.715	15249
917.826	15214
917.938	15020
918.049	14941
918.161	15051
918.272	15112
918.384	15192
918.495	15024
918.606	14910
918.717	14902
918.828	15020
918.939	14937
919.05	14750
919.161	14823
919.272	14625
919.383	14670
919.494	14899
919.604	15108
919.715	14826
919.826	14651
919.936	14876
920.047	14902
920.157	14834
920.267	14967
920.378	14868
920.488	14880
920.598	14952
920.708	15157
920.818	14990
920.928	15017
921.038	15043
921.148	15085
921.258	14720
921.368	14549
921.477	14537
921.587	14606
921.697	14446
921.806	14575
921.916	14332
922.025	14282
922.134	14138
922.244	14142
922.353	14168
922.462	14073
922.571	14008
922.68	13833
922.789	13860
922.898	13871
923.007	13784
923.116	13875
923.224	13761
923.333	13822
923.442	13658
923.55	13628
923.659	13655
923.767	13689
923.876	13616
923.984	13719
924.092	13495
924.201	13628
924.309	13563
924.417	13434
924.525	13419
924.633	13495
924.741	14214
924.849	13263
924.956	13426
925.064	13232
925.172	13206
925.279	13251
925.387	13316
925.494	13301
925.602	13415
925.709	13259
925.816	13050
925.924	13076
926.031	13255
926.138	13137
926.245	13190
926.352	13076
926.459	13236
926.566	13225
926.673	13118
926.779	12909
926.886	12981
926.993	12909
927.099	12757
927.206	12669
927.312	12833
927.419	12692
927.525	12738
927.631	12802
927.737	12681
927.843	12753
927.95	12479
928.056	12521
928.162	12650
928.267	12578
928.373	13308
928.479	12650
928.585	12342
928.69	12574
928.796	12574
928.901	12395
929.007	12270
929.112	12483
929.218	12502
929.323	12334
929.428	12395
929.533	12376
929.638	12296
929.743	12201
929.848	12346
929.953	12251
930.058	12194
930.163	12041
930.267	12030
930.372	12072
930.477	11950
930.581	12224
930.685	12049
930.79	11988
930.894	11847
930.998	11889
931.103	11950
931.207	11680
931.311	11570
931.415	11398
931.519	11292
931.623	11284
