Data from test_V78500241_3702.txt Node
Date: Fri Mar 25 16:07:26 CST 2022
User: usil
Spectrometer: V785-0024
Trigger mode: 0
Integration Time (sec): 4.000000E-1
Scans to average: 1
Nonlinearity correction enabled: false
Boxcar width: 0
Storing dark spectrum: false
XAxis mode: Wavelengths
Number of Pixels in Spectrum: 1024
>>>>>Begin Spectral Data<<<<<
801.071	28344
801.214	28295
801.356	28067
801.499	27991
801.641	27827
801.783	27975
801.926	28006
802.068	27819
802.211	27759
802.353	27835
802.496	27507
802.638	27553
802.78	27591
802.923	27564
803.065	27431
803.208	27549
803.35	27496
803.492	27747
803.635	27614
803.777	27698
803.919	27800
804.061	28082
804.204	27812
804.346	27850
804.488	27720
804.63	27903
804.773	27656
804.915	27865
805.057	27880
805.199	27793
805.341	27827
805.483	27998
805.626	27907
805.768	27930
805.91	27934
806.052	27972
806.194	27888
806.336	28188
806.478	27968
806.62	28051
806.762	28078
806.904	28299
807.046	28512
807.188	28306
807.33	28447
807.472	28417
807.614	28440
807.756	28371
807.898	28329
808.04	28139
808.182	28169
808.324	28265
808.465	28337
808.607	28683
808.749	28706
808.891	28733
809.033	28744
809.174	28698
809.316	28710
809.458	28630
809.6	28615
809.741	28790
809.883	28809
810.025	28900
810.166	28957
810.308	28938
810.45	28930
810.591	28908
810.733	28850
810.875	28721
811.016	28580
811.158	28516
811.299	28831
811.441	28778
811.582	28873
811.724	28790
811.865	28603
812.007	28645
812.148	28592
812.29	28736
812.431	28881
812.573	28858
812.714	29212
812.855	29181
812.997	29356
813.138	29566
813.279	29375
813.421	29136
813.562	29208
813.703	28839
813.845	28873
813.986	28596
814.127	28436
814.268	28379
814.41	28455
814.551	28318
814.692	28500
814.833	28257
814.974	28333
815.115	28367
815.256	28348
815.397	28078
815.539	28352
815.68	28128
815.821	28101
815.962	28135
816.103	28101
816.244	27998
816.385	27994
816.526	27934
816.666	27785
816.807	27572
816.948	27770
817.089	27819
817.23	27713
817.371	27576
817.512	27720
817.653	27652
817.793	27671
817.934	27606
818.075	27656
818.216	27682
818.356	27526
818.497	27542
818.638	27355
818.778	27504
818.919	27420
819.06	27515
819.2	27557
819.341	27690
819.481	27587
819.622	27797
819.762	28013
819.903	27934
820.043	27720
820.184	27918
820.324	27892
820.465	27842
820.605	27846
820.746	27785
820.886	27610
821.026	28006
821.167	27622
821.307	27793
821.447	27709
821.588	27587
821.728	27481
821.868	27317
822.008	27173
822.149	27154
822.289	27184
822.429	26933
822.569	26800
822.709	26769
822.849	26682
822.99	26743
823.13	26663
823.27	26651
823.41	26355
823.55	26305
823.69	26431
823.83	26434
823.97	26457
824.11	26183
824.25	26294
824.389	26206
824.529	26336
824.669	26389
824.809	26366
824.949	26476
825.089	26438
825.228	26271
825.368	26218
825.508	26180
825.648	26168
825.787	26153
825.927	26240
826.067	26126
826.206	26305
826.346	26328
826.485	26195
826.625	26199
826.765	26355
826.904	26252
827.044	25982
827.183	26039
827.323	25864
827.462	25849
827.601	25879
827.741	25818
827.88	25849
828.02	25689
828.159	25852
828.298	25902
828.437	25868
828.577	25830
828.716	26039
828.855	25894
828.994	25670
829.134	25655
829.273	25639
829.412	25571
829.551	25693
829.69	25635
829.829	25647
829.968	25605
830.107	25708
830.246	25677
830.385	25483
830.524	25415
830.663	25202
830.802	25270
830.941	25263
831.08	25080
831.219	25278
831.357	25308
831.496	25445
831.635	25118
831.774	25095
831.913	25091
832.051	24905
832.19	24905
832.329	24882
832.467	24833
832.606	24897
832.744	24852
832.883	24844
833.022	24772
833.16	24791
833.299	24875
833.437	24932
833.576	24871
833.714	24901
833.852	24970
833.991	24935
834.129	25126
834.267	24878
834.406	25004
834.544	25046
834.682	24894
834.821	24871
834.959	25042
835.097	24817
835.235	24943
835.373	25019
835.511	24894
835.65	24760
835.788	24814
835.926	24772
836.064	24681
836.202	24730
836.34	24787
836.478	24924
836.615	24817
836.753	24665
836.891	24757
837.029	24814
837.167	24681
837.305	24650
837.443	24521
837.58	24513
837.718	24578
837.856	24574
837.993	24616
838.131	24540
838.269	24544
838.406	24475
838.544	24365
838.681	24258
838.819	24205
838.956	24011
839.094	24045
839.231	24076
839.369	24251
839.506	24452
839.643	24273
839.781	24060
839.918	23843
840.055	24007
840.193	24038
840.33	23961
840.467	23969
840.604	23973
840.742	24247
840.879	23832
841.016	23870
841.153	23904
841.29	24034
841.427	24057
841.564	24015
841.701	23942
841.838	23920
841.975	23885
842.112	23805
842.249	23722
842.385	23809
842.522	23920
842.659	23859
842.796	23707
842.933	23737
843.069	23634
843.206	23627
843.343	23779
843.479	23619
843.616	23790
843.752	23497
843.889	23573
844.025	23638
844.162	23356
844.298	23585
844.435	23452
844.571	23512
844.708	23585
844.844	23695
844.98	23642
845.117	23539
845.253	23414
845.389	23501
845.525	23429
845.661	23482
845.798	23277
845.934	23410
846.07	23277
846.206	23223
846.342	23334
846.478	23239
846.614	23109
846.75	22752
846.886	23071
847.022	22995
847.158	22976
847.294	22980
847.429	23037
847.565	22953
847.701	23143
847.837	22687
847.972	22626
848.108	22786
848.244	22824
848.379	22596
848.515	22569
848.65	22557
848.786	22649
848.921	22504
849.057	22694
849.192	22672
849.328	22546
849.463	22584
849.598	22516
849.734	22527
849.869	22481
850.004	22398
850.14	22318
850.275	22303
850.41	22200
850.545	22215
850.68	22299
850.815	22451
850.95	22451
851.085	22538
851.22	22382
851.355	22287
851.49	22291
851.625	22348
851.76	22329
851.895	22173
852.03	22234
852.165	22268
852.299	22405
852.434	22596
852.569	22295
852.703	22360
852.838	22352
852.973	22508
853.107	22363
853.242	22253
853.376	22177
853.511	22040
853.645	22109
853.78	22181
853.914	22143
854.048	22086
854.183	22192
854.317	22204
854.451	22280
854.585	22211
854.72	22211
854.854	22341
854.988	22207
855.122	22188
855.256	22017
855.39	22147
855.524	22306
855.658	22173
855.792	22169
855.926	22128
856.06	22177
856.194	22147
856.327	22128
856.461	22169
856.595	22093
856.729	22093
856.862	22169
856.996	22150
857.13	22291
857.263	22276
857.397	22223
857.53	22093
857.664	22322
857.797	22284
857.931	22413
858.064	22109
858.197	22223
858.331	22265
858.464	22128
858.597	21994
858.731	22082
858.864	22109
858.997	22101
859.13	22116
859.263	22105
859.396	22207
859.529	22036
859.662	22021
859.795	21960
859.928	22173
860.061	22287
860.194	22390
860.327	22158
860.46	22226
860.592	22219
860.725	22238
860.858	22238
860.99	22188
861.123	22048
861.256	22124
861.388	22158
861.521	22938
861.653	22093
861.786	21956
861.918	21979
862.05	21998
862.183	21926
862.315	22166
862.447	22086
862.58	22074
862.712	21812
862.844	21705
862.976	21987
863.108	21846
863.24	22303
863.372	21728
863.504	21797
863.636	21907
863.768	21983
863.9	21842
864.032	21819
864.164	21797
864.296	21956
864.428	22051
864.559	21903
864.691	22002
864.823	21861
864.954	21831
865.086	21762
865.217	21732
865.349	21709
865.48	21778
865.612	21713
865.743	21972
865.875	21812
866.006	21717
866.137	21732
866.269	21728
866.4	21675
866.531	21660
866.662	21637
866.793	21618
866.924	21724
867.055	21637
867.186	21720
867.317	21644
867.448	21599
867.579	21583
867.71	21526
867.841	21682
867.972	21606
868.103	21618
868.233	21728
868.364	21568
868.495	21762
868.625	21869
868.756	22055
868.886	21842
869.017	21934
869.147	21975
869.278	21979
869.408	22036
869.539	21854
869.669	22013
869.799	22013
869.929	21987
870.06	22040
870.19	22280
870.32	22185
870.45	22158
870.58	22268
870.71	22375
870.84	22459
870.97	22230
871.1	22272
871.23	22474
871.36	22588
871.489	22497
871.619	22527
871.749	22455
871.879	22462
872.008	22649
872.138	22478
872.267	22493
872.397	22516
872.526	22481
872.656	22329
872.785	22276
872.915	22462
873.044	22626
873.173	22474
873.303	22637
873.432	22531
873.561	22519
873.69	22550
873.819	22531
873.948	22618
874.077	22531
874.206	22421
874.335	22440
874.464	22611
874.593	22820
874.722	22687
874.851	22862
874.979	22892
875.108	22740
875.237	22725
875.365	22698
875.494	22763
875.623	22679
875.751	22702
875.88	22881
876.008	22869
876.136	22949
876.265	23117
876.393	23246
876.521	23269
876.65	23098
876.778	23022
876.906	23014
877.034	23079
877.162	23037
877.29	23003
877.418	23121
877.546	23151
877.674	23075
877.802	23140
877.93	23147
878.058	22938
878.185	23048
878.313	23022
878.441	23067
878.568	22900
878.696	23041
878.824	23170
878.951	23284
879.079	23258
879.206	23417
879.333	23239
879.461	23220
879.588	23128
879.715	23307
879.842	23467
879.97	23124
880.097	22919
880.224	22949
880.351	22961
880.478	22949
880.605	22850
880.732	22873
880.859	23090
880.986	22892
881.112	22790
881.239	22835
881.366	22649
881.493	22679
881.619	22565
881.746	22432
881.872	22535
881.999	22436
882.125	22489
882.252	22561
882.378	22409
882.505	22588
882.631	22447
882.757	22234
882.883	22219
883.01	22215
883.136	22177
883.262	22070
883.388	22101
883.514	22207
883.64	22226
883.766	22029
883.892	21987
884.018	22013
884.143	22169
884.269	22116
884.395	22002
884.52	21846
884.646	21838
884.772	21728
884.897	21686
885.023	21968
885.148	21869
885.274	21998
885.399	21827
885.524	21956
885.65	21789
885.775	21797
885.9	21789
886.025	22051
886.15	21854
886.275	21724
886.4	21675
886.525	21755
886.65	21739
886.775	21709
886.9	21861
887.025	21979
887.149	21846
887.274	21629
887.399	21644
887.523	21587
887.648	21595
887.773	21534
887.897	21660
888.021	21583
888.146	21530
888.27	21660
888.395	21671
888.519	21701
888.643	21679
888.767	21500
888.891	21389
889.015	21310
889.139	21420
889.263	21454
889.387	21439
889.511	21572
889.635	21416
889.759	21306
889.883	21313
890.006	21408
890.13	21378
890.254	21222
890.377	21245
890.501	21100
890.624	21074
890.748	21233
890.871	21001
890.995	20956
891.118	20880
891.241	20902
891.364	20929
891.488	21039
891.611	20979
891.734	20986
891.857	21017
891.98	21020
892.103	20933
892.226	20914
892.349	20925
892.471	20686
892.594	20849
892.717	20845
892.839	20811
892.962	20899
893.085	20823
893.207	20758
893.33	20701
893.452	20777
893.575	20861
893.697	20754
893.819	21020
893.941	20979
894.064	20944
894.186	20739
894.308	20785
894.43	20975
894.552	20948
894.674	20762
894.796	20705
894.918	20625
895.04	20701
895.161	20857
895.283	20834
895.405	20800
895.526	20823
895.648	20823
895.769	20739
895.891	20876
896.012	20800
896.134	20845
896.255	20739
896.376	20773
896.498	20686
896.619	20739
896.74	20758
896.861	20792
896.982	21028
897.103	21256
897.224	21051
897.345	20967
897.466	20921
897.587	20956
897.708	21207
897.828	21131
897.949	20967
898.07	20792
898.19	20895
898.311	21169
898.431	20952
898.552	21024
898.672	21142
898.792	21104
898.913	21146
899.033	20883
899.153	20807
899.273	20735
899.393	20834
899.513	20682
899.633	20834
899.753	20754
899.873	20670
899.993	20796
900.113	20629
900.232	20689
900.352	20632
900.472	20564
900.591	20476
900.711	20579
900.83	20446
900.95	20640
901.069	20602
901.189	20427
901.308	20278
901.427	20119
901.546	20100
901.665	20001
901.784	20088
901.904	19925
902.023	19814
902.141	19708
902.26	19746
902.379	19693
902.498	19559
902.617	19525
902.735	19696
902.854	19518
902.973	19544
903.091	19354
903.21	19301
903.328	19324
903.446	19206
903.565	19042
903.683	19095
903.801	18886
903.919	18973
904.038	19046
904.156	18894
904.274	18973
904.392	18730
904.51	18760
904.627	18802
904.745	18951
904.863	18821
904.981	18460
905.098	18498
905.216	18574
905.334	18498
905.451	18639
905.569	18502
905.686	18536
905.803	18448
905.921	18273
906.038	18296
906.155	18319
906.272	18163
906.389	18232
906.506	18129
906.623	18125
906.74	18133
906.857	17935
906.974	18026
907.091	18079
907.208	18114
907.324	18144
907.441	17912
907.557	17596
907.674	17752
907.79	17649
907.907	17718
908.023	17684
908.139	17805
908.256	17786
908.372	17604
908.488	17611
908.604	17452
908.72	17311
908.836	17421
908.952	17406
909.068	17425
909.184	17524
909.3	17452
909.415	17524
909.531	17356
909.647	17113
909.762	17246
909.878	17094
909.993	17128
910.108	17254
910.224	17117
910.339	17045
910.454	17037
910.57	16900
910.685	16820
910.8	17208
910.915	17185
911.03	16866
911.145	16778
911.259	16713
911.374	16809
911.489	16580
911.604	16687
911.718	16504
911.833	16417
911.947	16337
912.062	16219
912.176	16558
912.291	16565
912.405	16531
912.519	16550
912.633	16599
912.748	16466
912.862	16417
912.976	16306
913.09	16211
913.204	16325
913.318	16238
913.431	16310
913.545	16337
913.659	16367
913.772	16215
913.886	16078
914	16002
914.113	16112
914.226	16299
914.34	16162
914.453	15998
914.566	16082
914.68	15949
914.793	15915
914.906	15732
915.019	15675
915.132	15648
915.245	15610
915.358	15705
915.47	15625
915.583	15603
915.696	15732
915.809	15698
915.921	15694
916.034	15564
916.146	15618
916.259	15542
916.371	15587
916.483	15584
916.595	15370
916.708	15488
916.82	15492
916.932	15458
917.044	15382
917.156	15481
917.268	15405
917.38	15260
917.491	15283
917.603	15348
917.715	15344
917.826	15382
917.938	15256
918.049	15112
918.161	15249
918.272	15336
918.384	15439
918.495	15154
918.606	15104
918.717	15024
918.828	15077
918.939	15093
919.05	15032
919.161	14937
919.272	14868
919.383	14902
919.494	15104
919.604	15294
919.715	15001
919.826	14960
919.936	14956
920.047	15043
920.157	15036
920.267	15157
920.378	14990
920.488	15058
920.598	15131
920.708	15272
920.818	15100
920.928	15074
921.038	15245
921.148	15188
921.258	14963
921.368	14872
921.477	14693
921.587	14746
921.697	14552
921.806	14678
921.916	14507
922.025	14495
922.134	14423
922.244	14267
922.353	14476
922.462	14237
922.571	14065
922.68	14058
922.789	14005
922.898	13986
923.007	13917
923.116	14077
923.224	13986
923.333	13917
923.442	13761
923.55	13814
923.659	13833
923.767	13826
923.876	13799
923.984	13849
924.092	13590
924.201	13723
924.309	13750
924.417	13761
924.525	13651
924.633	13578
924.741	14507
924.849	13457
924.956	13677
925.064	13434
925.172	13400
925.279	13403
925.387	13422
925.494	13415
925.602	13464
925.709	13464
925.816	13308
925.924	13316
926.031	13377
926.138	13365
926.245	13384
926.352	13297
926.459	13327
926.566	13369
926.673	13179
926.779	13099
926.886	13023
926.993	12966
927.099	13065
927.206	12852
927.312	12935
927.419	13015
927.525	12913
927.631	12840
927.737	12817
927.843	12814
927.95	12658
928.056	12810
928.162	12738
928.267	12783
928.373	13438
928.479	12848
928.585	12616
928.69	12776
928.796	12688
928.901	12639
929.007	12441
929.112	12642
929.218	12551
929.323	12475
929.428	12403
929.533	12608
929.638	12391
929.743	12376
929.848	12460
929.953	12399
930.058	12201
930.163	12175
930.267	12239
930.372	12277
930.477	12140
930.581	12315
930.685	12201
930.79	12072
930.894	11946
930.998	11992
931.103	12136
931.207	11813
931.311	11741
931.415	11638
931.519	11341
931.623	11383
