Data from test_V78500241_3722.txt Node
Date: Fri Mar 25 16:07:35 CST 2022
User: usil
Spectrometer: V785-0024
Trigger mode: 0
Integration Time (sec): 4.000000E-1
Scans to average: 1
Nonlinearity correction enabled: false
Boxcar width: 0
Storing dark spectrum: false
XAxis mode: Wavelengths
Number of Pixels in Spectrum: 1024
>>>>>Begin Spectral Data<<<<<
801.071	28325
801.214	28204
801.356	28139
801.499	28055
801.641	28101
801.783	27964
801.926	28029
802.068	27903
802.211	27873
802.353	27739
802.496	27728
802.638	27564
802.78	27622
802.923	27530
803.065	27481
803.208	27496
803.35	27633
803.492	27800
803.635	27831
803.777	27835
803.919	27850
804.061	28025
804.204	27789
804.346	27739
804.488	27641
804.63	27732
804.773	27766
804.915	27949
805.057	27857
805.199	27819
805.341	27975
805.483	28070
805.626	27960
805.768	27934
805.91	28010
806.052	28021
806.194	27922
806.336	28025
806.478	27854
806.62	27968
806.762	27907
806.904	28219
807.046	28451
807.188	28466
807.33	28401
807.472	28470
807.614	28318
807.756	28322
807.898	28147
808.04	28177
808.182	28249
808.324	28219
808.465	28367
808.607	28390
808.749	28691
808.891	28805
809.033	28736
809.174	28584
809.316	28538
809.458	28687
809.6	28550
809.741	28687
809.883	28672
810.025	28930
810.166	28847
810.308	28896
810.45	28915
810.591	28934
810.733	28577
810.875	28710
811.016	28550
811.158	28554
811.299	28828
811.441	28850
811.582	28843
811.724	28679
811.865	28698
812.007	28816
812.148	28748
812.29	28706
812.431	28782
812.573	29044
812.714	28991
812.855	29132
812.997	29273
813.138	29429
813.279	29318
813.421	29174
813.562	29083
813.703	28934
813.845	28820
813.986	28550
814.127	28546
814.268	28451
814.41	28360
814.551	28322
814.692	28432
814.833	28280
814.974	28306
815.115	28421
815.256	28329
815.397	28211
815.539	28230
815.68	28246
815.821	28192
815.962	28200
816.103	28105
816.244	28044
816.385	28002
816.526	27941
816.666	27793
816.807	27755
816.948	27686
817.089	27694
817.23	27800
817.371	27564
817.512	27595
817.653	27679
817.793	27587
817.934	27542
818.075	27557
818.216	27629
818.356	27644
818.497	27519
818.638	27332
818.778	27458
818.919	27389
819.06	27519
819.2	27511
819.341	27618
819.481	27606
819.622	27770
819.762	28010
819.903	27937
820.043	27819
820.184	27854
820.324	27728
820.465	27698
820.605	27793
820.746	27816
820.886	27698
821.026	27652
821.167	27629
821.307	27732
821.447	27614
821.588	27667
821.728	27374
821.868	27321
822.008	27195
822.149	27146
822.289	27161
822.429	27074
822.569	26956
822.709	26765
822.849	26625
822.99	26640
823.13	26686
823.27	26640
823.41	26579
823.55	26328
823.69	26434
823.83	26457
823.97	26309
824.11	26442
824.25	26191
824.389	26313
824.529	26176
824.669	26240
824.809	26389
824.949	26362
825.089	26355
825.228	26358
825.368	26077
825.508	26096
825.648	26119
825.787	26153
825.927	26256
826.067	26187
826.206	26020
826.346	26164
826.485	26221
826.625	26176
826.765	26366
826.904	26164
827.044	25997
827.183	26024
827.323	25712
827.462	25944
827.601	25879
827.741	25890
827.88	25871
828.02	25814
828.159	25822
828.298	25772
828.437	25917
828.577	25753
828.716	26005
828.855	25890
828.994	25586
829.134	25457
829.273	25632
829.412	25529
829.551	25616
829.69	25476
829.829	25540
829.968	25753
830.107	25662
830.246	25518
830.385	25575
830.524	25556
830.663	25388
830.802	25282
830.941	25107
831.08	25133
831.219	25213
831.357	25358
831.496	25293
831.635	25137
831.774	25027
831.913	25000
832.051	24943
832.19	25103
832.329	25065
832.467	24829
832.606	24871
832.744	24833
832.883	24833
833.022	24791
833.16	24825
833.299	24833
833.437	24882
833.576	24882
833.714	24905
833.852	25008
833.991	25000
834.129	24825
834.267	25008
834.406	24939
834.544	24943
834.682	24852
834.821	24837
834.959	25206
835.097	24665
835.235	24996
835.373	24875
835.511	25053
835.65	24696
835.788	24802
835.926	24528
836.064	24589
836.202	24540
836.34	24817
836.478	24745
836.615	24578
836.753	24658
836.891	24787
837.029	24665
837.167	24589
837.305	24608
837.443	24578
837.58	24597
837.718	24513
837.856	24521
837.993	24570
838.131	24612
838.269	24395
838.406	24445
838.544	24372
838.681	24026
838.819	24148
838.956	23973
839.094	23878
839.231	24171
839.369	24201
839.506	24376
839.643	24350
839.781	24018
839.918	23977
840.055	23916
840.193	23946
840.33	24003
840.467	23992
840.604	23912
840.742	24117
840.879	23859
841.016	23779
841.153	23855
841.29	24095
841.427	23828
841.564	23988
841.701	23939
841.838	23817
841.975	23779
842.112	23767
842.249	23813
842.385	23722
842.522	23863
842.659	23699
842.796	23642
842.933	23596
843.069	23649
843.206	23668
843.343	23866
843.479	23642
843.616	23748
843.752	23471
843.889	23497
844.025	23638
844.162	23642
844.298	23710
844.435	23440
844.571	23383
844.708	23471
844.844	23509
844.98	23604
845.117	23646
845.253	23364
845.389	23463
845.525	23277
845.661	23258
845.798	23284
845.934	23277
846.07	23220
846.206	23341
846.342	23284
846.478	23242
846.614	22999
846.75	22923
846.886	22911
847.022	22938
847.158	23033
847.294	22961
847.429	23025
847.565	22976
847.701	23178
847.837	22675
847.972	22649
848.108	22778
848.244	22805
848.379	22493
848.515	22569
848.65	22481
848.786	22561
848.921	22550
849.057	22641
849.192	22675
849.328	22565
849.463	22561
849.598	22485
849.734	22329
849.869	22352
850.004	22272
850.14	22246
850.275	22238
850.41	22261
850.545	22268
850.68	22207
850.815	22443
850.95	22284
851.085	22519
851.22	22348
851.355	22253
851.49	22367
851.625	22246
851.76	22295
851.895	22280
852.03	22185
852.165	22310
852.299	22196
852.434	22436
852.569	22333
852.703	22333
852.838	22253
852.973	22413
853.107	22303
853.242	22200
853.376	22097
853.511	22192
853.645	22150
853.78	22226
853.914	22150
854.048	22078
854.183	22109
854.317	22204
854.451	22295
854.585	22051
854.72	22143
854.854	22196
854.988	22120
855.122	22131
855.256	22044
855.39	22059
855.524	22112
855.658	22112
855.792	22226
855.926	22093
856.06	22181
856.194	22124
856.327	22063
856.461	22143
856.595	21987
856.729	22135
856.862	22238
856.996	22131
857.13	22226
857.263	22284
857.397	22150
857.53	22082
857.664	22143
857.797	22112
857.931	22082
858.064	22196
858.197	22257
858.331	22070
858.464	21998
858.597	21968
858.731	22139
858.864	22139
858.997	22025
859.13	22128
859.263	22139
859.396	22249
859.529	22017
859.662	22021
859.795	21941
859.928	22074
860.061	22169
860.194	22242
860.327	22109
860.46	22017
860.592	22215
860.725	22265
860.858	22063
860.99	22162
861.123	22032
861.256	21994
861.388	22082
861.521	22660
861.653	21987
861.786	21850
861.918	21911
862.05	22032
862.183	22029
862.315	22021
862.447	22097
862.58	22055
862.712	21819
862.844	21819
862.976	21953
863.108	21907
863.24	22211
863.372	21823
863.504	21930
863.636	21869
863.768	21800
863.9	21819
864.032	21698
864.164	21949
864.296	21835
864.428	21941
864.559	21869
864.691	21880
864.823	21838
864.954	21827
865.086	21755
865.217	21675
865.349	21652
865.48	21755
865.612	21698
865.743	21808
865.875	21724
866.006	21778
866.137	21755
866.269	21698
866.4	21663
866.531	21679
866.662	21603
866.793	21652
866.924	21587
867.055	21606
867.186	21652
867.317	21614
867.448	21641
867.579	21439
867.71	21614
867.841	21667
867.972	21728
868.103	21587
868.233	21641
868.364	21686
868.495	21732
868.625	21835
868.756	21987
868.886	21717
869.017	21873
869.147	21987
869.278	22093
869.408	21937
869.539	21960
869.669	21979
869.799	21869
869.929	22128
870.06	22055
870.19	22128
870.32	22154
870.45	22158
870.58	22253
870.71	22329
870.84	22360
870.97	22284
871.1	22257
871.23	22493
871.36	22474
871.489	22360
871.619	22447
871.749	22379
871.879	22550
872.008	22588
872.138	22466
872.267	22615
872.397	22409
872.526	22310
872.656	22306
872.785	22322
872.915	22417
873.044	22519
873.173	22523
873.303	22531
873.432	22561
873.561	22565
873.69	22417
873.819	22394
873.948	22519
874.077	22466
874.206	22436
874.335	22592
874.464	22717
874.593	22698
874.722	22740
874.851	22702
874.979	22793
875.108	22774
875.237	22675
875.365	22683
875.494	22637
875.623	22755
875.751	22672
875.88	22774
876.008	22790
876.136	22778
876.265	23086
876.393	23193
876.521	23258
876.65	23079
876.778	23037
876.906	23064
877.034	23109
877.162	22991
877.29	22949
877.418	23136
877.546	23102
877.674	23098
877.802	23124
877.93	23044
878.058	22999
878.185	22930
878.313	22961
878.441	23170
878.568	23022
878.696	23022
878.824	22919
878.951	23025
879.079	23227
879.206	23383
879.333	23349
879.461	23079
879.588	23261
879.715	23269
879.842	23395
879.97	23098
880.097	22831
880.224	22911
880.351	22927
880.478	22816
880.605	22995
880.732	22919
880.859	23048
880.986	23033
881.112	22934
881.239	22679
881.366	22668
881.493	22481
881.619	22436
881.746	22478
881.872	22421
881.999	22367
882.125	22402
882.252	22440
882.378	22390
882.505	22607
882.631	22337
882.757	22276
882.883	22303
883.01	22230
883.136	22131
883.262	21956
883.388	22063
883.514	22223
883.64	22120
883.766	22074
883.892	21861
884.018	21812
884.143	22173
884.269	22120
884.395	21888
884.52	21759
884.646	21907
884.772	21652
884.897	21652
885.023	21850
885.148	21884
885.274	21842
885.399	21975
885.524	21679
885.65	21793
885.775	21713
885.9	21819
886.025	21945
886.15	21945
886.275	21724
886.4	21637
886.525	21694
886.65	21526
886.775	21694
886.9	21857
887.025	21884
887.149	21766
887.274	21545
887.399	21526
887.523	21523
887.648	21435
887.773	21450
887.897	21538
888.021	21595
888.146	21488
888.27	21652
888.395	21492
888.519	21663
888.643	21492
888.767	21603
888.891	21466
889.015	21386
889.139	21420
889.263	21241
889.387	21454
889.511	21603
889.635	21424
889.759	21195
889.883	21283
890.006	21443
890.13	21401
890.254	21157
890.377	21294
890.501	21062
890.624	21051
890.748	21173
890.871	20910
890.995	20914
891.118	20777
891.241	20864
891.364	20796
891.488	20937
891.611	20834
891.734	20861
891.857	20990
891.98	20979
892.103	20994
892.226	20887
892.349	20826
892.471	20708
892.594	20777
892.717	20800
892.839	20849
892.962	20746
893.085	20762
893.207	20640
893.33	20739
893.452	20651
893.575	20781
893.697	20701
893.819	20914
893.941	21020
894.064	20891
894.186	20667
894.308	20644
894.43	20868
894.552	20952
894.674	20868
894.796	20678
894.918	20674
895.04	20743
895.161	20746
895.283	20800
895.405	20712
895.526	20693
895.648	20739
895.769	20727
895.891	20807
896.012	20883
896.134	20811
896.255	20712
896.376	20807
896.498	20705
896.619	20872
896.74	20708
896.861	20899
896.982	21013
897.103	21226
897.224	21043
897.345	20952
897.466	20842
897.587	20975
897.708	21001
897.828	21005
897.949	20895
898.07	20883
898.19	20906
898.311	21001
898.431	20842
898.552	20887
898.672	20990
898.792	20937
898.913	20990
899.033	20834
899.153	20823
899.273	20632
899.393	20785
899.513	20739
899.633	20712
899.753	20750
899.873	20720
899.993	20689
900.113	20579
900.232	20503
900.352	20629
900.472	20480
900.591	20381
900.711	20480
900.83	20393
900.95	20651
901.069	20579
901.189	20328
901.308	20130
901.427	19986
901.546	20126
901.665	20001
901.784	20016
901.904	19906
902.023	19826
902.141	19628
902.26	19590
902.379	19632
902.498	19620
902.617	19548
902.735	19567
902.854	19647
902.973	19472
903.091	19213
903.21	19190
903.328	19183
903.446	19099
903.565	19042
903.683	19156
903.801	18901
903.919	19038
904.038	18932
904.156	18810
904.274	18844
904.392	18757
904.51	18837
904.627	18821
904.745	18844
904.863	18859
904.981	18608
905.098	18521
905.216	18479
905.334	18483
905.451	18502
905.569	18445
905.686	18506
905.803	18410
905.921	18155
906.038	18391
906.155	18197
906.272	17977
906.389	18091
906.506	18076
906.623	17920
906.74	17866
906.857	17927
906.974	17885
907.091	18049
907.208	18121
907.324	17950
907.441	17923
907.557	17630
907.674	17611
907.79	17623
907.907	17657
908.023	17562
908.139	17756
908.256	17726
908.372	17585
908.488	17581
908.604	17448
908.72	17520
908.836	17372
908.952	17379
909.068	17379
909.184	17562
909.3	17330
909.415	17425
909.531	17433
909.647	17143
909.762	17170
909.878	17079
909.993	17174
910.108	17102
910.224	17010
910.339	17037
910.454	16923
910.57	16961
910.685	16759
910.8	17143
910.915	16923
911.03	16862
911.145	16679
911.259	16588
911.374	16679
911.489	16626
911.604	16565
911.718	16394
911.833	16352
911.947	16337
912.062	16379
912.176	16485
912.291	16413
912.405	16367
912.519	16630
912.633	16546
912.748	16462
912.862	16390
912.976	16158
913.09	16192
913.204	16211
913.318	16230
913.431	16284
913.545	16367
913.659	16314
913.772	16169
913.886	16013
914	16071
914.113	16166
914.226	16242
914.34	16078
914.453	15857
914.566	16048
914.68	15766
914.793	15873
914.906	15625
915.019	15606
915.132	15618
915.245	15572
915.358	15587
915.47	15633
915.583	15633
915.696	15572
915.809	15701
915.921	15717
916.034	15507
916.146	15515
916.259	15511
916.371	15610
916.483	15557
916.595	15386
916.708	15485
916.82	15386
916.932	15431
917.044	15416
917.156	15351
917.268	15233
917.38	15317
917.491	15112
917.603	15275
917.715	15367
917.826	15367
917.938	15176
918.049	15043
918.161	15275
918.272	15272
918.384	15344
918.495	15176
918.606	15058
918.717	14880
918.828	15017
918.939	15017
919.05	14868
919.161	14918
919.272	14811
919.383	14823
919.494	14937
919.604	15230
919.715	15009
919.826	14944
919.936	14830
920.047	15100
920.157	14914
920.267	15066
920.378	14906
920.488	14921
920.598	15070
920.708	15279
920.818	15176
920.928	15058
921.038	15192
921.148	15116
921.258	14899
921.368	14815
921.477	14773
921.587	14712
921.697	14613
921.806	14625
921.916	14617
922.025	14408
922.134	14419
922.244	14339
922.353	14339
922.462	14210
922.571	14161
922.68	13989
922.789	13955
922.898	13959
923.007	13887
923.116	14031
923.224	13909
923.333	13875
923.442	13826
923.55	13753
923.659	13795
923.767	13791
923.876	13712
923.984	13753
924.092	13597
924.201	13826
924.309	13643
924.417	13734
924.525	13658
924.633	13590
924.741	14320
924.849	13468
924.956	13582
925.064	13457
925.172	13320
925.279	13343
925.387	13381
925.494	13407
925.602	13407
925.709	13419
925.816	13263
925.924	13304
926.031	13419
926.138	13278
926.245	13285
926.352	13228
926.459	13327
926.566	13308
926.673	13263
926.779	13053
926.886	13175
926.993	12954
927.099	12916
927.206	12802
927.312	12909
927.419	13012
927.525	12924
927.631	12886
927.737	12791
927.843	12753
927.95	12620
928.056	12662
928.162	12616
928.267	12810
928.373	13377
928.479	12726
928.585	12547
928.69	12654
928.796	12692
928.901	12681
929.007	12452
929.112	12471
929.218	12532
929.323	12437
929.428	12429
929.533	12509
929.638	12410
929.743	12388
929.848	12483
929.953	12353
930.058	12266
930.163	12064
930.267	12064
930.372	12266
930.477	12057
930.581	12254
930.685	12167
930.79	11969
930.894	11992
930.998	11935
931.103	12079
931.207	11752
931.311	11684
931.415	11611
931.519	11448
931.623	11391
