Data from test_V78500241_310.txt Node
Date: Fri Mar 25 15:43:56 CST 2022
User: usil
Spectrometer: V785-0024
Trigger mode: 0
Integration Time (sec): 4.000000E-1
Scans to average: 1
Nonlinearity correction enabled: false
Boxcar width: 0
Storing dark spectrum: false
XAxis mode: Wavelengths
Number of Pixels in Spectrum: 1024
>>>>>Begin Spectral Data<<<<<
801.071	29707
801.214	29649
801.356	29429
801.499	29459
801.641	29406
801.783	29463
801.926	29337
802.068	29349
802.211	29353
802.353	29193
802.496	29060
802.638	28858
802.78	29098
802.923	28968
803.065	29022
803.208	29075
803.35	29052
803.492	29136
803.635	29200
803.777	29079
803.919	29372
804.061	29630
804.204	29337
804.346	29109
804.488	29170
804.63	29140
804.773	29155
804.915	29220
805.057	29235
805.199	29189
805.341	29261
805.483	29242
805.626	29242
805.768	29273
805.91	29189
806.052	29326
806.194	29083
806.336	29554
806.478	29425
806.62	29433
806.762	29486
806.904	29661
807.046	29862
807.188	29855
807.33	29882
807.472	29824
807.614	29786
807.756	29661
807.898	29558
808.04	29459
808.182	29486
808.324	29585
808.465	29539
808.607	29805
808.749	29885
808.891	30110
809.033	30155
809.174	30064
809.316	29950
809.458	29950
809.6	29904
809.741	30136
809.883	30095
810.025	30296
810.166	30209
810.308	30342
810.45	30346
810.591	30201
810.733	30102
810.875	30026
811.016	29954
811.158	29935
811.299	30174
811.441	30041
811.582	30144
811.724	29999
811.865	29946
812.007	30011
812.148	30091
812.29	29958
812.431	30148
812.573	30205
812.714	30464
812.855	30593
812.997	30658
813.138	30749
813.279	30661
813.421	30369
813.562	30414
813.703	30277
813.845	30228
813.986	29828
814.127	29790
814.268	29592
814.41	29790
814.551	29802
814.692	29687
814.833	29649
814.974	29577
815.115	29707
815.256	29497
815.397	29452
815.539	29573
815.68	29414
815.821	29360
815.962	29524
816.103	29349
816.244	29349
816.385	29223
816.526	29330
816.666	29014
816.807	28877
816.948	28900
817.089	28995
817.23	28968
817.371	28805
817.512	28911
817.653	28801
817.793	28866
817.934	28908
818.075	28923
818.216	28888
818.356	28892
818.497	28805
818.638	28557
818.778	28706
818.919	28656
819.06	28653
819.2	28672
819.341	28790
819.481	28839
819.622	29025
819.762	29178
819.903	29025
820.043	29067
820.184	29132
820.324	29041
820.465	29064
820.605	28987
820.746	28904
820.886	28710
821.026	28847
821.167	28911
821.307	28908
821.447	28892
821.588	28717
821.728	28569
821.868	28238
822.008	28318
822.149	28242
822.289	28352
822.429	28010
822.569	28006
822.709	28074
822.849	27842
822.99	27800
823.13	27793
823.27	27759
823.41	27492
823.55	27469
823.69	27648
823.83	27504
823.97	27466
824.11	27416
824.25	27245
824.389	27283
824.529	27507
824.669	27420
824.809	27580
824.949	27458
825.089	27473
825.228	27454
825.368	27199
825.508	27252
825.648	27192
825.787	27321
825.927	27363
826.067	27188
826.206	27180
826.346	27268
826.485	27157
826.625	27302
826.765	27431
826.904	27332
827.044	27024
827.183	26933
827.323	26887
827.462	27001
827.601	26845
827.741	26891
827.88	26861
828.02	26842
828.159	26792
828.298	26868
828.437	26906
828.577	26960
828.716	27017
828.855	26849
828.994	26571
829.134	26606
829.273	26640
829.412	26560
829.551	26434
829.69	26533
829.829	26625
829.968	26686
830.107	26587
830.246	26686
830.385	26503
830.524	26503
830.663	26187
830.802	26324
830.941	26145
831.08	26210
831.219	26138
831.357	26248
831.496	26434
831.635	26214
831.774	26065
831.913	26107
832.051	25989
832.19	25902
832.329	26046
832.467	25890
832.606	25772
832.744	25605
832.883	25662
833.022	25814
833.16	25803
833.299	25738
833.437	25883
833.576	25890
833.714	25788
833.852	25906
833.991	25921
834.129	25970
834.267	25860
834.406	25681
834.544	25864
834.682	25902
834.821	25811
834.959	25883
835.097	25727
835.235	25879
835.373	25791
835.511	25734
835.65	25575
835.788	25594
835.926	25495
836.064	25388
836.202	25548
836.34	25677
836.478	25769
836.615	25620
836.753	25605
836.891	25643
837.029	25655
837.167	25392
837.305	25354
837.443	25449
837.58	25377
837.718	25472
837.856	25422
837.993	25411
838.131	25464
838.269	25301
838.406	25263
838.544	25099
838.681	25110
838.819	25012
838.956	24844
839.094	24722
839.231	24913
839.369	24958
839.506	25236
839.643	25168
839.781	24833
839.918	24772
840.055	24821
840.193	24783
840.33	24696
840.467	24856
840.604	24905
840.742	24909
840.879	24536
841.016	24677
841.153	24601
841.29	24825
841.427	24719
841.564	24753
841.701	24658
841.838	24703
841.975	24589
842.112	24570
842.249	24612
842.385	24418
842.522	24692
842.659	24464
842.796	24597
842.933	24642
843.069	24369
843.206	24323
843.343	24479
843.479	24433
843.616	24414
843.752	24201
843.889	24163
844.025	24308
844.162	24140
844.298	24365
844.435	24163
844.571	24167
844.708	24209
844.844	24327
844.98	24266
845.117	24190
845.253	24026
845.389	24114
845.525	24091
845.661	23988
845.798	23912
845.934	23935
846.07	23961
846.206	23935
846.342	23988
846.478	23889
846.614	23733
846.75	23653
846.886	23668
847.022	23665
847.158	23611
847.294	23509
847.429	23672
847.565	23661
847.701	23748
847.837	23322
847.972	23231
848.108	23410
848.244	23410
848.379	23170
848.515	23132
848.65	23193
848.786	23216
848.921	23193
849.057	23250
849.192	23330
849.328	23303
849.463	23090
849.598	23162
849.734	23090
849.869	23105
850.004	23029
850.14	23102
850.275	22805
850.41	22862
850.545	22873
850.68	22881
850.815	22908
850.95	22877
851.085	23075
851.22	23010
851.355	22847
851.49	22927
851.625	22896
851.76	22877
851.895	22961
852.03	22919
852.165	22790
852.299	23037
852.434	23029
852.569	22934
852.703	22793
852.838	22942
852.973	22927
853.107	22927
853.242	22755
853.376	22706
853.511	22630
853.645	22778
853.78	22698
853.914	22744
854.048	22634
854.183	22729
854.317	22847
854.451	22835
854.585	22790
854.72	22797
854.854	22763
854.988	22523
855.122	22717
855.256	22607
855.39	22706
855.524	22618
855.658	22675
855.792	22725
855.926	22694
856.06	22786
856.194	22831
856.327	22672
856.461	22550
856.595	22660
856.729	22645
856.862	22774
856.996	22637
857.13	22710
857.263	22748
857.397	22774
857.53	22725
857.664	22535
857.797	22656
857.931	22820
858.064	22660
858.197	22790
858.331	22687
858.464	22634
858.597	22557
858.731	22481
858.864	22630
858.997	22679
859.13	22767
859.263	22706
859.396	22793
859.529	22615
859.662	22725
859.795	22538
859.928	22694
860.061	22786
860.194	22900
860.327	22637
860.46	22557
860.592	22820
860.725	22797
860.858	22816
860.99	22596
861.123	22447
861.256	22546
861.388	22706
861.521	23330
861.653	22557
861.786	22561
861.918	22390
862.05	22626
862.183	22577
862.315	22535
862.447	22725
862.58	22637
862.712	22417
862.844	22276
862.976	22470
863.108	22523
863.24	22748
863.372	22333
863.504	22333
863.636	22299
863.768	22291
863.9	22280
864.032	22204
864.164	22344
864.296	22303
864.428	22367
864.559	22436
864.691	22440
864.823	22230
864.954	22299
865.086	22284
865.217	22413
865.349	22188
865.48	22196
865.612	22242
865.743	22322
865.875	22116
866.006	22238
866.137	22177
866.269	22116
866.4	22238
866.531	22177
866.662	22188
866.793	22044
866.924	22158
867.055	22173
867.186	22143
867.317	22154
867.448	22143
867.579	22181
867.71	21991
867.841	22078
867.972	22139
868.103	22093
868.233	22158
868.364	22124
868.495	22261
868.625	22417
868.756	22371
868.886	22325
869.017	22360
869.147	22565
869.278	22432
869.408	22398
869.539	22318
869.669	22409
869.799	22443
869.929	22542
870.06	22554
870.19	22683
870.32	22596
870.45	22679
870.58	22706
870.71	22866
870.84	22771
870.97	22854
871.1	22774
871.23	22930
871.36	22987
871.489	22790
871.619	22915
871.749	22911
871.879	22976
872.008	23071
872.138	22949
872.267	22908
872.397	22866
872.526	22675
872.656	22771
872.785	22713
872.915	23025
873.044	22995
873.173	23056
873.303	23018
873.432	23132
873.561	23056
873.69	22949
873.819	22930
873.948	23147
874.077	23018
874.206	22923
874.335	23041
874.464	23086
874.593	23265
874.722	23185
874.851	23174
874.979	23121
875.108	23239
875.237	23124
875.365	23075
875.494	23200
875.623	23273
875.751	23159
875.88	23083
876.008	23353
876.136	23402
876.265	23695
876.393	23729
876.521	23707
876.65	23722
876.778	23524
876.906	23600
877.034	23520
877.162	23581
877.29	23478
877.418	23421
877.546	23531
877.674	23600
877.802	23478
877.93	23535
878.058	23493
878.185	23402
878.313	23482
878.441	23474
878.568	23493
878.696	23452
878.824	23497
878.951	23668
879.079	23646
879.206	23745
879.333	23729
879.461	23589
879.588	23756
879.715	23771
879.842	23714
879.97	23570
880.097	23326
880.224	23372
880.351	23421
880.478	23406
880.605	23280
880.732	23246
880.859	23562
880.986	23334
881.112	23379
881.239	23379
881.366	23052
881.493	22957
881.619	23048
881.746	22919
881.872	22828
881.999	22858
882.125	22706
882.252	22927
882.378	22904
882.505	22892
882.631	22812
882.757	22634
882.883	22698
883.01	22717
883.136	22588
883.262	22417
883.388	22386
883.514	22607
883.64	22668
883.766	22379
883.892	22428
884.018	22348
884.143	22531
884.269	22592
884.395	22246
884.52	22188
884.646	22246
884.772	22185
884.897	22131
885.023	22200
885.148	22341
885.274	22402
885.399	22276
885.524	22154
885.65	22192
885.775	22223
885.9	22207
886.025	22341
886.15	22284
886.275	22295
886.4	22143
886.525	22093
886.65	22196
886.775	22078
886.9	22238
887.025	22428
887.149	22211
887.274	22010
887.399	22010
887.523	22040
887.648	21876
887.773	21869
887.897	22032
888.021	21880
888.146	22002
888.27	22048
888.395	22150
888.519	22109
888.643	22067
888.767	22013
888.891	21884
889.015	21713
889.139	21781
889.263	21747
889.387	21968
889.511	21846
889.635	21785
889.759	21774
889.883	21774
890.006	21610
890.13	21793
890.254	21629
890.377	21690
890.501	21401
890.624	21416
890.748	21469
890.871	21370
890.995	21355
891.118	21195
891.241	21268
891.364	21302
891.488	21511
891.611	21268
891.734	21214
891.857	21294
891.98	21226
892.103	21306
892.226	21287
892.349	21291
892.471	21058
892.594	21108
892.717	21173
892.839	21169
892.962	21203
893.085	21252
893.207	21165
893.33	21009
893.452	21085
893.575	21131
893.697	21176
893.819	21279
893.941	21188
894.064	21340
894.186	21165
894.308	21085
894.43	21237
894.552	21264
894.674	21150
894.796	21150
894.918	21096
895.04	21058
895.161	21252
895.283	21249
895.405	21089
895.526	21127
895.648	21142
895.769	21157
895.891	21108
896.012	21165
896.134	21245
896.255	21233
896.376	21116
896.498	21241
896.619	21142
896.74	21176
896.861	21199
896.982	21572
897.103	21606
897.224	21595
897.345	21443
897.466	21249
897.587	21294
897.708	21431
897.828	21351
897.949	21268
898.07	21226
898.19	21344
898.311	21412
898.431	21283
898.552	21313
898.672	21355
898.792	21466
898.913	21287
899.033	21294
899.153	21116
899.273	21051
899.393	21062
899.513	21055
899.633	21123
899.753	21066
899.873	20891
899.993	21142
900.113	20887
900.232	21024
900.352	21001
900.472	20921
900.591	20743
900.711	20853
900.83	20823
900.95	20781
901.069	20830
901.189	20670
901.308	20537
901.427	20317
901.546	20396
901.665	20313
901.784	20408
901.904	20210
902.023	20119
902.141	20020
902.26	19909
902.379	19921
902.498	19852
902.617	19700
902.735	19944
902.854	19898
902.973	19662
903.091	19491
903.21	19480
903.328	19510
903.446	19350
903.565	19354
903.683	19381
903.801	19190
903.919	19316
904.038	19133
904.156	19072
904.274	19187
904.392	18996
904.51	19031
904.627	19023
904.745	19236
904.863	19103
904.981	18882
905.098	18635
905.216	18677
905.334	18722
905.451	18867
905.569	18745
905.686	18757
905.803	18779
905.921	18513
906.038	18578
906.155	18692
906.272	18441
906.389	18399
906.506	18285
906.623	18304
906.74	18353
906.857	18136
906.974	18174
907.091	18251
907.208	18410
907.324	18311
907.441	18121
907.557	17920
907.674	17954
907.79	17863
907.907	17912
908.023	17969
908.139	17973
908.256	17927
908.372	17893
908.488	17805
908.604	17604
908.72	17623
908.836	17649
908.952	17687
909.068	17684
909.184	17756
909.3	17760
909.415	17733
909.531	17573
909.647	17387
909.762	17425
909.878	17372
909.993	17528
910.108	17288
910.224	17284
910.339	17303
910.454	17155
910.57	17048
910.685	17071
910.8	17318
910.915	17174
911.03	17090
911.145	16980
911.259	16927
911.374	16778
911.489	16805
911.604	16805
911.718	16626
911.833	16744
911.947	16500
912.062	16478
912.176	16656
912.291	16664
912.405	16516
912.519	16687
912.633	16805
912.748	16656
912.862	16538
912.976	16417
913.09	16371
913.204	16459
913.318	16550
913.431	16455
913.545	16409
913.659	16497
913.772	16348
913.886	16344
914	16154
914.113	16344
914.226	16360
914.34	16303
914.453	16154
914.566	16196
914.68	16128
914.793	16147
914.906	15884
915.019	15793
915.132	15755
915.245	15854
915.358	15850
915.47	15812
915.583	15770
915.696	15934
915.809	15941
915.921	15918
916.034	15713
916.146	15690
916.259	15739
916.371	15835
916.483	15724
916.595	15580
916.708	15519
916.82	15549
916.932	15553
917.044	15629
917.156	15561
917.268	15511
917.38	15435
917.491	15405
917.603	15424
917.715	15488
917.826	15477
917.938	15405
918.049	15211
918.161	15367
918.272	15545
918.384	15500
918.495	15420
918.606	15127
918.717	15093
918.828	15260
918.939	15184
919.05	15070
919.161	15138
919.272	14826
919.383	14887
919.494	15138
919.604	15329
919.715	15176
919.826	15024
919.936	15051
920.047	15146
920.157	15169
920.267	15298
920.378	15176
920.488	14998
920.598	15214
920.708	15351
920.818	15203
920.928	15199
921.038	15351
921.148	15268
921.258	15028
921.368	14918
921.477	14861
921.587	14739
921.697	14720
921.806	14762
921.916	14579
922.025	14450
922.134	14484
922.244	14469
922.353	14469
922.462	14427
922.571	14195
922.68	14145
922.789	14138
922.898	14103
923.007	13974
923.116	14123
923.224	14039
923.333	14027
923.442	13925
923.55	13894
923.659	13818
923.767	13978
923.876	13765
923.984	13864
924.092	13734
924.201	13837
924.309	13818
924.417	13712
924.525	13651
924.633	13765
924.741	14735
924.849	13563
924.956	13601
925.064	13472
925.172	13449
925.279	13419
925.387	13499
925.494	13476
925.602	13575
925.709	13491
925.816	13350
925.924	13396
926.031	13365
926.138	13365
926.245	13559
926.352	13354
926.459	13502
926.566	13445
926.673	13343
926.779	13156
926.886	13122
926.993	13122
927.099	13015
927.206	12886
927.312	12905
927.419	13034
927.525	13023
927.631	13050
927.737	12939
927.843	12882
927.95	12738
928.056	12753
928.162	12802
928.267	12859
928.373	13365
928.479	12852
928.585	12665
928.69	12772
928.796	12798
928.901	12662
929.007	12544
929.112	12677
929.218	12616
929.323	12585
929.428	12525
929.533	12582
929.638	12403
929.743	12448
929.848	12494
929.953	12403
930.058	12429
930.163	12167
930.267	12182
930.372	12334
930.477	12155
930.581	12403
930.685	12095
930.79	12095
930.894	12060
930.998	11988
931.103	12106
931.207	11851
931.311	11817
931.415	11535
931.519	11436
931.623	11433
