Data from test_V78500241_3124.txt Node
Date: Fri Mar 25 16:03:26 CST 2022
User: usil
Spectrometer: V785-0024
Trigger mode: 0
Integration Time (sec): 4.000000E-1
Scans to average: 1
Nonlinearity correction enabled: false
Boxcar width: 0
Storing dark spectrum: false
XAxis mode: Wavelengths
Number of Pixels in Spectrum: 1024
>>>>>Begin Spectral Data<<<<<
801.071	28900
801.214	28801
801.356	28641
801.499	28489
801.641	28531
801.783	28489
801.926	28489
802.068	28588
802.211	28504
802.353	28421
802.496	28246
802.638	28284
802.78	28128
802.923	28181
803.065	28074
803.208	28181
803.35	28219
803.492	28371
803.635	28295
803.777	28405
803.919	28417
804.061	28793
804.204	28531
804.346	28478
804.488	28348
804.63	28405
804.773	28466
804.915	28500
805.057	28565
805.199	28436
805.341	28588
805.483	28618
805.626	28577
805.768	28603
805.91	28637
806.052	28535
806.194	28615
806.336	28733
806.478	28577
806.62	28611
806.762	28801
806.904	28908
807.046	29083
807.188	29212
807.33	29079
807.472	29117
807.614	29147
807.756	29113
807.898	28938
808.04	28835
808.182	28892
808.324	28850
808.465	29090
808.607	29056
808.749	29318
808.891	29524
809.033	29391
809.174	29448
809.316	29410
809.458	29436
809.6	29292
809.741	29379
809.883	29497
810.025	29627
810.166	29547
810.308	29684
810.45	29703
810.591	29467
810.733	29531
810.875	29372
811.016	29227
811.158	29288
811.299	29459
811.441	29478
811.582	29493
811.724	29474
811.865	29250
812.007	29284
812.148	29520
812.29	29425
812.431	29581
812.573	29657
812.714	29752
812.855	29958
812.997	29912
813.138	29992
813.279	30106
813.421	29893
813.562	30030
813.703	29714
813.845	29509
813.986	29383
814.127	29216
814.268	28965
814.41	29193
814.551	29094
814.692	29128
814.833	29075
814.974	28923
815.115	29048
815.256	29010
815.397	28900
815.539	29029
815.68	28938
815.821	28862
815.962	28987
816.103	28881
816.244	28873
816.385	28725
816.526	28713
816.666	28447
816.807	28314
816.948	28459
817.089	28436
817.23	28561
817.371	28371
817.512	28314
817.653	28459
817.793	28360
817.934	28310
818.075	28405
818.216	28428
818.356	28363
818.497	28295
818.638	28173
818.778	28185
818.919	28272
819.06	28207
819.2	28276
819.341	28470
819.481	28447
819.622	28611
819.762	28801
819.903	28717
820.043	28634
820.184	28554
820.324	28599
820.465	28481
820.605	28462
820.746	28523
820.886	28371
821.026	28500
821.167	28470
821.307	28603
821.447	28474
821.588	28341
821.728	28337
821.868	28112
822.008	27835
822.149	27956
822.289	27857
822.429	27549
822.569	27561
822.709	27663
822.849	27545
822.99	27435
823.13	27443
823.27	27431
823.41	27256
823.55	27077
823.69	27321
823.83	27397
823.97	27275
824.11	27241
824.25	27127
824.389	27161
824.529	27199
824.669	27062
824.809	27378
824.949	27123
825.089	27211
825.228	27195
825.368	26979
825.508	26921
825.648	27135
825.787	26982
825.927	26998
826.067	26861
826.206	26914
826.346	27116
826.485	27154
826.625	27020
826.765	27081
826.904	27024
827.044	26701
827.183	26720
827.323	26613
827.462	26902
827.601	26644
827.741	26765
827.88	26796
828.02	26705
828.159	26674
828.298	26632
828.437	26632
828.577	26708
828.716	26731
828.855	26579
828.994	26362
829.134	26328
829.273	26499
829.412	26457
829.551	26317
829.69	26453
829.829	26613
829.968	26476
830.107	26473
830.246	26412
830.385	26267
830.524	26461
830.663	26286
830.802	26103
830.941	25974
831.08	26069
831.219	26237
831.357	26005
831.496	26161
831.635	26012
831.774	26084
831.913	25913
832.051	25928
832.19	25791
832.329	25795
832.467	25727
832.606	25689
832.744	25689
832.883	25582
833.022	25674
833.16	25628
833.299	25849
833.437	25772
833.576	25731
833.714	25696
833.852	25814
833.991	25727
834.129	25814
834.267	25757
834.406	25761
834.544	25742
834.682	25769
834.821	25696
834.959	25822
835.097	25658
835.235	25731
835.373	25845
835.511	25753
835.65	25674
835.788	25525
835.926	25460
836.064	25304
836.202	25491
836.34	25616
836.478	25632
836.615	25643
836.753	25784
836.891	25605
837.029	25700
837.167	25445
837.305	25430
837.443	25411
837.58	25445
837.718	25483
837.856	25567
837.993	25449
838.131	25320
838.269	25282
838.406	25240
838.544	25190
838.681	25194
838.819	24905
838.956	24825
839.094	24806
839.231	24970
839.369	25015
839.506	25316
839.643	25034
839.781	24939
839.918	24665
840.055	24783
840.193	24787
840.33	24760
840.467	24802
840.604	24783
840.742	24951
840.879	24677
841.016	24612
841.153	24681
841.29	24768
841.427	24646
841.564	24738
841.701	24673
841.838	24665
841.975	24810
842.112	24681
842.249	24612
842.385	24559
842.522	24779
842.659	24505
842.796	24399
842.933	24437
843.069	24350
843.206	24414
843.343	24532
843.479	24513
843.616	24357
843.752	24410
843.889	24327
844.025	24429
844.162	24247
844.298	24372
844.435	24372
844.571	24277
844.708	24273
844.844	24414
844.98	24338
845.117	24311
845.253	24334
845.389	24197
845.525	24117
845.661	24125
845.798	24003
845.934	24140
846.07	23992
846.206	24243
846.342	24144
846.478	23996
846.614	23779
846.75	23520
846.886	23794
847.022	23912
847.158	23840
847.294	23817
847.429	23684
847.565	23687
847.701	23950
847.837	23444
847.972	23372
848.108	23672
848.244	23505
848.379	23379
848.515	23345
848.65	23250
848.786	23277
848.921	23406
849.057	23383
849.192	23459
849.328	23398
849.463	23288
849.598	23174
849.734	23235
849.869	23143
850.004	23094
850.14	23174
850.275	23136
850.41	23037
850.545	23003
850.68	23128
850.815	23140
850.95	23223
851.085	23261
851.22	23216
851.355	23204
851.49	23246
851.625	23128
851.76	23075
851.895	23033
852.03	22923
852.165	23094
852.299	23155
852.434	23124
852.569	23185
852.703	23037
852.838	23174
852.973	23231
853.107	23143
853.242	22961
853.376	23060
853.511	22755
853.645	22919
853.78	22957
853.914	22831
854.048	22923
854.183	22828
854.317	22953
854.451	23048
854.585	22927
854.72	22881
854.854	22965
854.988	22786
855.122	22953
855.256	22759
855.39	22877
855.524	22976
855.658	22972
855.792	22919
855.926	22835
856.06	23018
856.194	22919
856.327	22801
856.461	22847
856.595	22987
856.729	22858
856.862	23014
856.996	22771
857.13	22984
857.263	22946
857.397	22987
857.53	22877
857.664	22885
857.797	23056
857.931	22953
858.064	22980
858.197	23006
858.331	23006
858.464	22801
858.597	22824
858.731	22854
858.864	22782
858.997	22843
859.13	23029
859.263	22873
859.396	23071
859.529	22923
859.662	22915
859.795	22835
859.928	22957
860.061	23071
860.194	23037
860.327	23067
860.46	23056
860.592	22980
860.725	23170
860.858	23083
860.99	22957
861.123	22942
861.256	22934
861.388	22908
861.521	23531
861.653	22622
861.786	22691
861.918	22660
862.05	22812
862.183	22892
862.315	22831
862.447	22843
862.58	22797
862.712	22565
862.844	22493
862.976	22721
863.108	22664
863.24	22953
863.372	22500
863.504	22599
863.636	22626
863.768	22736
863.9	22577
864.032	22519
864.164	22565
864.296	22771
864.428	22424
864.559	22729
864.691	22668
864.823	22550
864.954	22618
865.086	22478
865.217	22527
865.349	22542
865.48	22500
865.612	22512
865.743	22698
865.875	22478
866.006	22363
866.137	22500
866.269	22405
866.4	22386
866.531	22417
866.662	22394
866.793	22333
866.924	22459
867.055	22462
867.186	22310
867.317	22303
867.448	22295
867.579	22322
867.71	22455
867.841	22325
867.972	22447
868.103	22405
868.233	22413
868.364	22230
868.495	22497
868.625	22653
868.756	22736
868.886	22580
869.017	22664
869.147	22683
869.278	22721
869.408	22615
869.539	22713
869.669	22725
869.799	22713
869.929	22828
870.06	22786
870.19	22930
870.32	22873
870.45	22949
870.58	22999
870.71	23140
870.84	23124
870.97	23140
871.1	23086
871.23	23143
871.36	23174
871.489	23143
871.619	23098
871.749	23299
871.879	23326
872.008	23254
872.138	23353
872.267	23292
872.397	23185
872.526	23151
872.656	23060
872.785	23200
872.915	23368
873.044	23326
873.173	23334
873.303	23265
873.432	23322
873.561	23220
873.69	23334
873.819	23277
873.948	23299
874.077	23242
874.206	23303
874.335	23284
874.464	23402
874.593	23497
874.722	23303
874.851	23478
874.979	23547
875.108	23600
875.237	23493
875.365	23360
875.494	23452
875.623	23512
875.751	23512
875.88	23535
876.008	23619
876.136	23703
876.265	23798
876.393	23939
876.521	23920
876.65	23916
876.778	23996
876.906	23893
877.034	23767
877.162	23729
877.29	23726
877.418	23885
877.546	23843
877.674	23889
877.802	23786
877.93	23813
878.058	23764
878.185	23619
878.313	23847
878.441	23786
878.568	23608
878.696	23657
878.824	23703
878.951	23908
879.079	23950
879.206	24045
879.333	23935
879.461	23821
879.588	23866
879.715	23931
879.842	24041
879.97	23836
880.097	23684
880.224	23596
880.351	23623
880.478	23699
880.605	23516
880.732	23699
880.859	23809
880.986	23699
881.112	23684
881.239	23436
881.366	23398
881.493	23227
881.619	23162
881.746	23121
881.872	23372
881.999	23113
882.125	23056
882.252	23105
882.378	23159
882.505	23231
882.631	22976
882.757	22961
882.883	23003
883.01	22896
883.136	22793
883.262	22668
883.388	22729
883.514	22752
883.64	22820
883.766	22740
883.892	22611
884.018	22748
884.143	22736
884.269	22850
884.395	22653
884.52	22386
884.646	22497
884.772	22546
884.897	22417
885.023	22409
885.148	22561
885.274	22683
885.399	22596
885.524	22519
885.65	22329
885.775	22580
885.9	22462
886.025	22542
886.15	22561
886.275	22424
886.4	22382
886.525	22379
886.65	22344
886.775	22333
886.9	22489
887.025	22664
887.149	22421
887.274	22314
887.399	22181
887.523	22207
887.648	22272
887.773	22200
887.897	22360
888.021	22143
888.146	22166
888.27	22329
888.395	22280
888.519	22325
888.643	22253
888.767	22162
888.891	21991
889.015	21968
889.139	22013
889.263	21934
889.387	22097
889.511	22322
889.635	22086
889.759	22078
889.883	21975
890.006	22036
890.13	22143
890.254	22048
890.377	21922
890.501	21755
890.624	21713
890.748	21861
890.871	21781
890.995	21591
891.118	21481
891.241	21561
891.364	21431
891.488	21736
891.611	21492
891.734	21629
891.857	21561
891.98	21526
892.103	21549
892.226	21477
892.349	21428
892.471	21268
892.594	21435
892.717	21511
892.839	21397
892.962	21504
893.085	21557
893.207	21511
893.33	21348
893.452	21313
893.575	21534
893.697	21382
893.819	21618
893.941	21679
894.064	21519
894.186	21325
894.308	21359
894.43	21587
894.552	21610
894.674	21424
894.796	21389
894.918	21325
895.04	21405
895.161	21603
895.283	21447
895.405	21416
895.526	21393
895.648	21424
895.769	21355
895.891	21481
896.012	21549
896.134	21542
896.255	21313
896.376	21306
896.498	21416
896.619	21420
896.74	21401
896.861	21435
896.982	21618
897.103	21736
897.224	21644
897.345	21629
897.466	21629
897.587	21618
897.708	21701
897.828	21580
897.949	21610
898.07	21370
898.19	21458
898.311	21728
898.431	21583
898.552	21583
898.672	21633
898.792	21705
898.913	21629
899.033	21542
899.153	21450
899.273	21329
899.393	21416
899.513	21378
899.633	21317
899.753	21249
899.873	21367
899.993	21367
900.113	21283
900.232	21367
900.352	21256
900.472	21195
900.591	21013
900.711	21123
900.83	20971
900.95	21317
901.069	21226
901.189	21024
901.308	20712
901.427	20625
901.546	20651
901.665	20560
901.784	20651
901.904	20590
902.023	20431
902.141	20244
902.26	20130
902.379	20244
902.498	20229
902.617	20153
902.735	20111
902.854	20111
902.973	20081
903.091	19841
903.21	19833
903.328	19902
903.446	19753
903.565	19651
903.683	19734
903.801	19476
903.919	19635
904.038	19510
904.156	19297
904.274	19483
904.392	19346
904.51	19358
904.627	19354
904.745	19430
904.863	19350
904.981	19015
905.098	18977
905.216	18954
905.334	19110
905.451	18947
905.569	18935
905.686	19038
905.803	19008
905.921	18802
906.038	18981
906.155	18749
906.272	18688
906.389	18810
906.506	18540
906.623	18597
906.74	18582
906.857	18391
906.974	18464
907.091	18490
907.208	18734
907.324	18574
907.441	18475
907.557	18361
907.674	18239
907.79	18228
907.907	18213
908.023	18232
908.139	18083
908.256	18186
908.372	18076
908.488	18049
908.604	17988
908.72	17912
908.836	17992
908.952	17950
909.068	18015
909.184	18083
909.3	18015
909.415	17931
909.531	17984
909.647	17722
909.762	17638
909.878	17608
909.993	17703
910.108	17665
910.224	17653
910.339	17649
910.454	17592
910.57	17524
910.685	17356
910.8	17703
910.915	17570
911.03	17547
911.145	17242
911.259	17200
911.374	17269
911.489	17197
911.604	17079
911.718	16915
911.833	16999
911.947	16877
912.062	16835
912.176	16995
912.291	17041
912.405	16980
912.519	17140
912.633	17220
912.748	17006
912.862	16961
912.976	16748
913.09	16668
913.204	16706
913.318	16755
913.431	16877
913.545	16824
913.659	16847
913.772	16778
913.886	16573
914	16649
914.113	16626
914.226	16668
914.34	16626
914.453	16493
914.566	16630
914.68	16531
914.793	16360
914.906	16173
915.019	16112
915.132	16055
915.245	16166
915.358	16074
915.47	16272
915.583	16124
915.696	16147
915.809	16207
915.921	16299
916.034	16147
916.146	16059
916.259	16044
916.371	16109
916.483	16048
916.595	15968
916.708	15968
916.82	15850
916.932	15873
917.044	15915
917.156	15884
917.268	15781
917.38	15736
917.491	15785
917.603	15747
917.715	15800
917.826	15774
917.938	15720
918.049	15622
918.161	15690
918.272	15854
918.384	15800
918.495	15557
918.606	15523
918.717	15378
918.828	15515
918.939	15523
919.05	15515
919.161	15416
919.272	15222
919.383	15382
919.494	15431
919.604	15736
919.715	15523
919.826	15401
919.936	15454
920.047	15553
920.157	15504
920.267	15690
920.378	15431
920.488	15378
920.598	15618
920.708	15705
920.818	15633
920.928	15458
921.038	15709
921.148	15682
921.258	15393
921.368	15256
921.477	15123
921.587	15100
921.697	14910
921.806	15108
921.916	14990
922.025	14849
922.134	14819
922.244	14781
922.353	14739
922.462	14716
922.571	14651
922.68	14492
922.789	14431
922.898	14389
923.007	14305
923.116	14473
923.224	14400
923.333	14332
923.442	14313
923.55	14301
923.659	14252
923.767	14233
923.876	14206
923.984	14237
924.092	14157
924.201	14214
924.309	14138
924.417	14073
924.525	14115
924.633	14054
924.741	14804
924.849	13868
924.956	13978
925.064	13807
925.172	13628
925.279	13803
925.387	13818
925.494	13765
925.602	13898
925.709	13822
925.816	13670
925.924	13700
926.031	13742
926.138	13750
926.245	13753
926.352	13613
926.459	13765
926.566	13723
926.673	13677
926.779	13411
926.886	13544
926.993	13327
927.099	13297
927.206	13213
927.312	13263
927.419	13377
927.525	13228
927.631	13384
927.737	13194
927.843	13209
927.95	13050
928.056	13198
928.162	13217
928.267	13095
928.373	13799
928.479	13190
928.585	12977
928.69	13141
928.796	13129
928.901	13004
929.007	12897
929.112	12916
929.218	12954
929.323	12825
929.428	12776
929.533	12856
929.638	12734
929.743	12829
929.848	12829
929.953	12757
930.058	12654
930.163	12475
930.267	12452
930.372	12646
930.477	12502
930.581	12658
930.685	12471
930.79	12292
930.894	12467
930.998	12376
931.103	12475
931.207	12114
931.311	12034
931.415	11980
931.519	11737
931.623	11737
