Data from test_V78500241_2342.txt Node
Date: Fri Mar 25 15:58:01 CST 2022
User: usil
Spectrometer: V785-0024
Trigger mode: 0
Integration Time (sec): 4.000000E-1
Scans to average: 1
Nonlinearity correction enabled: false
Boxcar width: 0
Storing dark spectrum: false
XAxis mode: Wavelengths
Number of Pixels in Spectrum: 1024
>>>>>Begin Spectral Data<<<<<
801.071	28668
801.214	28599
801.356	28398
801.499	28356
801.641	28143
801.783	28124
801.926	28196
802.068	28211
802.211	28226
802.353	28242
802.496	27975
802.638	27994
802.78	27808
802.923	27880
803.065	27690
803.208	27930
803.35	27873
803.492	27956
803.635	28158
803.777	28017
803.919	28116
804.061	28531
804.204	28044
804.346	28120
804.488	28032
804.63	28158
804.773	28025
804.915	28367
805.057	28181
805.199	28181
805.341	28124
805.483	28234
805.626	28276
805.768	28169
805.91	28310
806.052	28287
806.194	28261
806.336	28497
806.478	28272
806.62	28253
806.762	28546
806.904	28451
807.046	28733
807.188	28755
807.33	28786
807.472	28733
807.614	28557
807.756	28790
807.898	28561
808.04	28470
808.182	28538
808.324	28611
808.465	28725
808.607	28888
808.749	28824
808.891	29056
809.033	29098
809.174	29064
809.316	28946
809.458	28839
809.6	29033
809.741	29098
809.883	29105
810.025	29254
810.166	29334
810.308	29254
810.45	29200
810.591	29140
810.733	28934
810.875	28835
811.016	28942
811.158	28877
811.299	29041
811.441	29159
811.582	29117
811.724	28896
811.865	28892
812.007	28908
812.148	28961
812.29	29041
812.431	29151
812.573	29284
812.714	29398
812.855	29592
812.997	29646
813.138	29695
813.279	29570
813.421	29570
813.562	29330
813.703	29200
813.845	29277
813.986	29044
814.127	28740
814.268	28611
814.41	28672
814.551	28618
814.692	28782
814.833	28763
814.974	28645
815.115	28675
815.256	28611
815.397	28668
815.539	28554
815.68	28401
815.821	28363
815.962	28470
816.103	28542
816.244	28497
816.385	28303
816.526	28226
816.666	28082
816.807	28044
816.948	28063
817.089	28093
817.23	28032
817.371	27968
817.512	27949
817.653	27991
817.793	27972
817.934	27949
818.075	28162
818.216	27979
818.356	27941
818.497	27934
818.638	27698
818.778	27667
818.919	27755
819.06	27914
819.2	27827
819.341	28055
819.481	27857
819.622	28226
819.762	28333
819.903	28261
820.043	28173
820.184	28246
820.324	28242
820.465	28135
820.605	28337
820.746	28086
820.886	27888
821.026	27922
821.167	28105
821.307	28192
821.447	27994
821.588	27865
821.728	27831
821.868	27713
822.008	27488
822.149	27481
822.289	27401
822.429	27176
822.569	27222
822.709	27188
822.849	26967
822.99	26967
823.13	27051
823.27	26910
823.41	26895
823.55	26804
823.69	26838
823.83	26868
823.97	26815
824.11	26587
824.25	26571
824.389	26541
824.529	26689
824.669	26537
824.809	26762
824.949	26811
825.089	26792
825.228	26663
825.368	26514
825.508	26488
825.648	26556
825.787	26499
825.927	26507
826.067	26514
826.206	26590
826.346	26617
826.485	26530
826.625	26495
826.765	26492
826.904	26503
827.044	26252
827.183	26191
827.323	26240
827.462	26286
827.601	26210
827.741	26103
827.88	26286
828.02	26005
828.159	26256
828.298	26172
828.437	26145
828.577	26199
828.716	26294
828.855	26157
828.994	26035
829.134	25822
829.273	25803
829.412	25837
829.551	25788
829.69	25947
829.829	25818
829.968	25951
830.107	25894
830.246	25868
830.385	25837
830.524	25887
830.663	25738
830.802	25639
830.941	25563
831.08	25647
831.219	25605
831.357	25590
831.496	25788
831.635	25483
831.774	25392
831.913	25487
832.051	25263
832.19	25373
832.329	25346
832.467	25232
832.606	25061
832.744	25095
832.883	25175
833.022	25122
833.16	25084
833.299	25293
833.437	25145
833.576	25244
833.714	25206
833.852	25274
833.991	25270
834.129	25327
834.267	25228
834.406	25369
834.544	25118
834.682	25198
834.821	25171
834.959	25426
835.097	25114
835.235	25358
835.373	25126
835.511	25190
835.65	25012
835.788	25015
835.926	24947
836.064	24867
836.202	24913
836.34	24985
836.478	25107
836.615	24992
836.753	25080
836.891	25107
837.029	25076
837.167	24947
837.305	24833
837.443	24787
837.58	24791
837.718	24886
837.856	24951
837.993	24886
838.131	24954
838.269	24677
838.406	24700
838.544	24639
838.681	24559
838.819	24536
838.956	24277
839.094	24445
839.231	24429
839.369	24475
839.506	24757
839.643	24589
839.781	24403
839.918	24327
840.055	24251
840.193	24342
840.33	24311
840.467	24353
840.604	24391
840.742	24509
840.879	24091
841.016	24232
841.153	24152
841.29	24369
841.427	24327
841.564	24270
841.701	24289
841.838	24182
841.975	24068
842.112	24053
842.249	24110
842.385	23980
842.522	24281
842.659	24087
842.796	24057
842.933	23961
843.069	23999
843.206	23961
843.343	24072
843.479	23863
843.616	23954
843.752	23794
843.889	23843
844.025	23889
844.162	23798
844.298	23870
844.435	23767
844.571	23756
844.708	23840
844.844	24045
844.98	23980
845.117	23950
845.253	23649
845.389	23649
845.525	23634
845.661	23672
845.798	23566
845.934	23585
846.07	23501
846.206	23402
846.342	23600
846.478	23493
846.614	23280
846.75	23174
846.886	23242
847.022	23398
847.158	23334
847.294	23334
847.429	23307
847.565	23216
847.701	23471
847.837	22949
847.972	23060
848.108	23041
848.244	23128
848.379	22927
848.515	22847
848.65	22771
848.786	22847
848.921	22725
849.057	22805
849.192	22961
849.328	22862
849.463	22767
849.598	22710
849.734	22767
849.869	22615
850.004	22618
850.14	22694
850.275	22634
850.41	22424
850.545	22508
850.68	22573
850.815	22569
850.95	22569
851.085	22839
851.22	22733
851.355	22573
851.49	22599
851.625	22588
851.76	22451
851.895	22500
852.03	22580
852.165	22588
852.299	22664
852.434	22573
852.569	22523
852.703	22706
852.838	22561
852.973	22656
853.107	22713
853.242	22512
853.376	22440
853.511	22234
853.645	22318
853.78	22462
853.914	22516
854.048	22394
854.183	22371
854.317	22531
854.451	22565
854.585	22459
854.72	22421
854.854	22481
854.988	22466
855.122	22428
855.256	22253
855.39	22390
855.524	22557
855.658	22500
855.792	22303
855.926	22462
856.06	22402
856.194	22451
856.327	22421
856.461	22325
856.595	22443
856.729	22375
856.862	22580
856.996	22428
857.13	22493
857.263	22436
857.397	22546
857.53	22337
857.664	22344
857.797	22500
857.931	22428
858.064	22405
858.197	22386
858.331	22344
858.464	22424
858.597	22322
858.731	22367
858.864	22329
858.997	22344
859.13	22303
859.263	22557
859.396	22462
859.529	22333
859.662	22367
859.795	22394
859.928	22440
860.061	22660
860.194	22531
860.327	22409
860.46	22462
860.592	22489
860.725	22630
860.858	22470
860.99	22413
861.123	22428
861.256	22432
861.388	22375
861.521	23037
861.653	22257
861.786	22238
861.918	22226
862.05	22200
862.183	22291
862.315	22318
862.447	22360
862.58	22314
862.712	22147
862.844	22101
862.976	22238
863.108	22249
863.24	22588
863.372	22059
863.504	22112
863.636	22200
863.768	22181
863.9	22120
864.032	22025
864.164	22063
864.296	22169
864.428	22287
864.559	22185
864.691	22185
864.823	22086
864.954	22128
865.086	22112
865.217	22101
865.349	21899
865.48	21915
865.612	22017
865.743	22147
865.875	22029
866.006	22006
866.137	21972
866.269	21865
866.4	21994
866.531	21850
866.662	21884
866.793	21800
866.924	22010
867.055	21861
867.186	22006
867.317	21865
867.448	21869
867.579	21956
867.71	21835
867.841	21850
867.972	21808
868.103	21785
868.233	21895
868.364	21861
868.495	22078
868.625	21998
868.756	22306
868.886	22006
869.017	22051
869.147	22124
869.278	22352
869.408	22147
869.539	22067
869.669	22154
869.799	22329
869.929	22337
870.06	22287
870.19	22421
870.32	22314
870.45	22489
870.58	22588
870.71	22596
870.84	22763
870.97	22561
871.1	22626
871.23	22645
871.36	22733
871.489	22630
871.619	22866
871.749	22721
871.879	22752
872.008	22824
872.138	22809
872.267	22831
872.397	22656
872.526	22565
872.656	22580
872.785	22569
872.915	22748
873.044	22965
873.173	22942
873.303	22828
873.432	22839
873.561	22816
873.69	22691
873.819	22968
873.948	22736
874.077	22755
874.206	22729
874.335	22816
874.464	22923
874.593	22946
874.722	23044
874.851	23029
874.979	23003
875.108	23033
875.237	22900
875.365	22858
875.494	22980
875.623	22991
875.751	22934
875.88	23102
876.008	23090
876.136	23204
876.265	23421
876.393	23493
876.521	23505
876.65	23455
876.778	23364
876.906	23372
877.034	23334
877.162	23284
877.29	23349
877.418	23360
877.546	23299
877.674	23277
877.802	23220
877.93	23414
878.058	23277
878.185	23147
878.313	23204
878.441	23246
878.568	23071
878.696	23185
878.824	23448
878.951	23421
879.079	23493
879.206	23543
879.333	23478
879.461	23398
879.588	23376
879.715	23497
879.842	23573
879.97	23524
880.097	23071
880.224	23109
880.351	23170
880.478	23094
880.605	23113
880.732	22976
880.859	23258
880.986	23170
881.112	23132
881.239	23044
881.366	22862
881.493	22942
881.619	22771
881.746	22771
881.872	22748
881.999	22668
882.125	22660
882.252	22641
882.378	22668
882.505	22771
882.631	22634
882.757	22421
882.883	22455
883.01	22497
883.136	22276
883.262	22402
883.388	22177
883.514	22512
883.64	22546
883.766	22215
883.892	22128
884.018	22257
884.143	22379
884.269	22352
884.395	22150
884.52	22040
884.646	21964
884.772	21975
884.897	21991
885.023	21949
885.148	22128
885.274	22200
885.399	22143
885.524	22063
885.65	21956
885.775	21987
885.9	21941
886.025	22143
886.15	22135
886.275	22036
886.4	21911
886.525	21838
886.65	21869
886.775	22010
886.9	22048
887.025	22333
887.149	22051
887.274	21797
887.399	21766
887.523	21759
887.648	21804
887.773	21713
887.897	21838
888.021	21831
888.146	21682
888.27	21926
888.395	21838
888.519	21861
888.643	21724
888.767	21865
888.891	21739
889.015	21583
889.139	21682
889.263	21511
889.387	21667
889.511	21720
889.635	21785
889.759	21576
889.883	21454
890.006	21663
890.13	21610
890.254	21473
890.377	21545
890.501	21386
890.624	21237
890.748	21401
890.871	21188
890.995	21146
891.118	21108
891.241	21013
891.364	21131
891.488	21169
891.611	21085
891.734	21203
891.857	21096
891.98	21260
892.103	21188
892.226	21233
892.349	21104
892.471	20990
892.594	21062
892.717	21157
892.839	21043
892.962	21077
893.085	21112
893.207	20986
893.33	21001
893.452	20830
893.575	21123
893.697	21039
893.819	21192
893.941	21310
894.064	21142
894.186	20975
894.308	20925
894.43	21001
894.552	21131
894.674	21070
894.796	20990
894.918	21005
895.04	20963
895.161	21085
895.283	21138
895.405	20971
895.526	20948
895.648	21051
895.769	20982
895.891	21013
896.012	21112
896.134	21024
896.255	20975
896.376	20941
896.498	21005
896.619	21131
896.74	20941
896.861	21062
896.982	21408
897.103	21519
897.224	21256
897.345	21146
897.466	21230
897.587	21294
897.708	21325
897.828	21245
897.949	21077
898.07	21112
898.19	21287
898.311	21195
898.431	21226
898.552	21150
898.672	21294
898.792	21370
898.913	21237
899.033	21138
899.153	21028
899.273	20849
899.393	20971
899.513	20967
899.633	20872
899.753	21013
899.873	20739
899.993	20918
900.113	20872
900.232	20815
900.352	20838
900.472	20868
900.591	20693
900.711	20667
900.83	20568
900.95	20773
901.069	20788
901.189	20632
901.308	20381
901.427	20172
901.546	20210
901.665	20336
901.784	20263
901.904	20145
902.023	19989
902.141	19795
902.26	19818
902.379	20005
902.498	19845
902.617	19662
902.735	19826
902.854	19750
902.973	19727
903.091	19506
903.21	19510
903.328	19434
903.446	19293
903.565	19312
903.683	19282
903.801	19118
903.919	19187
904.038	19171
904.156	18932
904.274	19164
904.392	18943
904.51	18943
904.627	19053
904.745	18993
904.863	19012
904.981	18806
905.098	18688
905.216	18661
905.334	18738
905.451	18776
905.569	18559
905.686	18681
905.803	18589
905.921	18395
906.038	18601
906.155	18429
906.272	18315
906.389	18300
906.506	18209
906.623	18163
906.74	18064
906.857	18106
906.974	18087
907.091	18228
907.208	18258
907.324	18239
907.441	18053
907.557	17851
907.674	17904
907.79	17851
907.907	17855
908.023	17874
908.139	17927
908.256	17802
908.372	17748
908.488	17779
908.604	17672
908.72	17474
908.836	17596
908.952	17535
909.068	17592
909.184	17691
909.3	17604
909.415	17589
909.531	17509
909.647	17315
909.762	17307
909.878	17181
909.993	17292
910.108	17288
910.224	17265
910.339	17296
910.454	17132
910.57	17178
910.685	17105
910.8	17334
910.915	17265
911.03	17170
911.145	17006
911.259	16919
911.374	16923
911.489	16850
911.604	16782
911.718	16607
911.833	16672
911.947	16550
912.062	16443
912.176	16656
912.291	16554
912.405	16592
912.519	16771
912.633	16892
912.748	16622
912.862	16577
912.976	16508
913.09	16382
913.204	16409
913.318	16386
913.431	16508
913.545	16466
913.659	16500
913.772	16371
913.886	16322
914	16173
914.113	16295
914.226	16329
914.34	16287
914.453	16131
914.566	16211
914.68	16188
914.793	16131
914.906	15831
915.019	15823
915.132	15823
915.245	15835
915.358	15907
915.47	15846
915.583	15770
915.696	15778
915.809	15831
915.921	15785
916.034	15842
916.146	15732
916.259	15698
916.371	15736
916.483	15808
916.595	15660
916.708	15572
916.82	15690
916.932	15587
917.044	15584
917.156	15637
917.268	15412
917.38	15481
917.491	15351
917.603	15435
917.715	15408
917.826	15488
917.938	15367
918.049	15291
918.161	15397
918.272	15507
918.384	15405
918.495	15241
918.606	15207
918.717	15112
918.828	15203
918.939	15173
919.05	14990
919.161	15093
919.272	14948
919.383	15024
919.494	15188
919.604	15370
919.715	15119
919.826	14994
919.936	15043
920.047	15165
920.157	15119
920.267	15241
920.378	15047
920.488	15020
920.598	15252
920.708	15389
920.818	15237
920.928	15218
921.038	15428
921.148	15393
921.258	15043
921.368	15017
921.477	14982
921.587	14861
921.697	14712
921.806	14838
921.916	14777
922.025	14602
922.134	14461
922.244	14393
922.353	14492
922.462	14450
922.571	14240
922.68	14073
922.789	14100
922.898	14077
923.007	14115
923.116	14172
923.224	14084
923.333	14100
923.442	14008
923.55	13940
923.659	13970
923.767	13974
923.876	13807
923.984	13928
924.092	13894
924.201	13841
924.309	13814
924.417	13951
924.525	13734
924.633	13753
924.741	14697
924.849	13590
924.956	13700
925.064	13571
925.172	13472
925.279	13453
925.387	13556
925.494	13457
925.602	13628
925.709	13521
925.816	13365
925.924	13472
926.031	13613
926.138	13453
926.245	13415
926.352	13244
926.459	13499
926.566	13582
926.673	13381
926.779	13266
926.886	13236
926.993	13103
927.099	12993
927.206	13061
927.312	13046
927.419	13091
927.525	13038
927.631	13084
927.737	12913
927.843	12920
927.95	12795
928.056	12859
928.162	12848
928.267	12894
928.373	13506
928.479	13015
928.585	12692
928.69	12806
928.796	12852
928.901	12711
929.007	12525
929.112	12734
929.218	12681
929.323	12612
929.428	12631
929.533	12730
929.638	12597
929.743	12547
929.848	12639
929.953	12494
930.058	12350
930.163	12190
930.267	12201
930.372	12380
930.477	12296
930.581	12467
930.685	12304
930.79	12152
930.894	12228
930.998	12076
931.103	12247
931.207	11904
931.311	11859
931.415	11760
931.519	11512
931.623	11516
