Data from test_V78500241_3528.txt Node
Date: Fri Mar 25 16:06:14 CST 2022
User: usil
Spectrometer: V785-0024
Trigger mode: 0
Integration Time (sec): 4.000000E-1
Scans to average: 1
Nonlinearity correction enabled: false
Boxcar width: 0
Storing dark spectrum: false
XAxis mode: Wavelengths
Number of Pixels in Spectrum: 1024
>>>>>Begin Spectral Data<<<<<
801.071	28999
801.214	28980
801.356	28774
801.499	28706
801.641	28557
801.783	28577
801.926	28649
802.068	28523
802.211	28641
802.353	28630
802.496	28356
802.638	28466
802.78	28310
802.923	28196
803.065	28287
803.208	28204
803.35	28257
803.492	28447
803.635	28588
803.777	28485
803.919	28459
804.061	28896
804.204	28569
804.346	28584
804.488	28401
804.63	28478
804.773	28443
804.915	28557
805.057	28630
805.199	28580
805.341	28603
805.483	28793
805.626	28812
805.768	28580
805.91	28706
806.052	28710
806.194	28656
806.336	28873
806.478	28706
806.62	28698
806.762	28995
806.904	29060
807.046	29178
807.188	29132
807.33	29261
807.472	29258
807.614	29086
807.756	29239
807.898	28984
808.04	29006
808.182	28972
808.324	29090
808.465	29090
808.607	29337
808.749	29425
808.891	29482
809.033	29646
809.174	29433
809.316	29398
809.458	29516
809.6	29330
809.741	29627
809.883	29581
810.025	29745
810.166	29764
810.308	29786
810.45	29733
810.591	29615
810.733	29383
810.875	29493
811.016	29341
811.158	29417
811.299	29395
811.441	29718
811.582	29452
811.724	29501
811.865	29490
812.007	29512
812.148	29452
812.29	29455
812.431	29646
812.573	29821
812.714	29809
812.855	29958
812.997	30114
813.138	30178
813.279	30068
813.421	29977
813.562	29980
813.703	29912
813.845	29684
813.986	29452
814.127	29280
814.268	29121
814.41	29178
814.551	29185
814.692	29090
814.833	29124
814.974	29162
815.115	29212
815.256	29147
815.397	29193
815.539	29170
815.68	28930
815.821	28961
815.962	29075
816.103	28968
816.244	28809
816.385	28919
816.526	28725
816.666	28584
816.807	28550
816.948	28630
817.089	28713
817.23	28489
817.371	28489
817.512	28538
817.653	28421
817.793	28573
817.934	28550
818.075	28428
818.216	28519
818.356	28409
818.497	28329
818.638	28401
818.778	28291
818.919	28360
819.06	28493
819.2	28310
819.341	28584
819.481	28554
819.622	28733
819.762	28820
819.903	28752
820.043	28805
820.184	28702
820.324	28679
820.465	28641
820.605	28721
820.746	28618
820.886	28485
821.026	28637
821.167	28538
821.307	28721
821.447	28596
821.588	28386
821.728	28276
821.868	28101
822.008	28200
822.149	27998
822.289	27949
822.429	27671
822.569	27827
822.709	27671
822.849	27420
822.99	27568
823.13	27587
823.27	27477
823.41	27393
823.55	27150
823.69	27355
823.83	27283
823.97	27256
824.11	27157
824.25	27116
824.389	27310
824.529	27127
824.669	27165
824.809	27386
824.949	27275
825.089	27306
825.228	27207
825.368	27150
825.508	27036
825.648	27051
825.787	26971
825.927	27089
826.067	27005
826.206	26990
826.346	26940
826.485	27192
826.625	27127
826.765	27287
826.904	27135
827.044	26902
827.183	26765
827.323	26868
827.462	26880
827.601	26819
827.741	26781
827.88	26735
828.02	26735
828.159	26819
828.298	26914
828.437	26887
828.577	26705
828.716	26823
828.855	26655
828.994	26571
829.134	26393
829.273	26533
829.412	26488
829.551	26438
829.69	26488
829.829	26549
829.968	26480
830.107	26476
830.246	26442
830.385	26404
830.524	26358
830.663	26301
830.802	26263
830.941	26035
831.08	25944
831.219	26039
831.357	26107
831.496	26347
831.635	26054
831.774	25955
831.913	26084
832.051	25883
832.19	25772
832.329	25719
832.467	25635
832.606	25677
832.744	25750
832.883	25666
833.022	25681
833.16	25712
833.299	25837
833.437	25772
833.576	25833
833.714	25772
833.852	25883
833.991	25852
834.129	25830
834.267	26043
834.406	25753
834.544	25894
834.682	25780
834.821	25799
834.959	25902
835.097	25761
835.235	25822
835.373	25807
835.511	25723
835.65	25571
835.788	25624
835.926	25502
836.064	25422
836.202	25419
836.34	25647
836.478	25742
836.615	25700
836.753	25567
836.891	25662
837.029	25582
837.167	25563
837.305	25521
837.443	25388
837.58	25441
837.718	25502
837.856	25586
837.993	25274
838.131	25518
838.269	25308
838.406	25346
838.544	25225
838.681	24943
838.819	25095
838.956	25015
839.094	24856
839.231	24970
839.369	25099
839.506	25232
839.643	25114
839.781	24916
839.918	24928
840.055	24901
840.193	24894
840.33	24856
840.467	24722
840.604	24970
840.742	25072
840.879	24597
841.016	24829
841.153	24650
841.29	24856
841.427	24837
841.564	24814
841.701	24677
841.838	24757
841.975	24722
842.112	24730
842.249	24627
842.385	24585
842.522	24779
842.659	24677
842.796	24559
842.933	24441
843.069	24509
843.206	24494
843.343	24517
843.479	24673
843.616	24490
843.752	24308
843.889	24315
844.025	24426
844.162	24300
844.298	24319
844.435	24296
844.571	24327
844.708	24266
844.844	24490
844.98	24570
845.117	24505
845.253	24239
845.389	24213
845.525	24338
845.661	24060
845.798	24254
845.934	24144
846.07	24114
846.206	24201
846.342	24251
846.478	24007
846.614	23779
846.75	23627
846.886	23691
847.022	23863
847.158	23817
847.294	23767
847.429	23817
847.565	23737
847.701	23992
847.837	23444
847.972	23516
848.108	23653
848.244	23516
848.379	23505
848.515	23410
848.65	23379
848.786	23429
848.921	23376
849.057	23387
849.192	23474
849.328	23459
849.463	23493
849.598	23471
849.734	23349
849.869	23204
850.004	23105
850.14	23231
850.275	23231
850.41	23159
850.545	23094
850.68	23052
850.815	23143
850.95	23155
851.085	23353
851.22	23258
851.355	23090
851.49	23318
851.625	23185
851.76	23147
851.895	23041
852.03	23086
852.165	23223
852.299	23155
852.434	23113
852.569	23254
852.703	23227
852.838	23147
852.973	23166
853.107	23250
853.242	22987
853.376	22946
853.511	22904
853.645	23022
853.78	23083
853.914	22984
854.048	22930
854.183	22892
854.317	23094
854.451	23124
854.585	22953
854.72	23060
854.854	23003
854.988	22847
855.122	22999
855.256	22911
855.39	22869
855.524	23071
855.658	23056
855.792	22965
855.926	22869
856.06	22999
856.194	23128
856.327	22911
856.461	22938
856.595	22968
856.729	23033
856.862	22995
856.996	22942
857.13	23166
857.263	23181
857.397	23010
857.53	23105
857.664	23056
857.797	23086
857.931	23102
858.064	23033
858.197	23006
858.331	22942
858.464	23037
858.597	22866
858.731	22976
858.864	23113
858.997	22862
859.13	22942
859.263	23067
859.396	23132
859.529	22927
859.662	22862
859.795	22995
859.928	23022
860.061	23124
860.194	23143
860.327	23041
860.46	23003
860.592	23033
860.725	23109
860.858	23170
860.99	22980
861.123	22919
861.256	22908
861.388	22900
861.521	23756
861.653	22957
861.786	22721
861.918	22866
862.05	22900
862.183	23010
862.315	22965
862.447	22957
862.58	22919
862.712	22828
862.844	22573
862.976	22801
863.108	22736
863.24	23044
863.372	22580
863.504	22637
863.636	22630
863.768	22778
863.9	22694
864.032	22649
864.164	22687
864.296	22828
864.428	22805
864.559	22793
864.691	22763
864.823	22607
864.954	22611
865.086	22622
865.217	22466
865.349	22474
865.48	22565
865.612	22538
865.743	22763
865.875	22603
866.006	22523
866.137	22611
866.269	22550
866.4	22500
866.531	22550
866.662	22504
866.793	22363
866.924	22386
867.055	22542
867.186	22607
867.317	22504
867.448	22508
867.579	22516
867.71	22386
867.841	22459
867.972	22550
868.103	22379
868.233	22447
868.364	22584
868.495	22698
868.625	22691
868.756	22729
868.886	22622
869.017	22748
869.147	22824
869.278	22812
869.408	22873
869.539	22588
869.669	22755
869.799	22759
869.929	22889
870.06	22881
870.19	22980
870.32	23094
870.45	23174
870.58	23124
870.71	23239
870.84	23128
870.97	23227
871.1	23044
871.23	23364
871.36	23299
871.489	23086
871.619	23296
871.749	23261
871.879	23364
872.008	23471
872.138	23334
872.267	23258
872.397	23212
872.526	23250
872.656	23227
872.785	23246
872.915	23265
873.044	23372
873.173	23395
873.303	23429
873.432	23425
873.561	23467
873.69	23372
873.819	23334
873.948	23509
874.077	23296
874.206	23288
874.335	23349
874.464	23425
874.593	23539
874.722	23512
874.851	23608
874.979	23566
875.108	23668
875.237	23554
875.365	23463
875.494	23429
875.623	23608
875.751	23463
875.88	23619
876.008	23695
876.136	23756
876.265	23908
876.393	24015
876.521	23996
876.65	23992
876.778	23980
876.906	23999
877.034	23878
877.162	23847
877.29	23885
877.418	23923
877.546	23973
877.674	23843
877.802	23897
877.93	23878
878.058	23794
878.185	23741
878.313	23843
878.441	23798
878.568	23767
878.696	23752
878.824	23999
878.951	23992
879.079	24057
879.206	24213
879.333	23973
879.461	23923
879.588	24121
879.715	24030
879.842	24148
879.97	23939
880.097	23695
880.224	23752
880.351	23741
880.478	23775
880.605	23630
880.732	23699
880.859	23923
880.986	23733
881.112	23832
881.239	23535
881.366	23566
881.493	23379
881.619	23353
881.746	23364
881.872	23360
881.999	23239
882.125	23159
882.252	23242
882.378	23159
882.505	23387
882.631	23083
882.757	23075
882.883	23109
883.01	23060
883.136	22835
883.262	22961
883.388	22759
883.514	23006
883.64	22850
883.766	22797
883.892	22729
884.018	22683
884.143	22809
884.269	22953
884.395	22523
884.52	22493
884.646	22421
884.772	22405
884.897	22390
885.023	22557
885.148	22687
885.274	22713
885.399	22767
885.524	22557
885.65	22687
885.775	22592
885.9	22557
886.025	22634
886.15	22683
886.275	22508
886.4	22371
886.525	22596
886.65	22554
886.775	22462
886.9	22687
887.025	22809
887.149	22455
887.274	22363
887.399	22265
887.523	22379
887.648	22253
887.773	22223
887.897	22402
888.021	22382
888.146	22150
888.27	22523
888.395	22447
888.519	22379
888.643	22329
888.767	22421
888.891	22268
889.015	22067
889.139	22090
889.263	22131
889.387	22188
889.511	22276
889.635	22299
889.759	22040
889.883	22040
890.006	22162
890.13	22192
890.254	22162
890.377	22055
890.501	22021
890.624	21667
890.748	21899
890.871	21762
890.995	21717
891.118	21701
891.241	21709
891.364	21717
891.488	21785
891.611	21686
891.734	21618
891.857	21599
891.98	21698
892.103	21686
892.226	21610
892.349	21568
892.471	21462
892.594	21561
892.717	21492
892.839	21450
892.962	21450
893.085	21515
893.207	21523
893.33	21466
893.452	21530
893.575	21530
893.697	21439
893.819	21534
893.941	21762
894.064	21717
894.186	21397
894.308	21477
894.43	21564
894.552	21599
894.674	21637
894.796	21466
894.918	21351
895.04	21488
895.161	21530
895.283	21443
895.405	21408
895.526	21507
895.648	21386
895.769	21317
895.891	21564
896.012	21583
896.134	21481
896.255	21523
896.376	21336
896.498	21450
896.619	21549
896.74	21500
896.861	21496
896.982	21838
897.103	21854
897.224	21816
897.345	21701
897.466	21564
897.587	21660
897.708	21842
897.828	21580
897.949	21698
898.07	21542
898.19	21606
898.311	21751
898.431	21542
898.552	21781
898.672	21686
898.792	21599
898.913	21736
899.033	21561
899.153	21454
899.273	21401
899.393	21504
899.513	21538
899.633	21408
899.753	21367
899.873	21348
899.993	21336
900.113	21211
900.232	21340
900.352	21195
900.472	21245
900.591	21203
900.711	21135
900.83	21096
900.95	21192
901.069	21272
901.189	21138
901.308	20765
901.427	20750
901.546	20807
901.665	20724
901.784	20834
901.904	20575
902.023	20476
902.141	20374
902.26	20187
902.379	20336
902.498	20130
902.617	20206
902.735	20161
902.854	20176
902.973	20142
903.091	19822
903.21	19791
903.328	19852
903.446	19951
903.565	19658
903.683	19696
903.801	19548
903.919	19746
904.038	19655
904.156	19392
904.274	19483
904.392	19331
904.51	19510
904.627	19476
904.745	19362
904.863	19499
904.981	19358
905.098	19187
905.216	19202
905.334	19228
905.451	19141
905.569	19152
905.686	19122
905.803	18970
905.921	18817
906.038	18954
906.155	18848
906.272	18795
906.389	18806
906.506	18593
906.623	18616
906.74	18585
906.857	18456
906.974	18498
907.091	18547
907.208	18779
907.324	18665
907.441	18426
907.557	18315
907.674	18334
907.79	18232
907.907	18273
908.023	18289
908.139	18330
908.256	18296
908.372	18201
908.488	18350
908.604	18060
908.72	18038
908.836	18060
908.952	18022
909.068	18053
909.184	18133
909.3	17992
909.415	18060
909.531	18095
909.647	17847
909.762	17695
909.878	17783
909.993	17733
910.108	17680
910.224	17657
910.339	17718
910.454	17638
910.57	17547
910.685	17414
910.8	17657
910.915	17672
911.03	17417
911.145	17345
911.259	17216
911.374	17307
911.489	17193
911.604	17147
911.718	17067
911.833	17045
911.947	16946
912.062	16900
912.176	17109
912.291	17109
912.405	17056
912.519	17136
912.633	17326
912.748	16999
912.862	17003
912.976	16881
913.09	16706
913.204	16850
913.318	16885
913.431	16885
913.545	16797
913.659	16892
913.772	16797
913.886	16744
914	16664
914.113	16672
914.226	16637
914.34	16717
914.453	16558
914.566	16660
914.68	16493
914.793	16413
914.906	16242
915.019	16192
915.132	16048
915.245	16230
915.358	16188
915.47	16173
915.583	16101
915.696	16185
915.809	16333
915.921	16181
916.034	16158
916.146	16036
916.259	16097
916.371	16215
916.483	16192
916.595	15968
916.708	16048
916.82	16002
916.932	16006
917.044	16017
917.156	15907
917.268	15751
917.38	15873
917.491	15762
917.603	15888
917.715	15743
917.826	15960
917.938	15797
918.049	15656
918.161	15774
918.272	15937
918.384	15842
918.495	15755
918.606	15557
918.717	15424
918.828	15511
918.939	15614
919.05	15447
919.161	15595
919.272	15313
919.383	15378
919.494	15610
919.604	15724
919.715	15526
919.826	15401
919.936	15397
920.047	15549
920.157	15492
920.267	15652
920.378	15549
920.488	15469
920.598	15603
920.708	15724
920.818	15561
920.928	15660
921.038	15804
921.148	15728
921.258	15351
921.368	15279
921.477	15241
921.587	15279
921.697	15116
921.806	15260
921.916	14979
922.025	14845
922.134	14834
922.244	14868
922.353	14925
922.462	14762
922.571	14659
922.68	14511
922.789	14530
922.898	14511
923.007	14514
923.116	14488
923.224	14427
923.333	14438
923.442	14317
923.55	14271
923.659	14286
923.767	14393
923.876	14256
923.984	14355
924.092	14275
924.201	14202
924.309	14244
924.417	14271
924.525	14088
924.633	14107
924.741	15081
924.849	13986
924.956	14024
925.064	13814
925.172	13860
925.279	13788
925.387	13871
925.494	13803
925.602	14005
925.709	13864
925.816	13784
925.924	13788
926.031	13906
926.138	13727
926.245	13871
926.352	13704
926.459	13833
926.566	13791
926.673	13685
926.779	13624
926.886	13578
926.993	13537
927.099	13388
927.206	13339
927.312	13312
927.419	13464
927.525	13510
927.631	13472
927.737	13247
927.843	13350
927.95	13122
928.056	13156
928.162	13217
928.267	13247
928.373	13852
928.479	13198
928.585	12985
928.69	13209
928.796	13114
928.901	13034
929.007	12970
929.112	13031
929.218	12973
929.323	13000
929.428	12890
929.533	13050
929.638	12787
929.743	12856
929.848	12947
929.953	12867
930.058	12734
930.163	12544
930.267	12589
930.372	12707
930.477	12540
930.581	12730
930.685	12521
930.79	12456
930.894	12486
930.998	12414
931.103	12563
931.207	12194
931.311	12076
931.415	12011
931.519	11745
931.623	11722
