Data from test_V78500241_2463.txt Node
Date: Fri Mar 25 15:58:51 CST 2022
User: usil
Spectrometer: V785-0024
Trigger mode: 0
Integration Time (sec): 4.000000E-1
Scans to average: 1
Nonlinearity correction enabled: false
Boxcar width: 0
Storing dark spectrum: false
XAxis mode: Wavelengths
Number of Pixels in Spectrum: 1024
>>>>>Begin Spectral Data<<<<<
801.071	28740
801.214	28740
801.356	28634
801.499	28573
801.641	28417
801.783	28405
801.926	28424
802.068	28470
802.211	28379
802.353	28466
802.496	28261
802.638	28131
802.78	28207
802.923	27983
803.065	28044
803.208	28021
803.35	28128
803.492	28341
803.635	28398
803.777	28363
803.919	28356
804.061	28706
804.204	28466
804.346	28371
804.488	28379
804.63	28371
804.773	28318
804.915	28481
805.057	28481
805.199	28417
805.341	28493
805.483	28527
805.626	28363
805.768	28443
805.91	28527
806.052	28634
806.194	28630
806.336	28679
806.478	28573
806.62	28584
806.762	28752
806.904	28790
807.046	29090
807.188	28987
807.33	28930
807.472	28930
807.614	29109
807.756	28938
807.898	28839
808.04	28896
808.182	28911
808.324	28824
808.465	28987
808.607	29109
808.749	29307
808.891	29463
809.033	29406
809.174	29307
809.316	29318
809.458	29318
809.6	29166
809.741	29375
809.883	29486
810.025	29539
810.166	29543
810.308	29566
810.45	29356
810.591	29433
810.733	29296
810.875	29284
811.016	29109
811.158	29181
811.299	29273
811.441	29474
811.582	29269
811.724	29223
811.865	29303
812.007	29204
812.148	29265
812.29	29417
812.431	29581
812.573	29748
812.714	29657
812.855	29805
812.997	30034
813.138	30140
813.279	29950
813.421	29794
813.562	29809
813.703	29634
813.845	29589
813.986	29143
814.127	29235
814.268	29105
814.41	28938
814.551	28892
814.692	29006
814.833	28904
814.974	28908
815.115	28904
815.256	28713
815.397	28847
815.539	28869
815.68	28687
815.821	28687
815.962	28843
816.103	28744
816.244	28664
816.385	28497
816.526	28710
816.666	28401
816.807	28268
816.948	28360
817.089	28599
817.23	28436
817.371	28333
817.512	28284
817.653	28375
817.793	28287
817.934	28344
818.075	28211
818.216	28299
818.356	28181
818.497	28219
818.638	28112
818.778	28128
818.919	28116
819.06	28109
819.2	28318
819.341	28409
819.481	28333
819.622	28459
819.762	28626
819.903	28531
820.043	28523
820.184	28428
820.324	28451
820.465	28466
820.605	28363
820.746	28440
820.886	28325
821.026	28333
821.167	28386
821.307	28550
821.447	28390
821.588	28310
821.728	28124
821.868	27994
822.008	27937
822.149	27789
822.289	27701
822.429	27538
822.569	27519
822.709	27462
822.849	27249
822.99	27302
823.13	27313
823.27	27348
823.41	27096
823.55	27074
823.69	27135
823.83	27230
823.97	27058
824.11	26952
824.25	26838
824.389	26967
824.529	27127
824.669	26876
824.809	27017
824.949	27028
825.089	27009
825.228	26899
825.368	26762
825.508	26861
825.648	26845
825.787	26769
825.927	27032
826.067	26785
826.206	26834
826.346	26982
826.485	26918
826.625	26845
826.765	26883
826.904	26868
827.044	26632
827.183	26522
827.323	26518
827.462	26575
827.601	26552
827.741	26636
827.88	26632
828.02	26484
828.159	26625
828.298	26457
828.437	26750
828.577	26507
828.716	26708
828.855	26298
828.994	26328
829.134	26271
829.273	26244
829.412	26256
829.551	26180
829.69	26259
829.829	26267
829.968	26263
830.107	26355
830.246	26317
830.385	26259
830.524	26221
830.663	26100
830.802	26031
830.941	25753
831.08	25864
831.219	26001
831.357	25837
831.496	25993
831.635	25864
831.774	25734
831.913	25662
832.051	25677
832.19	25674
832.329	25616
832.467	25468
832.606	25457
832.744	25502
832.883	25556
833.022	25518
833.16	25525
833.299	25449
833.437	25613
833.576	25502
833.714	25685
833.852	25681
833.991	25616
834.129	25811
834.267	25727
834.406	25575
834.544	25613
834.682	25601
834.821	25552
834.959	25658
835.097	25639
835.235	25639
835.373	25464
835.511	25540
835.65	25441
835.788	25251
835.926	25293
836.064	25187
836.202	25228
836.34	25365
836.478	25403
836.615	25350
836.753	25468
836.891	25601
837.029	25457
837.167	25339
837.305	25297
837.443	25225
837.58	25247
837.718	25407
837.856	25213
837.993	25225
838.131	25156
838.269	25164
838.406	25194
838.544	25118
838.681	24909
838.819	24776
838.956	24719
839.094	24669
839.231	24703
839.369	24867
839.506	25076
839.643	24795
839.781	24665
839.918	24631
840.055	24669
840.193	24730
840.33	24620
840.467	24528
840.604	24578
840.742	24890
840.879	24433
841.016	24525
841.153	24502
841.29	24570
841.427	24448
841.564	24490
841.701	24544
841.838	24445
841.975	24490
842.112	24483
842.249	24464
842.385	24315
842.522	24540
842.659	24426
842.796	24407
842.933	24426
843.069	24209
843.206	24209
843.343	24372
843.479	24315
843.616	24300
843.752	24167
843.889	24182
844.025	24266
844.162	24205
844.298	24220
844.435	24133
844.571	24136
844.708	24159
844.844	24152
844.98	24201
845.117	24136
845.253	24072
845.389	23958
845.525	24079
845.661	23980
845.798	23935
845.934	23946
846.07	23927
846.206	23828
846.342	23870
846.478	23901
846.614	23615
846.75	23608
846.886	23600
847.022	23638
847.158	23585
847.294	23516
847.429	23619
847.565	23520
847.701	23855
847.837	23406
847.972	23318
848.108	23486
848.244	23455
848.379	23197
848.515	23052
848.65	23117
848.786	22999
848.921	23132
849.057	23235
849.192	23220
849.328	23220
849.463	23170
849.598	23079
849.734	23098
849.869	22961
850.004	22946
850.14	22896
850.275	22911
850.41	22801
850.545	22850
850.68	22778
850.815	22991
850.95	22908
851.085	22999
851.22	23102
851.355	22976
851.49	22919
851.625	22889
851.76	22923
851.895	22805
852.03	22869
852.165	22900
852.299	22965
852.434	22980
852.569	22961
852.703	22942
852.838	23041
852.973	22972
853.107	22991
853.242	22915
853.376	22771
853.511	22527
853.645	22641
853.78	22782
853.914	22771
854.048	22717
854.183	22904
854.317	22710
854.451	22957
854.585	22744
854.72	22615
854.854	22691
854.988	22637
855.122	22672
855.256	22599
855.39	22809
855.524	22778
855.658	22725
855.792	22706
855.926	22736
856.06	22729
856.194	22892
856.327	22946
856.461	22588
856.595	22725
856.729	22649
856.862	22793
856.996	22786
857.13	22668
857.263	22797
857.397	22854
857.53	22649
857.664	22862
857.797	22755
857.931	22801
858.064	22748
858.197	22850
858.331	22656
858.464	22691
858.597	22557
858.731	22763
858.864	22668
858.997	22679
859.13	22774
859.263	22607
859.396	22721
859.529	22740
859.662	22774
859.795	22664
859.928	22683
860.061	22968
860.194	22938
860.327	22839
860.46	22820
860.592	22824
860.725	22828
860.858	22904
860.99	22805
861.123	22653
861.256	22694
861.388	22744
861.521	23448
861.653	22565
861.786	22516
861.918	22603
862.05	22626
862.183	22656
862.315	22683
862.447	22622
862.58	22615
862.712	22523
862.844	22299
862.976	22565
863.108	22546
863.24	22850
863.372	22405
863.504	22341
863.636	22440
863.768	22489
863.9	22573
864.032	22329
864.164	22402
864.296	22504
864.428	22573
864.559	22550
864.691	22459
864.823	22409
864.954	22424
865.086	22432
865.217	22333
865.349	22276
865.48	22363
865.612	22265
865.743	22500
865.875	22428
866.006	22333
866.137	22405
866.269	22276
866.4	22284
866.531	22207
866.662	22173
866.793	22192
866.924	22424
867.055	22310
867.186	22238
867.317	22192
867.448	22196
867.579	22242
867.71	22093
867.841	22223
867.972	22246
868.103	22207
868.233	22177
868.364	22219
868.495	22249
868.625	22550
868.756	22603
868.886	22455
869.017	22535
869.147	22569
869.278	22485
869.408	22489
869.539	22455
869.669	22523
869.799	22481
869.929	22725
870.06	22481
870.19	22755
870.32	22759
870.45	22831
870.58	22752
870.71	22953
870.84	22889
870.97	23006
871.1	22980
871.23	23052
871.36	23109
871.489	22927
871.619	22949
871.749	23037
871.879	23124
872.008	23155
872.138	23113
872.267	23064
872.397	22915
872.526	22892
872.656	22885
872.785	22889
872.915	23067
873.044	23075
873.173	23052
873.303	23086
873.432	23185
873.561	23121
873.69	23151
873.819	23117
873.948	23273
874.077	23079
874.206	23010
874.335	23105
874.464	23216
874.593	23387
874.722	23280
874.851	23239
874.979	23299
875.108	23265
875.237	23208
875.365	23143
875.494	23227
875.623	23395
875.751	23311
875.88	23322
876.008	23326
876.136	23486
876.265	23653
876.393	23828
876.521	23802
876.65	23745
876.778	23573
876.906	23592
877.034	23646
877.162	23741
877.29	23505
877.418	23573
877.546	23764
877.674	23676
877.802	23680
877.93	23661
878.058	23592
878.185	23421
878.313	23653
878.441	23714
878.568	23444
878.696	23570
878.824	23600
878.951	23634
879.079	23882
879.206	23920
879.333	23665
879.461	23710
879.588	23726
879.715	23821
879.842	23901
879.97	23794
880.097	23604
880.224	23455
880.351	23505
880.478	23322
880.605	23353
880.732	23436
880.859	23737
880.986	23360
881.112	23444
881.239	23246
881.366	23151
881.493	23113
881.619	23060
881.746	23170
881.872	23022
881.999	22934
882.125	22877
882.252	22991
882.378	22953
882.505	23010
882.631	22873
882.757	22713
882.883	22713
883.01	22733
883.136	22637
883.262	22523
883.388	22462
883.514	22622
883.64	22599
883.766	22538
883.892	22428
884.018	22447
884.143	22618
884.269	22664
884.395	22432
884.52	22181
884.646	22352
884.772	22367
884.897	22162
885.023	22398
885.148	22455
885.274	22504
885.399	22367
885.524	22371
885.65	22371
885.775	22455
885.9	22318
886.025	22360
886.15	22261
886.275	22386
886.4	22074
886.525	22310
886.65	22314
886.775	22310
886.9	22379
887.025	22527
887.149	22299
887.274	22128
887.399	22021
887.523	22006
887.648	22067
887.773	21972
887.897	22173
888.021	22131
888.146	22032
888.27	22192
888.395	22211
888.519	22070
888.643	21972
888.767	22013
888.891	22105
889.015	21793
889.139	21945
889.263	21804
889.387	21907
889.511	22048
889.635	22013
889.759	21789
889.883	21884
890.006	21884
890.13	21918
890.254	21816
890.377	21873
890.501	21732
890.624	21538
890.748	21583
890.871	21458
890.995	21389
891.118	21340
891.241	21382
891.364	21466
891.488	21595
891.611	21378
891.734	21370
891.857	21504
891.98	21435
892.103	21382
892.226	21382
892.349	21340
892.471	21275
892.594	21291
892.717	21298
892.839	21310
892.962	21374
893.085	21363
893.207	21294
893.33	21096
893.452	21291
893.575	21329
893.697	21260
893.819	21374
893.941	21469
894.064	21439
894.186	21249
894.308	21294
894.43	21405
894.552	21405
894.674	21355
894.796	21283
894.918	21313
895.04	21264
895.161	21317
895.283	21264
895.405	21180
895.526	21237
895.648	21313
895.769	21218
895.891	21310
896.012	21412
896.134	21336
896.255	21302
896.376	21180
896.498	21226
896.619	21302
896.74	21268
896.861	21306
896.982	21488
897.103	21842
897.224	21542
897.345	21367
897.466	21473
897.587	21523
897.708	21595
897.828	21473
897.949	21393
898.07	21279
898.19	21260
898.311	21603
898.431	21382
898.552	21477
898.672	21420
898.792	21534
898.913	21450
899.033	21291
899.153	21272
899.273	21104
899.393	21214
899.513	21275
899.633	21188
899.753	21138
899.873	21176
899.993	21157
900.113	21062
900.232	21199
900.352	21081
900.472	21009
900.591	20960
900.711	20975
900.83	20895
900.95	21047
901.069	20986
901.189	20895
901.308	20667
901.427	20571
901.546	20598
901.665	20590
901.784	20492
901.904	20427
902.023	20305
902.141	20016
902.26	20077
902.379	20149
902.498	19982
902.617	19955
902.735	20046
902.854	19959
902.973	19803
903.091	19677
903.21	19719
903.328	19624
903.446	19643
903.565	19533
903.683	19426
903.801	19270
903.919	19426
904.038	19434
904.156	19308
904.274	19270
904.392	19285
904.51	19168
904.627	19236
904.745	19217
904.863	19244
904.981	19034
905.098	18852
905.216	18833
905.334	18901
905.451	18973
905.569	18833
905.686	18962
905.803	18939
905.921	18536
906.038	18840
906.155	18639
906.272	18506
906.389	18684
906.506	18391
906.623	18441
906.74	18410
906.857	18372
906.974	18403
907.091	18395
907.208	18528
907.324	18384
907.441	18220
907.557	18155
907.674	18098
907.79	18068
907.907	18106
908.023	18152
908.139	18110
908.256	18125
908.372	17942
908.488	18049
908.604	17908
908.72	17912
908.836	17764
908.952	17767
909.068	17809
909.184	17973
909.3	17893
909.415	17889
909.531	17878
909.647	17630
909.762	17524
909.878	17497
909.993	17570
910.108	17604
910.224	17425
910.339	17501
910.454	17360
910.57	17421
910.685	17242
910.8	17547
910.915	17436
911.03	17322
911.145	17159
911.259	17212
911.374	17170
911.489	17071
911.604	17014
911.718	16885
911.833	16968
911.947	16725
912.062	16717
912.176	16782
912.291	16847
912.405	16873
912.519	17052
912.633	17128
912.748	16869
912.862	16809
912.976	16759
913.09	16580
913.204	16664
913.318	16653
913.431	16801
913.545	16691
913.659	16717
913.772	16698
913.886	16402
914	16443
914.113	16466
914.226	16504
914.34	16531
914.453	16390
914.566	16379
914.68	16249
914.793	16284
914.906	16021
915.019	15956
915.132	16071
915.245	15918
915.358	16051
915.47	16032
915.583	16002
915.696	16055
915.809	16154
915.921	15968
916.034	15937
916.146	15869
916.259	15907
916.371	15873
916.483	15930
916.595	15812
916.708	15854
916.82	15789
916.932	15842
917.044	15778
917.156	15644
917.268	15580
917.38	15690
917.491	15633
917.603	15610
917.715	15739
917.826	15797
917.938	15557
918.049	15515
918.161	15553
918.272	15671
918.384	15633
918.495	15450
918.606	15359
918.717	15291
918.828	15363
918.939	15359
919.05	15268
919.161	15336
919.272	15184
919.383	15233
919.494	15401
919.604	15610
919.715	15317
919.826	15279
919.936	15306
920.047	15340
920.157	15340
920.267	15648
920.378	15344
920.488	15294
920.598	15466
920.708	15637
920.818	15500
920.928	15416
921.038	15629
921.148	15622
921.258	15325
921.368	15161
921.477	14986
921.587	14975
921.697	14933
921.806	14956
921.916	14807
922.025	14819
922.134	14720
922.244	14629
922.353	14682
922.462	14541
922.571	14530
922.68	14328
922.789	14339
922.898	14328
923.007	14290
923.116	14294
923.224	14286
923.333	14278
923.442	14199
923.55	14077
923.659	14145
923.767	14210
923.876	14073
923.984	14111
924.092	14012
924.201	14077
924.309	14062
924.417	14050
924.525	13898
924.633	13909
924.741	14785
924.849	13780
924.956	13780
925.064	13780
925.172	13632
925.279	13727
925.387	13769
925.494	13708
925.602	13837
925.709	13719
925.816	13575
925.924	13552
926.031	13677
926.138	13605
926.245	13662
926.352	13552
926.459	13715
926.566	13681
926.673	13476
926.779	13445
926.886	13434
926.993	13266
927.099	13179
927.206	13156
927.312	13114
927.419	13316
927.525	13190
927.631	13171
927.737	13133
927.843	12996
927.95	12867
928.056	12973
928.162	13046
928.267	13053
928.373	13700
928.479	12996
928.585	12882
928.69	12996
928.796	13053
928.901	12932
929.007	12665
929.112	12829
929.218	12810
929.323	12791
929.428	12768
929.533	12856
929.638	12715
929.743	12749
929.848	12749
929.953	12696
930.058	12673
930.163	12437
930.267	12407
930.372	12585
930.477	12407
930.581	12547
930.685	12464
930.79	12270
930.894	12247
930.998	12243
931.103	12330
931.207	12049
931.311	12019
931.415	11828
931.519	11684
931.623	11634
