Data from test_V78500241_3089.txt Node
Date: Fri Mar 25 16:03:11 CST 2022
User: usil
Spectrometer: V785-0024
Trigger mode: 0
Integration Time (sec): 4.000000E-1
Scans to average: 1
Nonlinearity correction enabled: false
Boxcar width: 0
Storing dark spectrum: false
XAxis mode: Wavelengths
Number of Pixels in Spectrum: 1024
>>>>>Begin Spectral Data<<<<<
801.071	28284
801.214	28268
801.356	27941
801.499	27918
801.641	27854
801.783	27747
801.926	27789
802.068	27793
802.211	27869
802.353	27656
802.496	27401
802.638	27568
802.78	27435
802.923	27431
803.065	27447
803.208	27393
803.35	27351
803.492	27667
803.635	27656
803.777	27504
803.919	27663
804.061	27949
804.204	27625
804.346	27679
804.488	27507
804.63	27648
804.773	27473
804.915	27804
805.057	27884
805.199	27644
805.341	27736
805.483	27880
805.626	27800
805.768	27766
805.91	27694
806.052	27766
806.194	27739
806.336	27876
806.478	27850
806.62	27679
806.762	27888
806.904	28036
807.046	28284
807.188	28306
807.33	28226
807.472	28291
807.614	28219
807.756	28207
807.898	28150
808.04	27953
808.182	27968
808.324	28173
808.465	28124
808.607	28417
808.749	28493
808.891	28497
809.033	28538
809.174	28691
809.316	28432
809.458	28443
809.6	28417
809.741	28630
809.883	28561
810.025	28687
810.166	28653
810.308	28729
810.45	28691
810.591	28675
810.733	28485
810.875	28512
811.016	28352
811.158	28504
811.299	28474
811.441	28603
811.582	28516
811.724	28500
811.865	28451
812.007	28394
812.148	28493
812.29	28516
812.431	28611
812.573	28786
812.714	28904
812.855	29025
812.997	29033
813.138	29296
813.279	28999
813.421	29006
813.562	28908
813.703	28824
813.845	28596
813.986	28348
814.127	28322
814.268	28207
814.41	28181
814.551	28150
814.692	28139
814.833	28215
814.974	28139
815.115	28196
815.256	28048
815.397	28086
815.539	28097
815.68	27907
815.821	27751
815.962	27994
816.103	27873
816.244	27953
816.385	27736
816.526	27724
816.666	27473
816.807	27450
816.948	27519
817.089	27580
817.23	27496
817.371	27473
817.512	27507
817.653	27469
817.793	27412
817.934	27355
818.075	27310
818.216	27519
818.356	27397
818.497	27519
818.638	27089
818.778	27214
818.919	27367
819.06	27374
819.2	27447
819.341	27397
819.481	27583
819.622	27557
819.762	27903
819.903	27652
820.043	27572
820.184	27698
820.324	27622
820.465	27652
820.605	27732
820.746	27606
820.886	27447
821.026	27633
821.167	27583
821.307	27618
821.447	27481
821.588	27355
821.728	27272
821.868	27017
822.008	27017
822.149	27005
822.289	26925
822.429	26693
822.569	26598
822.709	26689
822.849	26594
822.99	26446
823.13	26423
823.27	26484
823.41	26298
823.55	26126
823.69	26355
823.83	26256
823.97	26328
824.11	26020
824.25	26092
824.389	26107
824.529	26206
824.669	26103
824.809	26218
824.949	26210
825.089	26202
825.228	26058
825.368	26005
825.508	25993
825.648	26050
825.787	26069
825.927	25978
826.067	25864
826.206	25932
826.346	25970
826.485	25989
826.625	25940
826.765	26142
826.904	26149
827.044	25795
827.183	25696
827.323	25746
827.462	25693
827.601	25677
827.741	25719
827.88	25723
828.02	25628
828.159	25655
828.298	25712
828.437	25791
828.577	25700
828.716	25681
828.855	25613
828.994	25468
829.134	25411
829.273	25369
829.412	25304
829.551	25327
829.69	25346
829.829	25343
829.968	25377
830.107	25438
830.246	25312
830.385	25464
830.524	25255
830.663	25225
830.802	25076
830.941	24871
831.08	25027
831.219	25046
831.357	25099
831.496	25255
831.635	25122
831.774	24970
831.913	24905
832.051	24547
832.19	24661
832.329	24768
832.467	24692
832.606	24665
832.744	24559
832.883	24601
833.022	24627
833.16	24677
833.299	24658
833.437	24696
833.576	24760
833.714	24753
833.852	24719
833.991	24814
834.129	24741
834.267	24787
834.406	24776
834.544	24787
834.682	24566
834.821	24707
834.959	24882
835.097	24650
835.235	24730
835.373	24791
835.511	24692
835.65	24574
835.788	24498
835.926	24464
836.064	24258
836.202	24365
836.34	24528
836.478	24669
836.615	24540
836.753	24627
836.891	24589
837.029	24608
837.167	24475
837.305	24426
837.443	24380
837.58	24372
837.718	24357
837.856	24369
837.993	24277
838.131	24304
838.269	24266
838.406	24365
838.544	24270
838.681	24072
838.819	24091
838.956	23817
839.094	23935
839.231	23882
839.369	24007
839.506	24140
839.643	24049
839.781	23832
839.918	23745
840.055	23863
840.193	23828
840.33	23657
840.467	23649
840.604	23813
840.742	24091
840.879	23558
841.016	23691
841.153	23661
841.29	23790
841.427	23699
841.564	23904
841.701	23771
841.838	23623
841.975	23630
842.112	23703
842.249	23585
842.385	23490
842.522	23668
842.659	23611
842.796	23592
842.933	23570
843.069	23585
843.206	23497
843.343	23592
843.479	23539
843.616	23600
843.752	23410
843.889	23261
844.025	23467
844.162	23143
844.298	23433
844.435	23280
844.571	23318
844.708	23402
844.844	23341
844.98	23410
845.117	23448
845.253	23193
845.389	23025
845.525	23132
845.661	23265
845.798	23006
845.934	23037
846.07	22999
846.206	22953
846.342	23079
846.478	23025
846.614	22793
846.75	22713
846.886	22748
847.022	22809
847.158	22786
847.294	22809
847.429	22850
847.565	22702
847.701	23006
847.837	22470
847.972	22447
848.108	22474
848.244	22485
848.379	22299
848.515	22455
848.65	22257
848.786	22299
848.921	22211
849.057	22455
849.192	22291
849.328	22390
849.463	22379
849.598	22238
849.734	22226
849.869	22139
850.004	22036
850.14	22219
850.275	22109
850.41	22097
850.545	21983
850.68	22055
850.815	22211
850.95	22116
851.085	22360
851.22	22306
851.355	22143
851.49	22086
851.625	22055
851.76	22032
851.895	21994
852.03	22006
852.165	22025
852.299	22067
852.434	22272
852.569	22029
852.703	22131
852.838	22181
852.973	22177
853.107	22181
853.242	21991
853.376	21899
853.511	21865
853.645	21865
853.78	21983
853.914	21895
854.048	21892
854.183	21903
854.317	21956
854.451	21934
854.585	21922
854.72	21991
854.854	22029
854.988	21785
855.122	21926
855.256	21842
855.39	21869
855.524	22036
855.658	21892
855.792	21937
855.926	21983
856.06	21998
856.194	22086
856.327	21899
856.461	21880
856.595	21869
856.729	21937
856.862	22051
856.996	22090
857.13	22040
857.263	22017
857.397	22090
857.53	21880
857.664	21987
857.797	22109
857.931	22109
858.064	21983
858.197	22074
858.331	21926
858.464	21907
858.597	21800
858.731	21804
858.864	21827
858.997	21873
859.13	21968
859.263	21922
859.396	21945
859.529	21827
859.662	21842
859.795	21816
859.928	21972
860.061	22067
860.194	22097
860.327	22010
860.46	21930
860.592	22109
860.725	22048
860.858	22029
860.99	21857
861.123	21911
861.256	21903
861.388	22010
861.521	22626
861.653	21838
861.786	21770
861.918	21759
862.05	21709
862.183	21857
862.315	21865
862.447	21949
862.58	21850
862.712	21656
862.844	21534
862.976	21766
863.108	21686
863.24	22082
863.372	21591
863.504	21519
863.636	21580
863.768	21500
863.9	21705
864.032	21542
864.164	21568
864.296	21599
864.428	21762
864.559	21781
864.691	21812
864.823	21549
864.954	21755
865.086	21496
865.217	21519
865.349	21435
865.48	21473
865.612	21549
865.743	21663
865.875	21606
866.006	21515
866.137	21507
866.269	21504
866.4	21507
866.531	21610
866.662	21488
866.793	21447
866.924	21542
867.055	21542
867.186	21466
867.317	21511
867.448	21443
867.579	21408
867.71	21340
867.841	21287
867.972	21435
868.103	21568
868.233	21488
868.364	21462
868.495	21656
868.625	21720
868.756	21823
868.886	21614
869.017	21663
869.147	21819
869.278	21762
869.408	21690
869.539	21701
869.669	21770
869.799	21793
869.929	21694
870.06	21781
870.19	21888
870.32	21953
870.45	22021
870.58	22055
870.71	22185
870.84	22139
870.97	22093
871.1	22131
871.23	22185
871.36	22249
871.489	22204
871.619	22147
871.749	22265
871.879	22299
872.008	22360
872.138	22181
872.267	22223
872.397	22268
872.526	22112
872.656	22177
872.785	22124
872.915	22181
873.044	22382
873.173	22234
873.303	22360
873.432	22314
873.561	22379
873.69	22409
873.819	22413
873.948	22413
874.077	22394
874.206	22276
874.335	22367
874.464	22421
874.593	22584
874.722	22432
874.851	22569
874.979	22630
875.108	22504
875.237	22481
875.365	22462
875.494	22443
875.623	22607
875.751	22523
875.88	22672
876.008	22649
876.136	22755
876.265	22968
876.393	23086
876.521	23121
876.65	23048
876.778	22923
876.906	22904
877.034	22953
877.162	22828
877.29	22805
877.418	22934
877.546	22889
877.674	22900
877.802	22885
877.93	22847
878.058	22908
878.185	22847
878.313	22911
878.441	22965
878.568	22603
878.696	22744
878.824	22900
878.951	23056
879.079	23124
879.206	23197
879.333	23041
879.461	22911
879.588	23056
879.715	23014
879.842	23235
879.97	22946
880.097	22759
880.224	22755
880.351	22831
880.478	22774
880.605	22675
880.732	22782
880.859	22968
880.986	22801
881.112	22820
881.239	22519
881.366	22478
881.493	22394
881.619	22318
881.746	22352
881.872	22360
881.999	22192
882.125	22272
882.252	22314
882.378	22143
882.505	22295
882.631	22276
882.757	21915
882.883	22074
883.01	21934
883.136	21930
883.262	21876
883.388	21854
883.514	22013
883.64	22010
883.766	21945
883.892	21686
884.018	21755
884.143	21857
884.269	21983
884.395	21755
884.52	21644
884.646	21663
884.772	21447
884.897	21485
885.023	21633
885.148	21606
885.274	21728
885.399	21622
885.524	21595
885.65	21599
885.775	21610
885.9	21587
886.025	21618
886.15	21808
886.275	21564
886.4	21439
886.525	21542
886.65	21720
886.775	21568
886.9	21648
887.025	21762
887.149	21530
887.274	21382
887.399	21412
887.523	21249
887.648	21268
887.773	21226
887.897	21408
888.021	21416
888.146	21287
888.27	21386
888.395	21450
888.519	21378
888.643	21428
888.767	21538
888.891	21302
889.015	21218
889.139	21207
889.263	21013
889.387	21336
889.511	21370
889.635	21226
889.759	21089
889.883	21013
890.006	21207
890.13	21127
890.254	21146
890.377	21138
890.501	20929
890.624	20800
890.748	21024
890.871	20765
890.995	20678
891.118	20674
891.241	20868
891.364	20689
891.488	20914
891.611	20762
891.734	20788
891.857	20765
891.98	20682
892.103	20716
892.226	20670
892.349	20644
892.471	20507
892.594	20648
892.717	20758
892.839	20594
892.962	20644
893.085	20693
893.207	20541
893.33	20522
893.452	20530
893.575	20594
893.697	20522
893.819	20743
893.941	20864
894.064	20720
894.186	20583
894.308	20530
894.43	20739
894.552	20689
894.674	20720
894.796	20431
894.918	20552
895.04	20556
895.161	20667
895.283	20621
895.405	20480
895.526	20571
895.648	20602
895.769	20613
895.891	20701
896.012	20800
896.134	20617
896.255	20670
896.376	20438
896.498	20522
896.619	20636
896.74	20670
896.861	20636
896.982	21013
897.103	21047
897.224	20887
897.345	20796
897.466	20754
897.587	20796
897.708	20902
897.828	20796
897.949	20754
898.07	20587
898.19	20906
898.311	20849
898.431	20731
898.552	20952
898.672	20971
898.792	20944
898.913	20891
899.033	20583
899.153	20571
899.273	20545
899.393	20571
899.513	20636
899.633	20617
899.753	20522
899.873	20575
899.993	20636
900.113	20552
900.232	20579
900.352	20484
900.472	20400
900.591	20370
900.711	20290
900.83	20381
900.95	20434
901.069	20396
901.189	20313
901.308	20126
901.427	19947
901.546	19883
901.665	19928
901.784	19951
901.904	19795
902.023	19651
902.141	19521
902.26	19419
902.379	19521
902.498	19445
902.617	19304
902.735	19441
902.854	19453
902.973	19362
903.091	19110
903.21	19027
903.328	19099
903.446	18920
903.565	18996
903.683	18844
903.801	18757
903.919	18806
904.038	18848
904.156	18700
904.274	18658
904.392	18700
904.51	18540
904.627	18574
904.745	18665
904.863	18646
904.981	18304
905.098	18247
905.216	18292
905.334	18350
905.451	18403
905.569	18403
905.686	18448
905.803	18251
905.921	18114
906.038	18098
906.155	18136
906.272	17969
906.389	17961
906.506	17889
906.623	17821
906.74	17775
906.857	17718
906.974	17832
907.091	17840
907.208	17958
907.324	17733
907.441	17775
907.557	17627
907.674	17448
907.79	17516
907.907	17562
908.023	17573
908.139	17570
908.256	17467
908.372	17349
908.488	17391
908.604	17235
908.72	17204
908.836	17273
908.952	17181
909.068	17326
909.184	17376
909.3	17326
909.415	17341
909.531	17204
909.647	17083
909.762	17060
909.878	16896
909.993	17010
910.108	16957
910.224	17003
910.339	16953
910.454	16869
910.57	16771
910.685	16656
910.8	16911
910.915	16995
911.03	16736
911.145	16634
911.259	16565
911.374	16611
911.489	16504
911.604	16413
911.718	16306
911.833	16322
911.947	16276
912.062	16116
912.176	16333
912.291	16344
912.405	16287
912.519	16561
912.633	16489
912.748	16382
912.862	16253
912.976	16040
913.09	16013
913.204	16029
913.318	16128
913.431	16147
913.545	16238
913.659	16177
913.772	16032
913.886	15979
914	15781
914.113	16025
914.226	15987
914.34	16006
914.453	15679
914.566	15991
914.68	15804
914.793	15797
914.906	15542
915.019	15431
915.132	15447
915.245	15488
915.358	15515
915.47	15542
915.583	15466
915.696	15443
915.809	15557
915.921	15542
916.034	15382
916.146	15397
916.259	15424
916.371	15542
916.483	15401
916.595	15226
916.708	15283
916.82	15294
916.932	15329
917.044	15317
917.156	15325
917.268	15188
917.38	15146
917.491	15131
917.603	15188
917.715	15176
917.826	15135
917.938	14990
918.049	14929
918.161	15028
918.272	15108
918.384	15157
918.495	15055
918.606	14986
918.717	14830
918.828	14899
918.939	14963
919.05	14765
919.161	14883
919.272	14659
919.383	14716
919.494	14910
919.604	14956
919.715	14811
919.826	14777
919.936	14826
920.047	14853
920.157	14826
920.267	14925
920.378	14845
920.488	14785
920.598	14937
920.708	15142
920.818	14944
920.928	14933
921.038	15135
921.148	14979
921.258	14838
921.368	14697
921.477	14575
921.587	14602
921.697	14427
921.806	14579
921.916	14396
922.025	14290
922.134	14214
922.244	14191
922.353	14142
922.462	14111
922.571	14005
922.68	13868
922.789	13864
922.898	13864
923.007	13788
923.116	13955
923.224	13894
923.333	13932
923.442	13689
923.55	13712
923.659	13731
923.767	13742
923.876	13715
923.984	13719
924.092	13563
924.201	13601
924.309	13609
924.417	13548
924.525	13502
924.633	13567
924.741	14187
924.849	13426
924.956	13502
925.064	13339
925.172	13240
925.279	13251
925.387	13308
925.494	13308
925.602	13400
925.709	13304
925.816	13114
925.924	13209
926.031	13266
926.138	13156
926.245	13187
926.352	13042
926.459	13247
926.566	13301
926.673	13012
926.779	13000
926.886	13008
926.993	12802
927.099	12852
927.206	12806
927.312	12833
927.419	12810
927.525	12757
927.631	12840
927.737	12749
927.843	12665
927.95	12559
928.056	12601
928.162	12669
928.267	12604
928.373	13255
928.479	12764
928.585	12384
928.69	12551
928.796	12604
928.901	12433
929.007	12319
929.112	12441
929.218	12426
929.323	12414
929.428	12266
929.533	12445
929.638	12300
929.743	12292
929.848	12384
929.953	12224
930.058	12102
930.163	12011
930.267	12049
930.372	12144
930.477	12003
930.581	12243
930.685	12148
930.79	11828
930.894	11912
930.998	11916
931.103	11984
931.207	11756
931.311	11592
931.415	11558
931.519	11391
931.623	11231
