Data from test_V78500241_981.txt Node
Date: Fri Mar 25 15:48:35 CST 2022
User: usil
Spectrometer: V785-0024
Trigger mode: 0
Integration Time (sec): 4.000000E-1
Scans to average: 1
Nonlinearity correction enabled: false
Boxcar width: 0
Storing dark spectrum: false
XAxis mode: Wavelengths
Number of Pixels in Spectrum: 1024
>>>>>Begin Spectral Data<<<<<
801.071	28611
801.214	28504
801.356	28367
801.499	28196
801.641	28120
801.783	28147
801.926	28356
802.068	28131
802.211	28154
802.353	27941
802.496	27956
802.638	27857
802.78	27759
802.923	27728
803.065	27732
803.208	27774
803.35	27884
803.492	27937
803.635	28017
803.777	27892
803.919	28078
804.061	28417
804.204	28097
804.346	27953
804.488	27983
804.63	27991
804.773	27934
804.915	27960
805.057	28120
805.199	27941
805.341	28017
805.483	28280
805.626	28162
805.768	28116
805.91	28192
806.052	28253
806.194	28177
806.336	28226
806.478	28188
806.62	28257
806.762	28253
806.904	28394
807.046	28649
807.188	28733
807.33	28664
807.472	28634
807.614	28527
807.756	28618
807.898	28489
808.04	28527
808.182	28550
808.324	28538
808.465	28519
808.607	28679
808.749	28930
808.891	29079
809.033	29022
809.174	28896
809.316	28809
809.458	28740
809.6	28965
809.741	28957
809.883	29159
810.025	29105
810.166	29200
810.308	29147
810.45	29136
810.591	29056
810.733	29025
810.875	28801
811.016	28801
811.158	28839
811.299	29128
811.441	29102
811.582	29052
811.724	29018
811.865	29041
812.007	28995
812.148	29094
812.29	28908
812.431	29033
812.573	29311
812.714	29250
812.855	29421
812.997	29505
813.138	29722
813.279	29551
813.421	29444
813.562	29398
813.703	29353
813.845	29178
813.986	28873
814.127	28713
814.268	28603
814.41	28675
814.551	28565
814.692	28740
814.833	28554
814.974	28538
815.115	28691
815.256	28516
815.397	28557
815.539	28694
815.68	28443
815.821	28459
815.962	28421
816.103	28367
816.244	28249
816.385	28196
816.526	28070
816.666	28093
816.807	27930
816.948	27861
817.089	28029
817.23	28006
817.371	27937
817.512	27941
817.653	27850
817.793	27804
817.934	27911
818.075	27892
818.216	27987
818.356	27895
818.497	27846
818.638	27717
818.778	27656
818.919	27644
819.06	27835
819.2	27720
819.341	27876
819.481	27869
819.622	28010
819.762	28272
819.903	28116
820.043	28101
820.184	27953
820.324	27994
820.465	27941
820.605	28032
820.746	27979
820.886	27819
821.026	28013
821.167	28021
821.307	28139
821.447	27994
821.588	27873
821.728	27846
821.868	27629
822.008	27507
822.149	27473
822.289	27332
822.429	27100
822.569	27058
822.709	27131
822.849	26842
822.99	26982
823.13	26921
823.27	26826
823.41	26739
823.55	26667
823.69	26746
823.83	26845
823.97	26587
824.11	26469
824.25	26484
824.389	26629
824.529	26651
824.669	26617
824.809	26743
824.949	26720
825.089	26648
825.228	26651
825.368	26415
825.508	26606
825.648	26507
825.787	26598
825.927	26480
826.067	26606
826.206	26484
826.346	26667
826.485	26396
826.625	26621
826.765	26541
826.904	26507
827.044	26187
827.183	26278
827.323	26195
827.462	26324
827.601	26202
827.741	26176
827.88	26172
828.02	26149
828.159	26126
828.298	26153
828.437	26138
828.577	26073
828.716	26172
828.855	26043
828.994	25887
829.134	25909
829.273	25928
829.412	25803
829.551	25772
829.69	25860
829.829	25951
829.968	25947
830.107	26005
830.246	25925
830.385	25947
830.524	25772
830.663	25582
830.802	25594
830.941	25453
831.08	25499
831.219	25578
831.357	25563
831.496	25765
831.635	25487
831.774	25438
831.913	25381
832.051	25236
832.19	25304
832.329	25415
832.467	25206
832.606	25095
832.744	24989
832.883	25088
833.022	25126
833.16	25217
833.299	25198
833.437	25369
833.576	25247
833.714	25289
833.852	25171
833.991	25263
834.129	25278
834.267	25369
834.406	25084
834.544	25190
834.682	25274
834.821	25247
834.959	25320
835.097	25168
835.235	25198
835.373	25137
835.511	25274
835.65	25004
835.788	25187
835.926	24867
836.064	24840
836.202	24867
836.34	25168
836.478	25084
836.615	25175
836.753	25080
836.891	25114
837.029	25057
837.167	25008
837.305	24973
837.443	24973
837.58	24802
837.718	24856
837.856	24867
837.993	24749
838.131	24817
838.269	24802
838.406	24833
838.544	24700
838.681	24551
838.819	24513
838.956	24304
839.094	24300
839.231	24384
839.369	24570
839.506	24719
839.643	24563
839.781	24346
839.918	24311
840.055	24399
840.193	24304
840.33	24235
840.467	24220
840.604	24232
840.742	24544
840.879	24114
841.016	24304
841.153	24064
841.29	24323
841.427	24205
841.564	24300
841.701	24289
841.838	24152
841.975	24136
842.112	24201
842.249	24079
842.385	23939
842.522	24194
842.659	24068
842.796	24072
842.933	24003
843.069	23984
843.206	23935
843.343	24087
843.479	23893
843.616	24095
843.752	23653
843.889	23851
844.025	23935
844.162	23703
844.298	23767
844.435	23760
844.571	23836
844.708	23707
844.844	24053
844.98	23813
845.117	23832
845.253	23676
845.389	23703
845.525	23722
845.661	23577
845.798	23406
845.934	23592
846.07	23372
846.206	23444
846.342	23642
846.478	23356
846.614	23140
846.75	23056
846.886	23216
847.022	23288
847.158	23269
847.294	23242
847.429	23242
847.565	23132
847.701	23387
847.837	22987
847.972	22763
848.108	22991
848.244	23056
848.379	22930
848.515	22683
848.65	22725
848.786	22828
848.921	22759
849.057	22904
849.192	22873
849.328	22793
849.463	22858
849.598	22599
849.734	22668
849.869	22729
850.004	22580
850.14	22519
850.275	22527
850.41	22599
850.545	22398
850.68	22481
850.815	22546
850.95	22588
851.085	22778
851.22	22649
851.355	22569
851.49	22527
851.625	22538
851.76	22542
851.895	22390
852.03	22413
852.165	22599
852.299	22489
852.434	22538
852.569	22569
852.703	22607
852.838	22554
852.973	22683
853.107	22618
853.242	22489
853.376	22367
853.511	22257
853.645	22295
853.78	22451
853.914	22402
854.048	22341
854.183	22280
854.317	22337
854.451	22641
854.585	22352
854.72	22394
854.854	22451
854.988	22382
855.122	22447
855.256	22306
855.39	22363
855.524	22462
855.658	22360
855.792	22371
855.926	22516
856.06	22371
856.194	22424
856.327	22333
856.461	22375
856.595	22249
856.729	22398
856.862	22569
856.996	22390
857.13	22382
857.263	22478
857.397	22519
857.53	22333
857.664	22584
857.797	22531
857.931	22470
858.064	22318
858.197	22577
858.331	22341
858.464	22363
858.597	22196
858.731	22284
858.864	22341
858.997	22367
859.13	22291
859.263	22409
859.396	22497
859.529	22413
859.662	22421
859.795	22337
859.928	22428
860.061	22546
860.194	22569
860.327	22363
860.46	22318
860.592	22443
860.725	22630
860.858	22653
860.99	22455
861.123	22257
861.256	22322
861.388	22318
861.521	23113
861.653	22284
861.786	22135
861.918	22211
862.05	22280
862.183	22367
862.315	22299
862.447	22291
862.58	22299
862.712	22040
862.844	22032
862.976	22287
863.108	22188
863.24	22356
863.372	22055
863.504	22158
863.636	21991
863.768	22128
863.9	21991
864.032	21991
864.164	22006
864.296	21998
864.428	22169
864.559	22196
864.691	21991
864.823	22029
864.954	22112
865.086	22082
865.217	22055
865.349	22006
865.48	21956
865.612	21926
865.743	22010
865.875	21998
866.006	21895
866.137	21972
866.269	21884
866.4	21960
866.531	21869
866.662	21911
866.793	21812
866.924	21941
867.055	21876
867.186	21800
867.317	21876
867.448	21770
867.579	21865
867.71	21751
867.841	21720
867.972	21937
868.103	21842
868.233	21918
868.364	21854
868.495	22040
868.625	22124
868.756	22242
868.886	21892
869.017	22029
869.147	22242
869.278	22329
869.408	22143
869.539	22105
869.669	22139
869.799	22128
869.929	22200
870.06	22226
870.19	22500
870.32	22417
870.45	22390
870.58	22493
870.71	22622
870.84	22675
870.97	22451
871.1	22584
871.23	22721
871.36	22713
871.489	22630
871.619	22679
871.749	22630
871.879	22763
872.008	22759
872.138	22717
872.267	22702
872.397	22485
872.526	22622
872.656	22565
872.785	22485
872.915	22786
873.044	22717
873.173	22835
873.303	22831
873.432	22873
873.561	22683
873.69	22748
873.819	22858
873.948	22790
874.077	22755
874.206	22637
874.335	22698
874.464	22877
874.593	23071
874.722	23067
874.851	23037
874.979	23124
875.108	23025
875.237	22850
875.365	22908
875.494	22889
875.623	23033
875.751	23037
875.88	22896
876.008	23117
876.136	23311
876.265	23410
876.393	23455
876.521	23459
876.65	23376
876.778	23261
876.906	23353
877.034	23322
877.162	23155
877.29	23235
877.418	23292
877.546	23341
877.674	23315
877.802	23280
877.93	23193
878.058	23166
878.185	23159
878.313	23189
878.441	23242
878.568	23056
878.696	23220
878.824	23296
878.951	23425
879.079	23516
879.206	23615
879.333	23402
879.461	23220
879.588	23379
879.715	23452
879.842	23558
879.97	23258
880.097	22984
880.224	23079
880.351	23079
880.478	23064
880.605	23048
880.732	23037
880.859	23318
880.986	22911
881.112	23178
881.239	23014
881.366	22904
881.493	22938
881.619	22740
881.746	22733
881.872	22607
881.999	22622
882.125	22683
882.252	22702
882.378	22577
882.505	22679
882.631	22523
882.757	22470
882.883	22432
883.01	22367
883.136	22310
883.262	22348
883.388	22219
883.514	22360
883.64	22421
883.766	22268
883.892	22109
884.018	22124
884.143	22257
884.269	22341
884.395	22048
884.52	21903
884.646	21926
884.772	21949
884.897	21823
885.023	22029
885.148	22177
885.274	22181
885.399	22082
885.524	21998
885.65	22032
885.775	21918
885.9	22002
886.025	22070
886.15	22032
886.275	22051
886.4	21869
886.525	21831
886.65	22036
886.775	22112
886.9	22032
887.025	22143
887.149	21861
887.274	21808
887.399	21770
887.523	21732
887.648	21732
887.773	21629
887.897	21762
888.021	21751
888.146	21713
888.27	21770
888.395	21736
888.519	21701
888.643	21838
888.767	21743
888.891	21580
889.015	21534
889.139	21690
889.263	21485
889.387	21606
889.511	21717
889.635	21819
889.759	21561
889.883	21614
890.006	21519
890.13	21530
890.254	21367
890.377	21367
890.501	21268
890.624	21264
890.748	21332
890.871	21108
890.995	21039
891.118	21085
891.241	21089
891.364	21157
891.488	21214
891.611	21100
891.734	21089
891.857	21135
891.98	21138
892.103	21112
892.226	21104
892.349	20982
892.471	20826
892.594	20967
892.717	20990
892.839	20975
892.962	20975
893.085	20986
893.207	20941
893.33	20864
893.452	20792
893.575	21020
893.697	20815
893.819	21108
893.941	21146
894.064	21131
894.186	20899
894.308	20872
894.43	21020
894.552	21028
894.674	21127
894.796	20746
894.918	20845
895.04	20933
895.161	20994
895.283	21017
895.405	20975
895.526	20971
895.648	20834
895.769	20880
895.891	20986
896.012	21070
896.134	21081
896.255	20941
896.376	20975
896.498	20910
896.619	21108
896.74	20910
896.861	20944
896.982	21222
897.103	21481
897.224	21131
897.345	21230
897.466	21066
897.587	21176
897.708	21264
897.828	21275
897.949	21245
898.07	21017
898.19	21055
898.311	21211
898.431	21024
898.552	21180
898.672	21188
898.792	21165
898.913	21116
899.033	21051
899.153	20868
899.273	20861
899.393	20864
899.513	20895
899.633	20754
899.753	20918
899.873	20815
899.993	21020
900.113	20823
900.232	20883
900.352	20739
900.472	20750
900.591	20697
900.711	20617
900.83	20575
900.95	20750
901.069	20785
901.189	20549
901.308	20298
901.427	20347
901.546	20286
901.665	20301
901.784	20233
901.904	20024
902.023	20008
902.141	19822
902.26	19723
902.379	19795
902.498	19693
902.617	19696
902.735	19734
902.854	19594
902.973	19681
903.091	19388
903.21	19419
903.328	19472
903.446	19240
903.565	19217
903.683	19065
903.801	19034
903.919	19145
904.038	19114
904.156	18981
904.274	18981
904.392	19065
904.51	18901
904.627	18977
904.745	18966
904.863	19019
904.981	18749
905.098	18730
905.216	18711
905.334	18669
905.451	18658
905.569	18494
905.686	18623
905.803	18578
905.921	18395
906.038	18521
906.155	18441
906.272	18273
906.389	18190
906.506	18174
906.623	18201
906.74	18114
906.857	17992
906.974	18045
907.091	18125
907.208	18228
907.324	18159
907.441	18087
907.557	17855
907.674	17745
907.79	17843
907.907	17760
908.023	17889
908.139	17783
908.256	17863
908.372	17748
908.488	17741
908.604	17589
908.72	17589
908.836	17524
908.952	17558
909.068	17623
909.184	17611
909.3	17600
909.415	17577
909.531	17467
909.647	17360
909.762	17273
909.878	17288
909.993	17341
910.108	17124
910.224	17250
910.339	17124
910.454	17143
910.57	17090
910.685	16976
910.8	17212
910.915	17269
911.03	16991
911.145	16873
911.259	16881
911.374	16805
911.489	16809
911.604	16672
911.718	16523
911.833	16519
911.947	16527
912.062	16500
912.176	16569
912.291	16618
912.405	16546
912.519	16763
912.633	16759
912.748	16573
912.862	16481
912.976	16363
913.09	16394
913.204	16329
913.318	16322
913.431	16519
913.545	16500
913.659	16523
913.772	16306
913.886	16219
914	16025
914.113	16242
914.226	16272
914.34	16234
914.453	16048
914.566	16185
914.68	16029
914.793	16006
914.906	15873
915.019	15797
915.132	15663
915.245	15671
915.358	15751
915.47	15679
915.583	15835
915.696	15785
915.809	15835
915.921	15922
916.034	15648
916.146	15778
916.259	15641
916.371	15705
916.483	15667
916.595	15622
916.708	15629
916.82	15526
916.932	15603
917.044	15420
917.156	15454
917.268	15511
917.38	15397
917.491	15405
917.603	15367
917.715	15397
917.826	15462
917.938	15363
918.049	15283
918.161	15310
918.272	15439
918.384	15466
918.495	15237
918.606	15142
918.717	15058
918.828	15138
918.939	15138
919.05	14975
919.161	15108
919.272	14925
919.383	14895
919.494	15119
919.604	15283
919.715	15051
919.826	15089
919.936	15043
920.047	15146
920.157	15184
920.267	15252
920.378	15138
920.488	15070
920.598	15169
920.708	15405
920.818	15157
920.928	15283
921.038	15370
921.148	15279
921.258	15077
921.368	14868
921.477	14785
921.587	14769
921.697	14674
921.806	14804
921.916	14693
922.025	14537
922.134	14503
922.244	14454
922.353	14465
922.462	14294
922.571	14351
922.68	14176
922.789	14027
922.898	14183
923.007	14050
923.116	14149
923.224	14084
923.333	13986
923.442	13951
923.55	13925
923.659	13974
923.767	13913
923.876	13993
923.984	13875
924.092	13830
924.201	13788
924.309	13803
924.417	13928
924.525	13685
924.633	13658
924.741	14613
924.849	13575
924.956	13636
925.064	13544
925.172	13403
925.279	13518
925.387	13476
925.494	13426
925.602	13548
925.709	13548
925.816	13403
925.924	13411
926.031	13552
926.138	13396
926.245	13464
926.352	13297
926.459	13457
926.566	13506
926.673	13384
926.779	13213
926.886	13187
926.993	13076
927.099	13118
927.206	13004
927.312	12897
927.419	13110
927.525	13031
927.631	12977
927.737	12871
927.843	12817
927.95	12719
928.056	12817
928.162	12829
928.267	12859
928.373	13434
928.479	12909
928.585	12665
928.69	12776
928.796	12829
928.901	12711
929.007	12608
929.112	12703
929.218	12749
929.323	12559
929.428	12494
929.533	12631
929.638	12456
929.743	12414
929.848	12502
929.953	12445
930.058	12464
930.163	12232
930.267	12273
930.372	12407
930.477	12159
930.581	12418
930.685	12266
930.79	12076
930.894	12121
930.998	12133
931.103	12186
931.207	11847
931.311	11745
931.415	11695
931.519	11429
931.623	11501
