Data from test_V78500241_792.txt Node
Date: Fri Mar 25 15:47:17 CST 2022
User: usil
Spectrometer: V785-0024
Trigger mode: 0
Integration Time (sec): 4.000000E-1
Scans to average: 1
Nonlinearity correction enabled: false
Boxcar width: 0
Storing dark spectrum: false
XAxis mode: Wavelengths
Number of Pixels in Spectrum: 1024
>>>>>Begin Spectral Data<<<<<
801.071	27587
801.214	27408
801.356	27020
801.499	27085
801.641	26910
801.783	27043
801.926	27032
802.068	26971
802.211	26937
802.353	26906
802.496	26682
802.638	26556
802.78	26682
802.923	26492
803.065	26549
803.208	26629
803.35	26537
803.492	26682
803.635	26686
803.777	26724
803.919	26868
804.061	27062
804.204	26823
804.346	26701
804.488	26735
804.63	26777
804.773	26777
804.915	26697
805.057	26918
805.199	26887
805.341	26937
805.483	26845
805.626	26807
805.768	26785
805.91	26868
806.052	26826
806.194	26849
806.336	27085
806.478	26868
806.62	26857
806.762	27005
806.904	27188
807.046	27416
807.188	27264
807.33	27332
807.472	27389
807.614	27291
807.756	27298
807.898	27180
808.04	27085
808.182	27150
808.324	27176
808.465	27138
808.607	27199
808.749	27610
808.891	27599
809.033	27751
809.174	27656
809.316	27443
809.458	27519
809.6	27416
809.741	27637
809.883	27629
810.025	27755
810.166	27652
810.308	27770
810.45	27880
810.591	27690
810.733	27439
810.875	27389
811.016	27447
811.158	27530
811.299	27466
811.441	27709
811.582	27698
811.724	27542
811.865	27511
812.007	27671
812.148	27538
812.29	27595
812.431	27709
812.573	27857
812.714	27979
812.855	28013
812.997	28177
813.138	28158
813.279	28185
813.421	28040
813.562	28006
813.703	27808
813.845	27797
813.986	27443
814.127	27272
814.268	27287
814.41	27146
814.551	27142
814.692	27252
814.833	27184
814.974	27199
815.115	27108
815.256	27055
815.397	27058
815.539	27138
815.68	26963
815.821	26887
815.962	26899
816.103	26921
816.244	26762
816.385	26640
816.526	26659
816.666	26609
816.807	26389
816.948	26473
817.089	26564
817.23	26564
817.371	26549
817.512	26514
817.653	26492
817.793	26469
817.934	26355
818.075	26484
818.216	26465
818.356	26404
818.497	26309
818.638	26218
818.778	26153
818.919	26282
819.06	26320
819.2	26301
819.341	26438
819.481	26370
819.622	26507
819.762	27001
819.903	26750
820.043	26739
820.184	26495
820.324	26530
820.465	26686
820.605	26617
820.746	26533
820.886	26545
821.026	26583
821.167	26499
821.307	26617
821.447	26404
821.588	26396
821.728	26119
821.868	26138
822.008	25947
822.149	26035
822.289	25932
822.429	25738
822.569	25742
822.709	25594
822.849	25464
822.99	25445
823.13	25449
823.27	25324
823.41	25213
823.55	25099
823.69	25354
823.83	25255
823.97	25190
824.11	25084
824.25	25190
824.389	25126
824.529	25122
824.669	25034
824.809	25221
824.949	25202
825.089	25232
825.228	25084
825.368	24992
825.508	24852
825.648	24905
825.787	24943
825.927	24886
826.067	24958
826.206	24958
826.346	24962
826.485	25038
826.625	24951
826.765	25095
826.904	24859
827.044	24741
827.183	24650
827.323	24570
827.462	24601
827.601	24734
827.741	24719
827.88	24646
828.02	24517
828.159	24658
828.298	24521
828.437	24715
828.577	24589
828.716	24741
828.855	24623
828.994	24384
829.134	24376
829.273	24372
829.412	24334
829.551	24159
829.69	24270
829.829	24399
829.968	24467
830.107	24422
830.246	24311
830.385	24289
830.524	24281
830.663	24213
830.802	23992
830.941	23897
831.08	23916
831.219	23935
831.357	24053
831.496	24163
831.635	23946
831.774	23859
831.913	23874
832.051	23824
832.19	23836
832.329	23775
832.467	23630
832.606	23528
832.744	23627
832.883	23661
833.022	23665
833.16	23638
833.299	23733
833.437	23699
833.576	23733
833.714	23646
833.852	23764
833.991	23828
834.129	23665
834.267	23745
834.406	23642
834.544	23779
834.682	23661
834.821	23627
834.959	23824
835.097	23611
835.235	23646
835.373	23642
835.511	23577
835.65	23627
835.788	23558
835.926	23539
836.064	23360
836.202	23292
836.34	23547
836.478	23585
836.615	23520
836.753	23551
836.891	23638
837.029	23634
837.167	23440
837.305	23440
837.443	23341
837.58	23254
837.718	23318
837.856	23383
837.993	23364
838.131	23410
838.269	23231
838.406	23239
838.544	23242
838.681	23044
838.819	22953
838.956	22869
839.094	22885
839.231	22752
839.369	22984
839.506	23204
839.643	23022
839.781	22801
839.918	22641
840.055	22812
840.193	22786
840.33	22748
840.467	22797
840.604	22763
840.742	23109
840.879	22596
841.016	22694
841.153	22653
841.29	22759
841.427	22740
841.564	22809
841.701	22698
841.838	22656
841.975	22557
842.112	22698
842.249	22546
842.385	22512
842.522	22744
842.659	22656
842.796	22546
842.933	22637
843.069	22451
843.206	22356
843.343	22557
843.479	22516
843.616	22424
843.752	22268
843.889	22322
844.025	22276
844.162	22211
844.298	22333
844.435	22234
844.571	22150
844.708	22352
844.844	22428
844.98	22398
845.117	22333
845.253	22421
845.389	22154
845.525	22226
845.661	22124
845.798	21922
845.934	22067
846.07	22006
846.206	22025
846.342	22101
846.478	22021
846.614	21869
846.75	21652
846.886	21705
847.022	21736
847.158	21808
847.294	21766
847.429	21762
847.565	21614
847.701	22101
847.837	21500
847.972	21553
848.108	21671
848.244	21485
848.379	21504
848.515	21298
848.65	21268
848.786	21317
848.921	21401
849.057	21496
849.192	21526
849.328	21363
849.463	21416
849.598	21344
849.734	21294
849.869	21108
850.004	21116
850.14	21199
850.275	21055
850.41	21119
850.545	21055
850.68	21119
850.815	21058
850.95	21192
851.085	21272
851.22	21226
851.355	21070
851.49	21043
851.625	21119
851.76	21032
851.895	21066
852.03	21036
852.165	21119
852.299	21131
852.434	21199
852.569	21268
852.703	21043
852.838	21157
852.973	21313
853.107	21222
853.242	21131
853.376	21013
853.511	20895
853.645	20845
853.78	20967
853.914	20944
854.048	20910
854.183	20807
854.317	21028
854.451	21096
854.585	20891
854.72	20853
854.854	21036
854.988	20899
855.122	20918
855.256	20754
855.39	20906
855.524	21100
855.658	20986
855.792	21051
855.926	20883
856.06	21055
856.194	21058
856.327	20971
856.461	20864
856.595	20834
856.729	20906
856.862	21081
856.996	20948
857.13	21074
857.263	21100
857.397	21028
857.53	21146
857.664	20971
857.797	20944
857.931	21036
858.064	21005
858.197	21142
858.331	20990
858.464	20823
858.597	20861
858.731	20937
858.864	20941
858.997	20830
859.13	20975
859.263	20986
859.396	21009
859.529	21005
859.662	20834
859.795	20853
859.928	20929
860.061	21070
860.194	21222
860.327	21100
860.46	21039
860.592	21119
860.725	21116
860.858	21188
860.99	20944
861.123	20899
861.256	20883
861.388	20918
861.521	21401
861.653	20925
861.786	20682
861.918	20689
862.05	20792
862.183	20975
862.315	20963
862.447	21127
862.58	20819
862.712	20640
862.844	20625
862.976	20720
863.108	20708
863.24	21192
863.372	20659
863.504	20689
863.636	20674
863.768	20613
863.9	20746
864.032	20522
864.164	20552
864.296	20864
864.428	20750
864.559	20651
864.691	20769
864.823	20693
864.954	20636
865.086	20655
865.217	20648
865.349	20530
865.48	20648
865.612	20609
865.743	20689
865.875	20625
866.006	20625
866.137	20617
866.269	20503
866.4	20568
866.531	20518
866.662	20503
866.793	20499
866.924	20530
867.055	20431
867.186	20499
867.317	20412
867.448	20450
867.579	20465
867.71	20309
867.841	20427
867.972	20629
868.103	20594
868.233	20629
868.364	20396
868.495	20705
868.625	20785
868.756	20735
868.886	20655
869.017	20731
869.147	20849
869.278	20990
869.408	20678
869.539	20708
869.669	20929
869.799	20834
869.929	20849
870.06	20853
870.19	21051
870.32	20956
870.45	21119
870.58	21214
870.71	21222
870.84	21283
870.97	21081
871.1	21131
871.23	21313
871.36	21443
871.489	21275
871.619	21291
871.749	21340
871.879	21378
872.008	21386
872.138	21256
872.267	21374
872.397	21230
872.526	21195
872.656	21188
872.785	21188
872.915	21233
873.044	21519
873.173	21492
873.303	21500
873.432	21443
873.561	21466
873.69	21397
873.819	21306
873.948	21469
874.077	21382
874.206	21344
874.335	21374
874.464	21439
874.593	21591
874.722	21580
874.851	21633
874.979	21709
875.108	21656
875.237	21561
875.365	21469
875.494	21542
875.623	21637
875.751	21576
875.88	21663
876.008	21755
876.136	21804
876.265	22025
876.393	22112
876.521	21987
876.65	22036
876.778	22078
876.906	21918
877.034	21808
877.162	21892
877.29	21869
877.418	21983
877.546	21972
877.674	22036
877.802	22070
877.93	21903
878.058	21922
878.185	21819
878.313	21956
878.441	21838
878.568	21808
878.696	21953
878.824	22040
878.951	22101
879.079	22223
879.206	22139
879.333	22131
879.461	21964
879.588	22082
879.715	22029
879.842	22253
879.97	22051
880.097	21747
880.224	21755
880.351	21774
880.478	21812
880.605	21755
880.732	21736
880.859	21979
880.986	21800
881.112	21873
881.239	21606
881.366	21355
881.493	21393
881.619	21393
881.746	21389
881.872	21321
881.999	21241
882.125	21230
882.252	21332
882.378	21344
882.505	21389
882.631	21157
882.757	21112
882.883	21161
883.01	21005
883.136	21058
883.262	20830
883.388	20815
883.514	21036
883.64	21112
883.766	21005
883.892	20864
884.018	20807
884.143	20929
884.269	21066
884.395	20834
884.52	20632
884.646	20648
884.772	20682
884.897	20598
885.023	20720
885.148	20819
885.274	20861
885.399	20785
885.524	20659
885.65	20720
885.775	20686
885.9	20712
886.025	20811
886.15	20777
886.275	20689
886.4	20552
886.525	20651
886.65	20705
886.775	20598
886.9	20716
887.025	20937
887.149	20716
887.274	20587
887.399	20518
887.523	20294
887.648	20393
887.773	20374
887.897	20537
888.021	20518
888.146	20431
888.27	20476
888.395	20629
888.519	20484
888.643	20507
888.767	20545
888.891	20328
889.015	20343
889.139	20358
889.263	20149
889.387	20404
889.511	20514
889.635	20438
889.759	20252
889.883	20130
890.006	20328
890.13	20339
890.254	20107
890.377	20092
890.501	19997
890.624	20001
890.748	20088
890.871	19898
890.995	19761
891.118	19799
891.241	19887
891.364	19860
891.488	19906
891.611	19879
891.734	19818
891.857	19913
891.98	19909
892.103	19959
892.226	19864
892.349	19833
892.471	19647
892.594	19738
892.717	19795
892.839	19658
892.962	19799
893.085	19875
893.207	19704
893.33	19757
893.452	19757
893.575	19849
893.697	19700
893.819	19925
893.941	20001
894.064	19791
894.186	19746
894.308	19727
894.43	19734
894.552	19970
894.674	19811
894.796	19639
894.918	19742
895.04	19681
895.161	19727
895.283	19807
895.405	19826
895.526	19746
895.648	19712
895.769	19723
895.891	19879
896.012	19818
896.134	19780
896.255	19856
896.376	19799
896.498	19704
896.619	19822
896.74	19750
896.861	19864
896.982	20195
897.103	20267
897.224	20096
897.345	19959
897.466	19887
897.587	19974
897.708	20096
897.828	20157
897.949	19955
898.07	19898
898.19	19989
898.311	20084
898.431	19955
898.552	19947
898.672	20107
898.792	20122
898.913	20103
899.033	19921
899.153	19845
899.273	19696
899.393	19780
899.513	19670
899.633	19799
899.753	19799
899.873	19715
899.993	19765
900.113	19727
900.232	19662
900.352	19670
900.472	19533
900.591	19480
900.711	19643
900.83	19491
900.95	19647
901.069	19635
901.189	19521
901.308	19316
901.427	19129
901.546	19137
901.665	19156
901.784	19141
901.904	19103
902.023	18890
902.141	18749
902.26	18608
902.379	18776
902.498	18627
902.617	18608
902.735	18639
902.854	18696
902.973	18612
903.091	18369
903.21	18330
903.328	18285
903.446	18346
903.565	18079
903.683	18060
903.801	18041
903.919	18163
904.038	18038
904.156	17866
904.274	17897
904.392	17889
904.51	17767
904.627	17805
904.745	17988
904.863	17965
904.981	17665
905.098	17558
905.216	17520
905.334	17718
905.451	17619
905.569	17547
905.686	17467
905.803	17604
905.921	17326
906.038	17421
906.155	17421
906.272	17448
906.389	17280
906.506	17075
906.623	17170
906.74	17143
906.857	17037
906.974	17041
907.091	17128
907.208	17250
907.324	17048
907.441	17025
907.557	16854
907.674	16801
907.79	16824
907.907	16866
908.023	16854
908.139	16801
908.256	16759
908.372	16736
908.488	16679
908.604	16523
908.72	16485
908.836	16550
908.952	16459
909.068	16538
909.184	16607
909.3	16538
909.415	16622
909.531	16554
909.647	16295
909.762	16390
909.878	16253
909.993	16147
910.108	16322
910.224	16124
910.339	16276
910.454	16116
910.57	16139
910.685	15915
910.8	16291
910.915	16276
911.03	15994
911.145	15903
911.259	15861
911.374	15831
911.489	15804
911.604	15705
911.718	15587
911.833	15549
911.947	15644
912.062	15492
912.176	15675
912.291	15572
912.405	15663
912.519	15755
912.633	15732
912.748	15587
912.862	15534
912.976	15492
913.09	15310
913.204	15393
913.318	15492
913.431	15584
913.545	15603
913.659	15454
913.772	15420
913.886	15287
914	15252
914.113	15302
914.226	15351
914.34	15169
914.453	15074
914.566	15249
914.68	15127
914.793	15074
914.906	14963
915.019	14826
915.132	14807
915.245	14849
915.358	14838
915.47	14880
915.583	14842
915.696	14773
915.809	14929
915.921	14990
916.034	14845
916.146	14811
916.259	14674
916.371	14853
916.483	14800
916.595	14667
916.708	14606
916.82	14590
916.932	14606
917.044	14537
917.156	14602
917.268	14431
917.38	14465
917.491	14560
917.603	14568
917.715	14571
917.826	14571
917.938	14393
918.049	14286
918.161	14469
918.272	14598
918.384	14560
918.495	14503
918.606	14343
918.717	14267
918.828	14275
918.939	14336
919.05	14176
919.161	14195
919.272	14024
919.383	14081
919.494	14351
919.604	14434
919.715	14290
919.826	14142
919.936	14229
920.047	14298
920.157	14244
920.267	14370
920.378	14309
920.488	14172
920.598	14347
920.708	14583
920.818	14332
920.928	14374
921.038	14480
921.148	14415
921.258	14183
921.368	14088
921.477	14008
921.587	14012
921.697	13803
921.806	14043
921.916	13856
922.025	13734
922.134	13586
922.244	13533
922.353	13689
922.462	13487
922.571	13476
922.68	13327
922.789	13285
922.898	13225
923.007	13225
923.116	13304
923.224	13251
923.333	13160
923.442	13232
923.55	13149
923.659	13133
923.767	13103
923.876	13031
923.984	13129
924.092	13015
924.201	13103
924.309	13050
924.417	13034
924.525	12878
924.633	12958
924.741	13875
924.849	12783
924.956	12985
925.064	12760
925.172	12631
925.279	12627
925.387	12715
925.494	12840
925.602	12852
925.709	12757
925.816	12517
925.924	12719
926.031	12745
926.138	12631
926.245	12722
926.352	12532
926.459	12650
926.566	12696
926.673	12544
926.779	12391
926.886	12475
926.993	12361
927.099	12308
927.206	12304
927.312	12281
927.419	12281
927.525	12304
927.631	12258
927.737	12171
927.843	12201
927.95	11977
928.056	12133
928.162	12163
928.267	12175
928.373	12764
928.479	12171
928.585	11958
928.69	12129
928.796	12098
928.901	11984
929.007	11832
929.112	11977
929.218	11904
929.323	11821
929.428	11855
929.533	11958
929.638	11680
929.743	11775
929.848	11885
929.953	11798
930.058	11653
930.163	11604
930.267	11547
930.372	11592
930.477	11421
930.581	11718
930.685	11509
930.79	11474
930.894	11474
930.998	11364
931.103	11463
931.207	11181
931.311	11140
931.415	11064
931.519	10904
931.623	10778
