Data from test_V78500241_3317.txt Node
Date: Fri Mar 25 16:04:46 CST 2022
User: usil
Spectrometer: V785-0024
Trigger mode: 0
Integration Time (sec): 4.000000E-1
Scans to average: 1
Nonlinearity correction enabled: false
Boxcar width: 0
Storing dark spectrum: false
XAxis mode: Wavelengths
Number of Pixels in Spectrum: 1024
>>>>>Begin Spectral Data<<<<<
801.071	28744
801.214	28805
801.356	28599
801.499	28428
801.641	28371
801.783	28386
801.926	28466
802.068	28451
802.211	28485
802.353	28268
802.496	28055
802.638	28097
802.78	27945
802.923	28013
803.065	28017
803.208	28010
803.35	28074
803.492	28276
803.635	28322
803.777	28074
803.919	28325
804.061	28500
804.204	28470
804.346	28196
804.488	28291
804.63	28363
804.773	28246
804.915	28493
805.057	28485
805.199	28215
805.341	28390
805.483	28577
805.626	28459
805.768	28352
805.91	28542
806.052	28569
806.194	28474
806.336	28786
806.478	28447
806.62	28440
806.762	28573
806.904	28763
807.046	29041
807.188	28930
807.33	28938
807.472	28908
807.614	28729
807.756	28915
807.898	28774
808.04	28626
808.182	28748
808.324	28675
808.465	28908
808.607	29132
808.749	29166
808.891	29379
809.033	29250
809.174	29189
809.316	29124
809.458	29200
809.6	29181
809.741	29200
809.883	29375
810.025	29421
810.166	29391
810.308	29326
810.45	29212
810.591	29208
810.733	29315
810.875	29147
811.016	29124
811.158	29083
811.299	29334
811.441	29322
811.582	29322
811.724	29174
811.865	29280
812.007	29231
812.148	29151
812.29	29341
812.431	29433
812.573	29551
812.714	29539
812.855	29714
812.997	29828
813.138	29912
813.279	29901
813.421	29790
813.562	29627
813.703	29585
813.845	29414
813.986	29166
814.127	28953
814.268	28908
814.41	28877
814.551	28934
814.692	28949
814.833	28850
814.974	28771
815.115	28873
815.256	28786
815.397	28733
815.539	28774
815.68	28603
815.821	28626
815.962	28793
816.103	28805
816.244	28554
816.385	28481
816.526	28424
816.666	28268
816.807	28234
816.948	28306
817.089	28314
817.23	28249
817.371	28234
817.512	28200
817.653	28139
817.793	28219
817.934	28109
818.075	28314
818.216	28242
818.356	28257
818.497	28101
818.638	27819
818.778	28112
818.919	27907
819.06	27953
819.2	27975
819.341	28276
819.481	28265
819.622	28299
819.762	28508
819.903	28421
820.043	28459
820.184	28375
820.324	28398
820.465	28440
820.605	28261
820.746	28211
820.886	28303
821.026	28200
821.167	28238
821.307	28341
821.447	28322
821.588	28101
821.728	28204
821.868	27869
822.008	27808
822.149	27732
822.289	27789
822.429	27439
822.569	27424
822.709	27348
822.849	27131
822.99	27222
823.13	27165
823.27	27211
823.41	26994
823.55	26849
823.69	27131
823.83	27058
823.97	26986
824.11	26868
824.25	26819
824.389	26940
824.529	27001
824.669	26845
824.809	26975
824.949	27013
825.089	26910
825.228	26918
825.368	26670
825.508	26693
825.648	26670
825.787	26826
825.927	26781
826.067	26804
826.206	26758
826.346	26952
826.485	26842
826.625	26815
826.765	26868
826.904	26834
827.044	26530
827.183	26613
827.323	26473
827.462	26606
827.601	26530
827.741	26408
827.88	26385
828.02	26541
828.159	26381
828.298	26442
828.437	26629
828.577	26358
828.716	26457
828.855	26309
828.994	26122
829.134	26244
829.273	26244
829.412	26237
829.551	26172
829.69	26088
829.829	26313
829.968	26214
830.107	26317
830.246	26195
830.385	26100
830.524	26043
830.663	25951
830.802	25909
830.941	25769
831.08	25609
831.219	25780
831.357	25788
831.496	25963
831.635	25811
831.774	25533
831.913	25677
832.051	25521
832.19	25590
832.329	25632
832.467	25449
832.606	25441
832.744	25335
832.883	25369
833.022	25377
833.16	25304
833.299	25518
833.437	25533
833.576	25567
833.714	25441
833.852	25582
833.991	25575
834.129	25666
834.267	25502
834.406	25438
834.544	25472
834.682	25552
834.821	25495
834.959	25616
835.097	25411
835.235	25578
835.373	25510
835.511	25476
835.65	25327
835.788	25422
835.926	25107
836.064	25118
836.202	25232
836.34	25358
836.478	25426
836.615	25373
836.753	25308
836.891	25529
837.029	25278
837.167	25194
837.305	25255
837.443	25187
837.58	25251
837.718	25156
837.856	25266
837.993	25091
838.131	25171
838.269	24935
838.406	25057
838.544	24943
838.681	24757
838.819	24730
838.956	24665
839.094	24582
839.231	24661
839.369	24760
839.506	24985
839.643	24947
839.781	24688
839.918	24540
840.055	24616
840.193	24589
840.33	24525
840.467	24677
840.604	24532
840.742	24856
840.879	24509
841.016	24403
841.153	24494
841.29	24582
841.427	24475
841.564	24650
841.701	24365
841.838	24338
841.975	24407
842.112	24601
842.249	24418
842.385	24365
842.522	24467
842.659	24296
842.796	24376
842.933	24479
843.069	24228
843.206	24292
843.343	24334
843.479	24277
843.616	24186
843.752	24091
843.889	23992
844.025	24167
844.162	24110
844.298	24190
844.435	24136
844.571	23988
844.708	24057
844.844	24266
844.98	24220
845.117	24133
845.253	23988
845.389	24003
845.525	24098
845.661	23897
845.798	23832
845.934	23897
846.07	23733
846.206	23840
846.342	23931
846.478	23707
846.614	23520
846.75	23452
846.886	23573
847.022	23646
847.158	23512
847.294	23592
847.429	23547
847.565	23493
847.701	23661
847.837	23220
847.972	23261
848.108	23223
848.244	23387
848.379	23105
848.515	23071
848.65	23033
848.786	23200
848.921	23185
849.057	23284
849.192	23220
849.328	23242
849.463	23124
849.598	23075
849.734	23067
849.869	22980
850.004	22946
850.14	22927
850.275	22957
850.41	22793
850.545	22793
850.68	22934
850.815	22816
850.95	22866
851.085	23060
851.22	22938
851.355	22873
851.49	22847
851.625	22843
851.76	22896
851.895	22801
852.03	22885
852.165	22881
852.299	22889
852.434	22881
852.569	23006
852.703	22850
852.838	22904
852.973	22854
853.107	23014
853.242	22862
853.376	22744
853.511	22596
853.645	22679
853.78	22729
853.914	22645
854.048	22706
854.183	22710
854.317	22710
854.451	22797
854.585	22645
854.72	22656
854.854	22763
854.988	22497
855.122	22653
855.256	22535
855.39	22721
855.524	22835
855.658	22786
855.792	22717
855.926	22656
856.06	22740
856.194	22824
856.327	22649
856.461	22637
856.595	22603
856.729	22694
856.862	22835
856.996	22740
857.13	22713
857.263	22820
857.397	22672
857.53	22588
857.664	22854
857.797	22691
857.931	22816
858.064	22752
858.197	22839
858.331	22672
858.464	22634
858.597	22584
858.731	22611
858.864	22702
858.997	22618
859.13	22592
859.263	22653
859.396	22755
859.529	22622
859.662	22546
859.795	22618
859.928	22729
860.061	22934
860.194	22892
860.327	22767
860.46	22801
860.592	22801
860.725	22828
860.858	22729
860.99	22622
861.123	22653
861.256	22577
861.388	22683
861.521	23391
861.653	22546
861.786	22611
861.918	22592
862.05	22641
862.183	22683
862.315	22611
862.447	22603
862.58	22588
862.712	22360
862.844	22375
862.976	22531
863.108	22394
863.24	22923
863.372	22192
863.504	22390
863.636	22306
863.768	22478
863.9	22306
864.032	22470
864.164	22500
864.296	22382
864.428	22561
864.559	22493
864.691	22565
864.823	22398
864.954	22402
865.086	22287
865.217	22253
865.349	22284
865.48	22325
865.612	22280
865.743	22443
865.875	22249
866.006	22253
866.137	22265
866.269	22291
866.4	22280
866.531	22067
866.662	22166
866.793	22257
866.924	22158
867.055	22360
867.186	22150
867.317	22177
867.448	22185
867.579	22230
867.71	22097
867.841	22116
867.972	22200
868.103	22211
868.233	22291
868.364	22169
868.495	22219
868.625	22382
868.756	22641
868.886	22375
869.017	22341
869.147	22432
869.278	22428
869.408	22542
869.539	22485
869.669	22550
869.799	22565
869.929	22531
870.06	22569
870.19	22748
870.32	22755
870.45	22839
870.58	22877
870.71	22885
870.84	22953
870.97	22869
871.1	22862
871.23	22949
871.36	23075
871.489	22927
871.619	23067
871.749	23048
871.879	23102
872.008	23155
872.138	23022
872.267	23109
872.397	22908
872.526	22873
872.656	22862
872.785	22858
872.915	23174
873.044	23140
873.173	23143
873.303	23083
873.432	23136
873.561	23102
873.69	23121
873.819	23014
873.948	23231
874.077	23113
874.206	22976
874.335	23003
874.464	23143
874.593	23258
874.722	23204
874.851	23387
874.979	23318
875.108	23383
875.237	23303
875.365	23178
875.494	23174
875.623	23296
875.751	23200
875.88	23273
876.008	23448
876.136	23467
876.265	23691
876.393	23931
876.521	23771
876.65	23657
876.778	23657
876.906	23562
877.034	23463
877.162	23627
877.29	23661
877.418	23661
877.546	23661
877.674	23703
877.802	23585
877.93	23623
878.058	23452
878.185	23596
878.313	23596
878.441	23516
878.568	23520
878.696	23585
878.824	23520
878.951	23805
879.079	23726
879.206	23889
879.333	23783
879.461	23668
879.588	23733
879.715	23718
879.842	23897
879.97	23661
880.097	23429
880.224	23440
880.351	23478
880.478	23277
880.605	23307
880.732	23505
880.859	23722
880.986	23467
881.112	23410
881.239	23292
881.366	23037
881.493	23041
881.619	22999
881.746	22984
881.872	23018
881.999	23079
882.125	22995
882.252	22953
882.378	23006
882.505	23067
882.631	22820
882.757	22736
882.883	22790
883.01	22793
883.136	22710
883.262	22588
883.388	22371
883.514	22683
883.64	22573
883.766	22637
883.892	22440
884.018	22493
884.143	22672
884.269	22805
884.395	22291
884.52	22272
884.646	22424
884.772	22188
884.897	22204
885.023	22188
885.148	22363
885.274	22360
885.399	22360
885.524	22318
885.65	22299
885.775	22409
885.9	22181
886.025	22272
886.15	22356
886.275	22268
886.4	22196
886.525	22181
886.65	22276
886.775	22135
886.9	22367
887.025	22443
887.149	22211
887.274	21968
887.399	22021
887.523	22124
887.648	22090
887.773	21926
887.897	22059
888.021	22116
888.146	21991
888.27	22090
888.395	22211
888.519	22044
888.643	22044
888.767	21972
888.891	22059
889.015	21736
889.139	21937
889.263	21953
889.387	22059
889.511	21998
889.635	21915
889.759	21785
889.883	21759
890.006	21907
890.13	21876
890.254	21679
890.377	21838
890.501	21564
890.624	21663
890.748	21599
890.871	21401
890.995	21218
891.118	21283
891.241	21431
891.364	21485
891.488	21542
891.611	21279
891.734	21317
891.857	21405
891.98	21321
892.103	21511
892.226	21443
892.349	21329
892.471	21199
892.594	21195
892.717	21321
892.839	21268
892.962	21313
893.085	21416
893.207	21237
893.33	21176
893.452	21154
893.575	21157
893.697	21218
893.819	21325
893.941	21412
894.064	21359
894.186	21203
894.308	21112
894.43	21454
894.552	21458
894.674	21272
894.796	21188
894.918	21256
895.04	21180
895.161	21332
895.283	21283
895.405	21260
895.526	21222
895.648	21142
895.769	21241
895.891	21329
896.012	21313
896.134	21237
896.255	21325
896.376	21157
896.498	21165
896.619	21237
896.74	21370
896.861	21230
896.982	21614
897.103	21720
897.224	21439
897.345	21298
897.466	21317
897.587	21393
897.708	21633
897.828	21515
897.949	21355
898.07	21325
898.19	21374
898.311	21549
898.431	21363
898.552	21561
898.672	21473
898.792	21428
898.913	21405
899.033	21176
899.153	21348
899.273	21070
899.393	21188
899.513	21268
899.633	21085
899.753	21123
899.873	21218
899.993	21157
900.113	21081
900.232	21093
900.352	21024
900.472	20967
900.591	20807
900.711	20921
900.83	20823
900.95	21009
901.069	20933
901.189	20990
901.308	20720
901.427	20503
901.546	20423
901.665	20465
901.784	20598
901.904	20309
902.023	20263
902.141	20077
902.26	20050
902.379	20149
902.498	19982
902.617	20046
902.735	20043
902.854	20020
902.973	19791
903.091	19693
903.21	19715
903.328	19731
903.446	19609
903.565	19518
903.683	19472
903.801	19324
903.919	19381
904.038	19396
904.156	19285
904.274	19327
904.392	19263
904.51	19179
904.627	19107
904.745	19304
904.863	19160
904.981	19076
905.098	18875
905.216	18779
905.334	18981
905.451	18833
905.569	18798
905.686	18901
905.803	18882
905.921	18673
906.038	18719
906.155	18578
906.272	18650
906.389	18589
906.506	18384
906.623	18403
906.74	18357
906.857	18296
906.974	18270
907.091	18418
907.208	18426
907.324	18391
907.441	18296
907.557	18216
907.674	18133
907.79	17969
907.907	18106
908.023	18133
908.139	18254
908.256	18053
908.372	18019
908.488	17977
908.604	17798
908.72	17783
908.836	17847
908.952	17760
909.068	17893
909.184	17855
909.3	17885
909.415	17855
909.531	17809
909.647	17524
909.762	17501
909.878	17524
909.993	17505
910.108	17520
910.224	17471
910.339	17520
910.454	17436
910.57	17277
910.685	17261
910.8	17516
910.915	17497
911.03	17341
911.145	17246
911.259	17048
911.374	17159
911.489	16968
911.604	16908
911.718	16999
911.833	16889
911.947	16748
912.062	16713
912.176	16881
912.291	16919
912.405	16927
912.519	17029
912.633	17033
912.748	16862
912.862	16839
912.976	16660
913.09	16569
913.204	16611
913.318	16603
913.431	16767
913.545	16698
913.659	16793
913.772	16660
913.886	16542
914	16424
914.113	16645
914.226	16554
914.34	16424
914.453	16363
914.566	16474
914.68	16421
914.793	16272
914.906	16135
915.019	16051
915.132	16051
915.245	16017
915.358	15979
915.47	16059
915.583	16048
915.696	16105
915.809	16055
915.921	16128
916.034	15911
916.146	15945
916.259	15838
916.371	16044
916.483	15937
916.595	15854
916.708	15812
916.82	15857
916.932	15644
917.044	15804
917.156	15751
917.268	15606
917.38	15663
917.491	15618
917.603	15709
917.715	15629
917.826	15728
917.938	15553
918.049	15466
918.161	15648
918.272	15701
918.384	15644
918.495	15564
918.606	15405
918.717	15298
918.828	15412
918.939	15348
919.05	15294
919.161	15287
919.272	15260
919.383	15237
919.494	15382
919.604	15599
919.715	15363
919.826	15245
919.936	15382
920.047	15317
920.157	15389
920.267	15439
920.378	15424
920.488	15180
920.598	15393
920.708	15671
920.818	15622
920.928	15439
921.038	15633
921.148	15561
921.258	15272
921.368	15222
921.477	15043
921.587	15013
921.697	14933
921.806	15066
921.916	14910
922.025	14807
922.134	14674
922.244	14682
922.353	14678
922.462	14495
922.571	14454
922.68	14423
922.789	14294
922.898	14309
923.007	14221
923.116	14355
923.224	14313
923.333	14320
923.442	14172
923.55	14073
923.659	14119
923.767	14199
923.876	14149
923.984	14134
924.092	14084
924.201	14039
924.309	13993
924.417	13970
924.525	14062
924.633	13837
924.741	14872
924.849	13769
924.956	13822
925.064	13738
925.172	13620
925.279	13753
925.387	13761
925.494	13605
925.602	13814
925.709	13734
925.816	13567
925.924	13616
926.031	13666
926.138	13586
926.245	13704
926.352	13529
926.459	13639
926.566	13685
926.673	13506
926.779	13438
926.886	13434
926.993	13266
927.099	13194
927.206	13194
927.312	13088
927.419	13297
927.525	13217
927.631	13240
927.737	13042
927.843	13118
927.95	13000
928.056	12996
928.162	13076
928.267	13133
928.373	13765
928.479	13042
928.585	12856
928.69	13027
928.796	12973
928.901	12894
929.007	12760
929.112	12886
929.218	12859
929.323	12764
929.428	12688
929.533	12897
929.638	12662
929.743	12757
929.848	12764
929.953	12700
930.058	12578
930.163	12448
930.267	12502
930.372	12566
930.477	12300
930.581	12547
930.685	12410
930.79	12300
930.894	12327
930.998	12262
931.103	12410
931.207	12022
931.311	11916
931.415	11897
931.519	11703
931.623	11619
