Data from test_V78500241_950.txt Node
Date: Fri Mar 25 15:48:22 CST 2022
User: usil
Spectrometer: V785-0024
Trigger mode: 0
Integration Time (sec): 4.000000E-1
Scans to average: 1
Nonlinearity correction enabled: false
Boxcar width: 0
Storing dark spectrum: false
XAxis mode: Wavelengths
Number of Pixels in Spectrum: 1024
>>>>>Begin Spectral Data<<<<<
801.071	28447
801.214	28500
801.356	28352
801.499	28169
801.641	28124
801.783	28059
801.926	28101
802.068	28120
802.211	28006
802.353	27873
802.496	27831
802.638	27660
802.78	27545
802.923	27766
803.065	27675
803.208	27603
803.35	27713
803.492	27956
803.635	27953
803.777	27846
803.919	27968
804.061	28204
804.204	28029
804.346	28029
804.488	27892
804.63	27945
804.773	27907
804.915	28078
805.057	28109
805.199	27937
805.341	28074
805.483	28185
805.626	28162
805.768	27960
805.91	28166
806.052	28109
806.194	28029
806.336	28188
806.478	28074
806.62	28124
806.762	28242
806.904	28546
807.046	28717
807.188	28508
807.33	28660
807.472	28710
807.614	28462
807.756	28542
807.898	28516
808.04	28413
808.182	28356
808.324	28447
808.465	28447
808.607	28653
808.749	28927
808.891	28915
809.033	29121
809.174	28767
809.316	28687
809.458	28919
809.6	28771
809.741	29060
809.883	28850
810.025	29143
810.166	29189
810.308	29208
810.45	29071
810.591	29079
810.733	29018
810.875	28713
811.016	28717
811.158	28786
811.299	28934
811.441	29075
811.582	29025
811.724	28869
811.865	28881
812.007	28946
812.148	28908
812.29	28904
812.431	29022
812.573	29220
812.714	29417
812.855	29326
812.997	29455
813.138	29474
813.279	29471
813.421	29372
813.562	29402
813.703	29170
813.845	28927
813.986	28733
814.127	28782
814.268	28596
814.41	28630
814.551	28474
814.692	28508
814.833	28531
814.974	28542
815.115	28691
815.256	28470
815.397	28527
815.539	28360
815.68	28371
815.821	28375
815.962	28242
816.103	28421
816.244	28303
816.385	28265
816.526	28120
816.666	28059
816.807	27835
816.948	28097
817.089	27903
817.23	27979
817.371	27774
817.512	27781
817.653	27808
817.793	27713
817.934	27949
818.075	27926
818.216	27876
818.356	27816
818.497	27816
818.638	27698
818.778	27652
818.919	27606
819.06	27759
819.2	27800
819.341	27869
819.481	28002
819.622	27983
819.762	28067
819.903	28169
820.043	27975
820.184	28086
820.324	27983
820.465	28070
820.605	28074
820.746	28059
820.886	27930
821.026	27983
821.167	27926
821.307	27987
821.447	27934
821.588	27797
821.728	27713
821.868	27557
822.008	27401
822.149	27211
822.289	27355
822.429	27146
822.569	27100
822.709	27039
822.849	26975
822.99	26887
823.13	26765
823.27	26849
823.41	26765
823.55	26644
823.69	26705
823.83	26838
823.97	26674
824.11	26476
824.25	26625
824.389	26396
824.529	26575
824.669	26583
824.809	26712
824.949	26583
825.089	26632
825.228	26602
825.368	26465
825.508	26362
825.648	26473
825.787	26560
825.927	26431
826.067	26332
826.206	26488
826.346	26419
826.485	26530
826.625	26453
826.765	26606
826.904	26431
827.044	26195
827.183	26142
827.323	26111
827.462	26199
827.601	26111
827.741	26115
827.88	26195
828.02	25970
828.159	26081
828.298	26062
828.437	26305
828.577	26145
828.716	26275
828.855	25966
828.994	25830
829.134	25674
829.273	25818
829.412	25772
829.551	25845
829.69	25925
829.829	25902
829.968	25852
830.107	25974
830.246	25818
830.385	25723
830.524	25639
830.663	25609
830.802	25430
830.941	25392
831.08	25335
831.219	25487
831.357	25502
831.496	25582
831.635	25426
831.774	25316
831.913	25217
832.051	25114
832.19	25160
832.329	25217
832.467	25183
832.606	25004
832.744	25019
832.883	25103
833.022	25103
833.16	25015
833.299	25027
833.437	25152
833.576	25069
833.714	25183
833.852	25187
833.991	25194
834.129	25160
834.267	25285
834.406	25103
834.544	25129
834.682	25091
834.821	25183
834.959	25297
835.097	25152
835.235	25228
835.373	25118
835.511	25145
835.65	24905
835.788	25118
835.926	24863
836.064	24764
836.202	24764
836.34	25031
836.478	25000
836.615	24985
836.753	24951
836.891	25076
837.029	25118
837.167	24840
837.305	24894
837.443	24768
837.58	24745
837.718	24734
837.856	24821
837.993	24779
838.131	24738
838.269	24604
838.406	24715
838.544	24597
838.681	24505
838.819	24410
838.956	24262
839.094	24304
839.231	24418
839.369	24498
839.506	24642
839.643	24513
839.781	24304
839.918	24262
840.055	24110
840.193	24133
840.33	24273
840.467	24186
840.604	24334
840.742	24327
840.879	24068
841.016	24201
841.153	24121
841.29	24289
841.427	24190
841.564	24133
841.701	24277
841.838	24102
841.975	24163
842.112	24110
842.249	24106
842.385	24030
842.522	24129
842.659	23961
842.796	23969
842.933	23920
843.069	23969
843.206	23824
843.343	23969
843.479	23832
843.616	23893
843.752	23661
843.889	23653
844.025	23889
844.162	23665
844.298	23741
844.435	23684
844.571	23733
844.708	23718
844.844	23920
844.98	23824
845.117	23878
845.253	23718
845.389	23429
845.525	23676
845.661	23364
845.798	23471
845.934	23406
846.07	23318
846.206	23471
846.342	23528
846.478	23425
846.614	23277
846.75	23117
846.886	23159
847.022	23227
847.158	23311
847.294	23090
847.429	23166
847.565	22972
847.701	23376
847.837	22869
847.972	22835
848.108	23060
848.244	22911
848.379	22843
848.515	22854
848.65	22816
848.786	22820
848.921	22824
849.057	22691
849.192	22801
849.328	22782
849.463	22694
849.598	22729
849.734	22561
849.869	22634
850.004	22535
850.14	22577
850.275	22500
850.41	22440
850.545	22459
850.68	22485
850.815	22672
850.95	22550
851.085	22740
851.22	22557
851.355	22592
851.49	22409
851.625	22554
851.76	22447
851.895	22500
852.03	22440
852.165	22516
852.299	22485
852.434	22622
852.569	22668
852.703	22554
852.838	22489
852.973	22596
853.107	22603
853.242	22417
853.376	22295
853.511	22207
853.645	22360
853.78	22379
853.914	22306
854.048	22322
854.183	22360
854.317	22531
854.451	22512
854.585	22451
854.72	22284
854.854	22447
854.988	22257
855.122	22371
855.256	22230
855.39	22280
855.524	22375
855.658	22424
855.792	22352
855.926	22356
856.06	22386
856.194	22398
856.327	22150
856.461	22207
856.595	22219
856.729	22322
856.862	22474
856.996	22333
857.13	22615
857.263	22402
857.397	22554
857.53	22318
857.664	22462
857.797	22451
857.931	22451
858.064	22436
858.197	22409
858.331	22230
858.464	22318
858.597	22158
858.731	22424
858.864	22265
858.997	22147
859.13	22226
859.263	22325
859.396	22367
859.529	22303
859.662	22215
859.795	22204
859.928	22207
860.061	22413
860.194	22527
860.327	22390
860.46	22360
860.592	22413
860.725	22413
860.858	22508
860.99	22379
861.123	22200
861.256	22386
861.388	22363
861.521	23064
861.653	22238
861.786	22086
861.918	22162
862.05	22253
862.183	22219
862.315	22280
862.447	22253
862.58	22200
862.712	22070
862.844	21934
862.976	22143
863.108	22211
863.24	22398
863.372	21854
863.504	21991
863.636	22074
863.768	22097
863.9	22101
864.032	21953
864.164	22010
864.296	22025
864.428	22124
864.559	22128
864.691	22166
864.823	22025
864.954	21945
865.086	22032
865.217	21964
865.349	21838
865.48	21895
865.612	21854
865.743	22025
865.875	21884
866.006	21922
866.137	21880
866.269	21823
866.4	21972
866.531	21907
866.662	21789
866.793	21816
866.924	21743
867.055	21835
867.186	21835
867.317	21789
867.448	21812
867.579	21759
867.71	21694
867.841	21823
867.972	21968
868.103	21884
868.233	21892
868.364	21838
868.495	21857
868.625	22032
868.756	22093
868.886	21972
869.017	22074
869.147	22017
869.278	22162
869.408	22101
869.539	22036
869.669	22090
869.799	22120
869.929	22303
870.06	22226
870.19	22299
870.32	22402
870.45	22447
870.58	22474
870.71	22599
870.84	22500
870.97	22481
871.1	22512
871.23	22729
871.36	22554
871.489	22462
871.619	22752
871.749	22706
871.879	22675
872.008	22797
872.138	22618
872.267	22672
872.397	22538
872.526	22466
872.656	22573
872.785	22443
872.915	22725
873.044	22630
873.173	22771
873.303	22801
873.432	22797
873.561	22774
873.69	22649
873.819	22599
873.948	22759
874.077	22679
874.206	22592
874.335	22694
874.464	22687
874.593	22904
874.722	22938
874.851	22900
874.979	22930
875.108	23067
875.237	22877
875.365	22748
875.494	22892
875.623	22999
875.751	22782
875.88	23003
876.008	23056
876.136	23071
876.265	23273
876.393	23364
876.521	23277
876.65	23345
876.778	23277
876.906	23162
877.034	23341
877.162	23269
877.29	23086
877.418	23227
877.546	23254
877.674	23193
877.802	23124
877.93	23277
878.058	23178
878.185	23151
878.313	23239
878.441	23178
878.568	23037
878.696	23170
878.824	23159
878.951	23235
879.079	23444
879.206	23585
879.333	23455
879.461	23318
879.588	23353
879.715	23402
879.842	23570
879.97	23216
880.097	23029
880.224	23090
880.351	23200
880.478	23003
880.605	22999
880.732	23037
880.859	23246
880.986	23037
881.112	23166
881.239	22828
881.366	22885
881.493	22729
881.619	22622
881.746	22774
881.872	22596
881.999	22603
882.125	22561
882.252	22611
882.378	22622
882.505	22729
882.631	22299
882.757	22303
882.883	22360
883.01	22265
883.136	22333
883.262	22166
883.388	22196
883.514	22257
883.64	22344
883.766	22280
883.892	22067
884.018	22166
884.143	22253
884.269	22375
884.395	22067
884.52	21907
884.646	21972
884.772	21743
884.897	21915
885.023	21994
885.148	21972
885.274	22032
885.399	22036
885.524	22002
885.65	21850
885.775	22040
885.9	21827
886.025	21945
886.15	21956
886.275	21823
886.4	21865
886.525	21827
886.65	21983
886.775	21895
886.9	21956
887.025	22215
887.149	21876
887.274	21793
887.399	21667
887.523	21694
887.648	21690
887.773	21523
887.897	21876
888.021	21762
888.146	21698
888.27	21793
888.395	21895
888.519	21667
888.643	21747
888.767	21698
888.891	21553
889.015	21515
889.139	21595
889.263	21542
889.387	21504
889.511	21720
889.635	21637
889.759	21443
889.883	21545
890.006	21530
890.13	21553
890.254	21264
890.377	21443
890.501	21199
890.624	21317
890.748	21222
890.871	21093
890.995	21039
891.118	21005
891.241	20948
891.364	21047
891.488	21192
891.611	21093
891.734	21062
891.857	21081
891.98	21116
892.103	21070
892.226	21036
892.349	21001
892.471	20849
892.594	20891
892.717	20914
892.839	21020
892.962	20956
893.085	20910
893.207	21036
893.33	20746
893.452	20773
893.575	21024
893.697	20906
893.819	21096
893.941	21066
894.064	21058
894.186	20899
894.308	20830
894.43	21058
894.552	21146
894.674	21058
894.796	20819
894.918	20914
895.04	20899
895.161	20998
895.283	20982
895.405	20887
895.526	20842
895.648	20963
895.769	21024
895.891	20975
896.012	20986
896.134	20986
896.255	20990
896.376	20895
896.498	20952
896.619	20956
896.74	20872
896.861	20956
896.982	21184
897.103	21298
897.224	21108
897.345	21119
897.466	20994
897.587	21245
897.708	21329
897.828	21119
897.949	21009
898.07	20921
898.19	20982
898.311	21256
898.431	21108
898.552	21184
898.672	21154
898.792	21173
898.913	21062
899.033	20937
899.153	20963
899.273	20849
899.393	20788
899.513	20826
899.633	20883
899.753	20796
899.873	20819
899.993	20750
900.113	20712
900.232	20819
900.352	20716
900.472	20575
900.591	20636
900.711	20667
900.83	20514
900.95	20659
901.069	20769
901.189	20431
901.308	20187
901.427	20187
901.546	20195
901.665	20187
901.784	20145
901.904	20122
902.023	20008
902.141	19868
902.26	19776
902.379	19719
902.498	19761
902.617	19647
902.735	19708
902.854	19681
902.973	19518
903.091	19308
903.21	19301
903.328	19365
903.446	19190
903.565	19171
903.683	19145
903.801	19084
903.919	19164
904.038	19019
904.156	18886
904.274	19031
904.392	18886
904.51	18878
904.627	18882
904.745	18924
904.863	19008
904.981	18597
905.098	18646
905.216	18448
905.334	18639
905.451	18570
905.569	18578
905.686	18563
905.803	18601
905.921	18475
906.038	18437
906.155	18429
906.272	18224
906.389	18281
906.506	18095
906.623	18163
906.74	18117
906.857	17931
906.974	17977
907.091	18224
907.208	18251
907.324	18251
907.441	17923
907.557	17813
907.674	17821
907.79	17756
907.907	17824
908.023	17828
908.139	17855
908.256	17703
908.372	17741
908.488	17726
908.604	17539
908.72	17467
908.836	17695
908.952	17551
909.068	17577
909.184	17581
909.3	17562
909.415	17554
909.531	17512
909.647	17311
909.762	17261
909.878	17136
909.993	17235
910.108	17200
910.224	17105
910.339	17155
910.454	17109
910.57	17018
910.685	17003
910.8	17067
910.915	17197
911.03	16999
911.145	16866
911.259	16740
911.374	16793
911.489	16748
911.604	16691
911.718	16603
911.833	16603
911.947	16516
912.062	16356
912.176	16596
912.291	16618
912.405	16531
912.519	16767
912.633	16645
912.748	16535
912.862	16489
912.976	16375
913.09	16253
913.204	16409
913.318	16402
913.431	16436
913.545	16561
913.659	16485
913.772	16276
913.886	16101
914	16071
914.113	16207
914.226	16207
914.34	16230
914.453	16040
914.566	16173
914.68	16021
914.793	15945
914.906	15755
915.019	15778
915.132	15686
915.245	15644
915.358	15804
915.47	15713
915.583	15614
915.696	15778
915.809	15956
915.921	15888
916.034	15663
916.146	15572
916.259	15603
916.371	15724
916.483	15728
916.595	15542
916.708	15652
916.82	15488
916.932	15374
917.044	15542
917.156	15416
917.268	15401
917.38	15481
917.491	15386
917.603	15329
917.715	15431
917.826	15435
917.938	15298
918.049	15207
918.161	15382
918.272	15496
918.384	15435
918.495	15348
918.606	15165
918.717	15081
918.828	15214
918.939	15138
919.05	14960
919.161	15112
919.272	14883
919.383	14986
919.494	15157
919.604	15226
919.715	15081
919.826	15039
919.936	15039
920.047	15123
920.157	15089
920.267	15279
920.378	14994
920.488	15047
920.598	15222
920.708	15325
920.818	15245
920.928	15161
921.038	15348
921.148	15294
921.258	15081
921.368	15043
921.477	14739
921.587	14758
921.697	14644
921.806	14853
921.916	14667
922.025	14454
922.134	14431
922.244	14374
922.353	14484
922.462	14298
922.571	14237
922.68	14138
922.789	14123
922.898	14027
923.007	14005
923.116	14065
923.224	14024
923.333	14039
923.442	13879
923.55	13868
923.659	13917
923.767	13909
923.876	13830
923.984	13955
924.092	13799
924.201	13769
924.309	13788
924.417	13803
924.525	13708
924.633	13715
924.741	14598
924.849	13457
924.956	13719
925.064	13521
925.172	13381
925.279	13457
925.387	13476
925.494	13445
925.602	13597
925.709	13529
925.816	13403
925.924	13430
926.031	13438
926.138	13392
926.245	13388
926.352	13270
926.459	13388
926.566	13381
926.673	13365
926.779	13266
926.886	13179
926.993	13110
927.099	13027
927.206	12909
927.312	12962
927.419	13027
927.525	13027
927.631	13038
927.737	12878
927.843	12825
927.95	12688
928.056	12795
928.162	12779
928.267	12821
928.373	13392
928.479	12856
928.585	12642
928.69	12776
928.796	12779
928.901	12627
929.007	12574
929.112	12635
929.218	12604
929.323	12589
929.428	12467
929.533	12642
929.638	12380
929.743	12445
929.848	12464
929.953	12521
930.058	12315
930.163	12243
930.267	12285
930.372	12327
930.477	12110
930.581	12414
930.685	12213
930.79	12057
930.894	12159
930.998	12064
931.103	12163
931.207	11794
931.311	11767
931.415	11642
931.519	11520
931.623	11425
