Data from test_V78500241_1192.txt Node
Date: Fri Mar 25 15:50:03 CST 2022
User: usil
Spectrometer: V785-0024
Trigger mode: 0
Integration Time (sec): 4.000000E-1
Scans to average: 1
Nonlinearity correction enabled: false
Boxcar width: 0
Storing dark spectrum: false
XAxis mode: Wavelengths
Number of Pixels in Spectrum: 1024
>>>>>Begin Spectral Data<<<<<
801.071	28702
801.214	28626
801.356	28253
801.499	28337
801.641	28268
801.783	28150
801.926	28109
802.068	28036
802.211	28025
802.353	28017
802.496	27884
802.638	27785
802.78	27812
802.923	27861
803.065	27709
803.208	27804
803.35	27857
803.492	27926
803.635	28013
803.777	27972
803.919	28109
804.061	28398
804.204	28051
804.346	28040
804.488	28017
804.63	28131
804.773	28006
804.915	27998
805.057	28158
805.199	28192
805.341	28162
805.483	28329
805.626	28382
805.768	28158
805.91	28147
806.052	28261
806.194	28204
806.336	28455
806.478	28341
806.62	28348
806.762	28428
806.904	28584
807.046	28843
807.188	28672
807.33	28656
807.472	28752
807.614	28637
807.756	28763
807.898	28527
808.04	28481
808.182	28508
808.324	28615
808.465	28618
808.607	28843
808.749	29033
808.891	28949
809.033	29185
809.174	28930
809.316	28793
809.458	28919
809.6	28949
809.741	28999
809.883	29296
810.025	29147
810.166	29337
810.308	29254
810.45	29147
810.591	29246
810.733	28995
810.875	28938
811.016	29029
811.158	28797
811.299	29121
811.441	29083
811.582	29159
811.724	28991
811.865	28942
812.007	29018
812.148	28995
812.29	29006
812.431	29273
812.573	29265
812.714	29459
812.855	29368
812.997	29646
813.138	29646
813.279	29581
813.421	29345
813.562	29512
813.703	29220
813.845	29086
813.986	29025
814.127	28786
814.268	28675
814.41	28866
814.551	28656
814.692	28831
814.833	28664
814.974	28557
815.115	28725
815.256	28546
815.397	28493
815.539	28588
815.68	28596
815.821	28478
815.962	28512
816.103	28447
816.244	28344
816.385	28230
816.526	28348
816.666	28048
816.807	27956
816.948	28150
817.089	28105
817.23	28074
817.371	28074
817.512	28021
817.653	27975
817.793	27903
817.934	28006
818.075	27861
818.216	27960
818.356	28010
818.497	27880
818.638	27793
818.778	27808
818.919	27728
819.06	27797
819.2	27842
819.341	27968
819.481	28002
819.622	28135
819.762	28348
819.903	28086
820.043	28112
820.184	28048
820.324	28143
820.465	28219
820.605	28166
820.746	28032
820.886	28040
821.026	28067
821.167	28021
821.307	28169
821.447	28048
821.588	27930
821.728	27922
821.868	27618
822.008	27515
822.149	27359
822.289	27466
822.429	27249
822.569	27165
822.709	27150
822.849	26971
822.99	26937
823.13	27009
823.27	26853
823.41	26804
823.55	26648
823.69	26769
823.83	26815
823.97	26804
824.11	26457
824.25	26575
824.389	26663
824.529	26724
824.669	26644
824.809	26731
824.949	26659
825.089	26712
825.228	26743
825.368	26465
825.508	26442
825.648	26484
825.787	26689
825.927	26648
826.067	26453
826.206	26461
826.346	26583
826.485	26568
826.625	26495
826.765	26670
826.904	26590
827.044	26210
827.183	26221
827.323	26157
827.462	26290
827.601	26286
827.741	26229
827.88	26183
828.02	26225
828.159	26130
828.298	26267
828.437	26218
828.577	26100
828.716	26381
828.855	26176
828.994	25989
829.134	25788
829.273	26020
829.412	25898
829.551	25932
829.69	25944
829.829	26081
829.968	25970
830.107	26145
830.246	26039
830.385	25788
830.524	25712
830.663	25868
830.802	25677
830.941	25537
831.08	25605
831.219	25658
831.357	25559
831.496	25769
831.635	25400
831.774	25556
831.913	25518
832.051	25320
832.19	25240
832.329	25278
832.467	25175
832.606	25259
832.744	25122
832.883	25141
833.022	25050
833.16	25289
833.299	25156
833.437	25206
833.576	25335
833.714	25259
833.852	25369
833.991	25270
834.129	25369
834.267	25346
834.406	25304
834.544	25331
834.682	25301
834.821	25320
834.959	25297
835.097	25118
835.235	25194
835.373	25251
835.511	25263
835.65	25156
835.788	25175
835.926	25072
836.064	24973
836.202	25008
836.34	25126
836.478	25202
836.615	25137
836.753	25053
836.891	25126
837.029	25141
837.167	25080
837.305	25000
837.443	25042
837.58	24840
837.718	25004
837.856	24962
837.993	24700
838.131	24901
838.269	24783
838.406	24848
838.544	24684
838.681	24623
838.819	24410
838.956	24452
839.094	24475
839.231	24479
839.369	24578
839.506	24810
839.643	24779
839.781	24407
839.918	24209
840.055	24395
840.193	24540
840.33	24327
840.467	24285
840.604	24437
840.742	24604
840.879	24235
841.016	24125
841.153	24114
841.29	24445
841.427	24220
841.564	24232
841.701	24361
841.838	24213
841.975	24167
842.112	24300
842.249	24270
842.385	24110
842.522	24289
842.659	24076
842.796	23988
842.933	24015
843.069	23969
843.206	23920
843.343	24106
843.479	24049
843.616	24091
843.752	23866
843.889	23786
844.025	23939
844.162	23775
844.298	23878
844.435	23870
844.571	23813
844.708	23824
844.844	24003
844.98	23973
845.117	23889
845.253	23783
845.389	23722
845.525	23843
845.661	23535
845.798	23516
845.934	23608
846.07	23604
846.206	23600
846.342	23661
846.478	23535
846.614	23288
846.75	23254
846.886	23132
847.022	23265
847.158	23280
847.294	23170
847.429	23303
847.565	23170
847.701	23501
847.837	23041
847.972	22919
848.108	23060
848.244	23003
848.379	22980
848.515	22854
848.65	22736
848.786	22778
848.921	22862
849.057	22892
849.192	22927
849.328	22915
849.463	22881
849.598	22767
849.734	22733
849.869	22691
850.004	22603
850.14	22531
850.275	22569
850.41	22569
850.545	22573
850.68	22573
850.815	22615
850.95	22455
851.085	22710
851.22	22702
851.355	22653
851.49	22634
851.625	22618
851.76	22546
851.895	22577
852.03	22588
852.165	22615
852.299	22637
852.434	22588
852.569	22611
852.703	22637
852.838	22740
852.973	22729
853.107	22767
853.242	22466
853.376	22424
853.511	22371
853.645	22280
853.78	22542
853.914	22428
854.048	22341
854.183	22341
854.317	22485
854.451	22763
854.585	22500
854.72	22379
854.854	22508
854.988	22333
855.122	22432
855.256	22318
855.39	22455
855.524	22500
855.658	22485
855.792	22405
855.926	22462
856.06	22489
856.194	22500
856.327	22516
856.461	22417
856.595	22390
856.729	22466
856.862	22519
856.996	22432
857.13	22493
857.263	22573
857.397	22542
857.53	22432
857.664	22504
857.797	22322
857.931	22550
858.064	22382
858.197	22512
858.331	22409
858.464	22318
858.597	22291
858.731	22394
858.864	22440
858.997	22360
859.13	22386
859.263	22405
859.396	22542
859.529	22379
859.662	22337
859.795	22337
859.928	22390
860.061	22577
860.194	22683
860.327	22531
860.46	22443
860.592	22569
860.725	22592
860.858	22611
860.99	22314
861.123	22341
861.256	22295
861.388	22451
861.521	23159
861.653	22261
861.786	22177
861.918	22234
862.05	22219
862.183	22424
862.315	22303
862.447	22497
862.58	22341
862.712	22173
862.844	22032
862.976	22215
863.108	22086
863.24	22603
863.372	22082
863.504	22112
863.636	22120
863.768	22261
863.9	22154
864.032	21945
864.164	22070
864.296	22120
864.428	22211
864.559	22192
864.691	22101
864.823	22063
864.954	22017
865.086	22044
865.217	22055
865.349	22128
865.48	22010
865.612	22025
865.743	22093
865.875	21964
866.006	21899
866.137	22010
866.269	21987
866.4	21953
866.531	21937
866.662	21865
866.793	21899
866.924	21949
867.055	21983
867.186	21930
867.317	21911
867.448	21934
867.579	21888
867.71	21778
867.841	21907
867.972	21888
868.103	21987
868.233	21876
868.364	21899
868.495	22044
868.625	22192
868.756	22200
868.886	21941
869.017	22185
869.147	22253
869.278	22253
869.408	22200
869.539	22249
869.669	22303
869.799	22272
869.929	22246
870.06	22219
870.19	22512
870.32	22561
870.45	22459
870.58	22550
870.71	22626
870.84	22664
870.97	22611
871.1	22538
871.23	22713
871.36	22767
871.489	22664
871.619	22763
871.749	22755
871.879	22831
872.008	22972
872.138	22828
872.267	22672
872.397	22634
872.526	22675
872.656	22603
872.785	22626
872.915	22748
873.044	22843
873.173	22812
873.303	22805
873.432	22759
873.561	22908
873.69	22774
873.819	22675
873.948	22911
874.077	22752
874.206	22733
874.335	22748
874.464	22949
874.593	23098
874.722	23003
874.851	23037
874.979	22949
875.108	23037
875.237	23067
875.365	22881
875.494	22915
875.623	22995
875.751	22911
875.88	22984
876.008	22995
876.136	23265
876.265	23311
876.393	23520
876.521	23383
876.65	23493
876.778	23395
876.906	23284
877.034	23330
877.162	23417
877.29	23235
877.418	23345
877.546	23368
877.674	23425
877.802	23391
877.93	23349
878.058	23166
878.185	23235
878.313	23277
878.441	23368
878.568	23109
878.696	23292
878.824	23322
878.951	23444
879.079	23562
879.206	23676
879.333	23436
879.461	23376
879.588	23402
879.715	23501
879.842	23710
879.97	23493
880.097	23159
880.224	23147
880.351	23231
880.478	23254
880.605	23098
880.732	23143
880.859	23356
880.986	23258
881.112	23235
881.239	22961
881.366	22908
881.493	22854
881.619	22801
881.746	22755
881.872	22683
881.999	22683
882.125	22557
882.252	22744
882.378	22596
882.505	22930
882.631	22618
882.757	22447
882.883	22550
883.01	22493
883.136	22291
883.262	22348
883.388	22405
883.514	22394
883.64	22405
883.766	22375
883.892	22173
884.018	22196
884.143	22390
884.269	22504
884.395	22177
884.52	21949
884.646	22040
884.772	22059
884.897	21926
885.023	22124
885.148	22139
885.274	22131
885.399	22188
885.524	22082
885.65	22002
885.775	22101
885.9	21953
886.025	22188
886.15	22246
886.275	22169
886.4	21926
886.525	21983
886.65	22013
886.775	21994
886.9	22207
887.025	22166
887.149	21994
887.274	21968
887.399	21679
887.523	21793
887.648	21762
887.773	21747
887.897	21869
888.021	21865
888.146	21789
888.27	21895
888.395	21736
888.519	21835
888.643	21770
888.767	21895
888.891	21633
889.015	21591
889.139	21705
889.263	21599
889.387	21736
889.511	21819
889.635	21808
889.759	21641
889.883	21447
890.006	21583
890.13	21652
890.254	21564
890.377	21519
890.501	21317
890.624	21306
890.748	21462
890.871	21294
890.995	21104
891.118	21112
891.241	21176
891.364	21173
891.488	21249
891.611	21096
891.734	21085
891.857	21230
891.98	21142
892.103	21146
892.226	21207
892.349	21077
892.471	20952
892.594	21009
892.717	21154
892.839	20963
892.962	21096
893.085	21142
893.207	21058
893.33	21001
893.452	20891
893.575	21055
893.697	21039
893.819	21207
893.941	21298
894.064	21157
894.186	20994
894.308	20906
894.43	21017
894.552	21085
894.674	21173
894.796	20906
894.918	21055
895.04	21009
895.161	21047
895.283	21051
895.405	21017
895.526	21100
895.648	20979
895.769	21066
895.891	20986
896.012	21108
896.134	21135
896.255	21028
896.376	20952
896.498	21024
896.619	21017
896.74	21089
896.861	21150
896.982	21378
897.103	21420
897.224	21268
897.345	21157
897.466	21112
897.587	21260
897.708	21310
897.828	21374
897.949	21161
898.07	20990
898.19	21100
898.311	21287
898.431	21062
898.552	21237
898.672	21241
898.792	21294
898.913	21169
899.033	21039
899.153	20891
899.273	20944
899.393	20929
899.513	21005
899.633	20998
899.753	20933
899.873	20857
899.993	21028
900.113	20807
900.232	20796
900.352	20944
900.472	20697
900.591	20777
900.711	20868
900.83	20598
900.95	20758
901.069	20777
901.189	20541
901.308	20377
901.427	20309
901.546	20389
901.665	20431
901.784	20358
901.904	20107
902.023	20077
902.141	19830
902.26	19909
902.379	19944
902.498	19788
902.617	19719
902.735	19731
902.854	19757
902.973	19681
903.091	19445
903.21	19472
903.328	19384
903.446	19335
903.565	19282
903.683	19381
903.801	19198
903.919	19236
904.038	19282
904.156	19095
904.274	18970
904.392	19099
904.51	19038
904.627	18920
904.745	19080
904.863	19088
904.981	18745
905.098	18703
905.216	18623
905.334	18719
905.451	18684
905.569	18677
905.686	18650
905.803	18646
905.921	18578
906.038	18589
906.155	18574
906.272	18327
906.389	18464
906.506	18300
906.623	18213
906.74	18277
906.857	18072
906.974	18114
907.091	18304
907.208	18308
907.324	18327
907.441	18022
907.557	17950
907.674	17870
907.79	17843
907.907	17878
908.023	17958
908.139	17882
908.256	17885
908.372	17752
908.488	17726
908.604	17638
908.72	17672
908.836	17646
908.952	17516
909.068	17653
909.184	17707
909.3	17585
909.415	17611
909.531	17554
909.647	17372
909.762	17307
909.878	17284
909.993	17417
910.108	17265
910.224	17239
910.339	17231
910.454	17193
910.57	17193
910.685	17105
910.8	17326
910.915	17334
911.03	17231
911.145	16991
911.259	16934
911.374	16938
911.489	16816
911.604	16786
911.718	16607
911.833	16622
911.947	16592
912.062	16493
912.176	16615
912.291	16615
912.405	16713
912.519	16809
912.633	16824
912.748	16725
912.862	16561
912.976	16402
913.09	16409
913.204	16447
913.318	16402
913.431	16504
913.545	16508
913.659	16516
913.772	16409
913.886	16226
914	16219
914.113	16367
914.226	16390
914.34	16226
914.453	16173
914.566	16211
914.68	16131
914.793	16109
914.906	15953
915.019	15937
915.132	15724
915.245	15934
915.358	15793
915.47	15850
915.583	15819
915.696	15854
915.809	15918
915.921	15956
916.034	15781
916.146	15743
916.259	15804
916.371	15720
916.483	15720
916.595	15618
916.708	15644
916.82	15507
916.932	15625
917.044	15492
917.156	15580
917.268	15481
917.38	15542
917.491	15443
917.603	15450
917.715	15473
917.826	15469
917.938	15393
918.049	15313
918.161	15466
918.272	15614
918.384	15530
918.495	15401
918.606	15211
918.717	15074
918.828	15230
918.939	15161
919.05	15058
919.161	15214
919.272	14929
919.383	15055
919.494	15241
919.604	15405
919.715	15226
919.826	15100
919.936	15093
920.047	15154
920.157	15264
920.267	15272
920.378	15100
920.488	15207
920.598	15279
920.708	15428
920.818	15401
920.928	15279
921.038	15389
921.148	15454
921.258	15157
921.368	15077
921.477	14872
921.587	14845
921.697	14765
921.806	14975
921.916	14727
922.025	14499
922.134	14606
922.244	14511
922.353	14442
922.462	14499
922.571	14457
922.68	14126
922.789	14187
922.898	14168
923.007	14031
923.116	14214
923.224	14157
923.333	14153
923.442	13970
923.55	13917
923.659	14077
923.767	14031
923.876	13890
923.984	14005
924.092	13864
924.201	13894
924.309	13879
924.417	13883
924.525	13784
924.633	13803
924.741	14587
924.849	13651
924.956	13719
925.064	13544
925.172	13521
925.279	13556
925.387	13578
925.494	13514
925.602	13563
925.709	13582
925.816	13381
925.924	13533
926.031	13563
926.138	13438
926.245	13480
926.352	13388
926.459	13480
926.566	13510
926.673	13365
926.779	13240
926.886	13251
926.993	13175
927.099	13110
927.206	13061
927.312	13065
927.419	13069
927.525	13038
927.631	13122
927.737	12935
927.843	12798
927.95	12738
928.056	12875
928.162	12844
928.267	12916
928.373	13483
928.479	12928
928.585	12768
928.69	12833
928.796	12867
928.901	12715
929.007	12669
929.112	12745
929.218	12711
929.323	12673
929.428	12631
929.533	12734
929.638	12570
929.743	12593
929.848	12700
929.953	12486
930.058	12342
930.163	12304
930.267	12266
930.372	12407
930.477	12213
930.581	12452
930.685	12357
930.79	12125
930.894	12110
930.998	12087
931.103	12209
931.207	11916
931.311	11851
931.415	11726
931.519	11547
931.623	11482
