Data from test_V78500241_1460.txt Node
Date: Fri Mar 25 15:51:54 CST 2022
User: usil
Spectrometer: V785-0024
Trigger mode: 0
Integration Time (sec): 4.000000E-1
Scans to average: 1
Nonlinearity correction enabled: false
Boxcar width: 0
Storing dark spectrum: false
XAxis mode: Wavelengths
Number of Pixels in Spectrum: 1024
>>>>>Begin Spectral Data<<<<<
801.071	27656
801.214	27713
801.356	27424
801.499	27412
801.641	27131
801.783	27340
801.926	27374
802.068	27302
802.211	27222
802.353	27150
802.496	27024
802.638	26952
802.78	26902
802.923	26754
803.065	26697
803.208	26804
803.35	26864
803.492	27051
803.635	27116
803.777	26956
803.919	27100
804.061	27447
804.204	27291
804.346	27100
804.488	26918
804.63	27013
804.773	27055
804.915	27028
805.057	27211
805.199	27116
805.341	27275
805.483	27291
805.626	27218
805.768	27157
805.91	27157
806.052	27351
806.194	27169
806.336	27492
806.478	27203
806.62	27294
806.762	27473
806.904	27549
807.046	27781
807.188	27557
807.33	27671
807.472	27728
807.614	27610
807.756	27504
807.898	27557
808.04	27363
808.182	27348
808.324	27599
808.465	27549
808.607	27804
808.749	27842
808.891	28006
809.033	28029
809.174	27979
809.316	27930
809.458	27751
809.6	27747
809.741	27846
809.883	28150
810.025	28181
810.166	28196
810.308	28234
810.45	27945
810.591	28116
810.733	27759
810.875	27895
811.016	27819
811.158	27709
811.299	27930
811.441	27953
811.582	27827
811.724	27846
811.865	27778
812.007	27857
812.148	27918
812.29	27838
812.431	27968
812.573	28067
812.714	28188
812.855	28295
812.997	28485
813.138	28645
813.279	28428
813.421	28341
813.562	28398
813.703	28226
813.845	28021
813.986	27778
814.127	27739
814.268	27511
814.41	27675
814.551	27526
814.692	27637
814.833	27629
814.974	27450
815.115	27534
815.256	27386
815.397	27325
815.539	27424
815.68	27218
815.821	27393
815.962	27317
816.103	27222
816.244	27188
816.385	26940
816.526	27024
816.666	26910
816.807	26754
816.948	26849
817.089	26921
817.23	26891
817.371	26781
817.512	26796
817.653	26823
817.793	26621
817.934	26807
818.075	26815
818.216	26762
818.356	26872
818.497	26598
818.638	26511
818.778	26511
818.919	26575
819.06	26632
819.2	26754
819.341	26781
819.481	26933
819.622	26979
819.762	27062
819.903	26910
820.043	26891
820.184	26956
820.324	26876
820.465	26982
820.605	26800
820.746	26925
820.886	26785
821.026	26902
821.167	26819
821.307	26956
821.447	26750
821.588	26765
821.728	26530
821.868	26446
822.008	26389
822.149	26290
822.289	26309
822.429	26043
822.569	26092
822.709	25940
822.849	25791
822.99	25807
823.13	25704
823.27	25727
823.41	25571
823.55	25491
823.69	25616
823.83	25571
823.97	25632
824.11	25430
824.25	25293
824.389	25358
824.529	25312
824.669	25377
824.809	25559
824.949	25495
825.089	25457
825.228	25483
825.368	25304
825.508	25308
825.648	25346
825.787	25278
825.927	25354
826.067	25160
826.206	25285
826.346	25346
826.485	25400
826.625	25187
826.765	25297
826.904	25285
827.044	25076
827.183	25027
827.323	24859
827.462	25015
827.601	24977
827.741	24882
827.88	25080
828.02	24848
828.159	24837
828.298	25031
828.437	25019
828.577	25038
828.716	25156
828.855	24871
828.994	24726
829.134	24764
829.273	24578
829.412	24604
829.551	24597
829.69	24631
829.829	24749
829.968	24669
830.107	24943
830.246	24604
830.385	24585
830.524	24486
830.663	24448
830.802	24350
830.941	24365
831.08	24205
831.219	24243
831.357	24224
831.496	24566
831.635	24258
831.774	24197
831.913	24114
832.051	23996
832.19	24197
832.329	24030
832.467	23920
832.606	23874
832.744	23874
832.883	23977
833.022	23904
833.16	23908
833.299	24034
833.437	23996
833.576	24015
833.714	24034
833.852	24053
833.991	24049
834.129	24182
834.267	24068
834.406	23977
834.544	24053
834.682	24125
834.821	23802
834.959	24045
835.097	24102
835.235	23999
835.373	24003
835.511	23935
835.65	23866
835.788	23832
835.926	23760
836.064	23695
836.202	23802
836.34	23950
836.478	23893
836.615	23767
836.753	23737
836.891	23996
837.029	23904
837.167	23775
837.305	23729
837.443	23733
837.58	23657
837.718	23733
837.856	23596
837.993	23543
838.131	23695
838.269	23661
838.406	23551
838.544	23471
838.681	23261
838.819	23269
838.956	23132
839.094	23124
839.231	23155
839.369	23330
839.506	23566
839.643	23410
839.781	23128
839.918	23117
840.055	23155
840.193	23117
840.33	23056
840.467	23029
840.604	23159
840.742	23307
840.879	23010
841.016	23029
841.153	22968
841.29	23250
841.427	23113
841.564	23029
841.701	22938
841.838	22999
841.975	22976
842.112	23018
842.249	22892
842.385	22847
842.522	22980
842.659	22790
842.796	22850
842.933	22850
843.069	22774
843.206	22782
843.343	22729
843.479	22866
843.616	22885
843.752	22664
843.889	22573
844.025	22649
844.162	22561
844.298	22634
844.435	22603
844.571	22531
844.708	22649
844.844	22710
844.98	22729
845.117	22634
845.253	22554
845.389	22573
845.525	22500
845.661	22306
845.798	22287
845.934	22303
846.07	22268
846.206	22344
846.342	22443
846.478	22306
846.614	22215
846.75	22021
846.886	22086
847.022	22215
847.158	22051
847.294	22017
847.429	22188
847.565	21975
847.701	22287
847.837	21819
847.972	21667
848.108	21850
848.244	21903
848.379	21675
848.515	21587
848.65	21774
848.786	21682
848.921	21728
849.057	21709
849.192	21603
849.328	21751
849.463	21675
849.598	21595
849.734	21587
849.869	21542
850.004	21473
850.14	21481
850.275	21329
850.41	21336
850.545	21405
850.68	21405
850.815	21420
850.95	21264
851.085	21561
851.22	21553
851.355	21462
851.49	21382
851.625	21412
851.76	21420
851.895	21351
852.03	21310
852.165	21367
852.299	21462
852.434	21454
852.569	21344
852.703	21435
852.838	21370
852.973	21431
853.107	21603
853.242	21386
853.376	21195
853.511	21112
853.645	21218
853.78	21291
853.914	21287
854.048	21116
854.183	21214
854.317	21283
854.451	21412
854.585	21188
854.72	21237
854.854	21336
854.988	21165
855.122	21173
855.256	21188
855.39	21237
855.524	21207
855.658	21272
855.792	21249
855.926	21302
856.06	21222
856.194	21195
856.327	21184
856.461	21203
856.595	21218
856.729	21138
856.862	21374
856.996	21298
857.13	21230
857.263	21416
857.397	21268
857.53	21070
857.664	21287
857.797	21256
857.931	21393
858.064	21283
858.197	21428
858.331	21233
858.464	21211
858.597	21180
858.731	21173
858.864	21214
858.997	21169
859.13	21233
859.263	21233
859.396	21260
859.529	21249
859.662	21157
859.795	21138
859.928	21294
860.061	21359
860.194	21348
860.327	21260
860.46	21291
860.592	21359
860.725	21408
860.858	21218
860.99	21241
861.123	21127
861.256	21214
861.388	21306
861.521	22013
861.653	21112
861.786	21093
861.918	20967
862.05	21131
862.183	21195
862.315	21218
862.447	21245
862.58	21192
862.712	20918
862.844	20872
862.976	21039
863.108	20864
863.24	21393
863.372	20857
863.504	20800
863.636	20986
863.768	20967
863.9	20800
864.032	20838
864.164	20872
864.296	20960
864.428	21028
864.559	21146
864.691	21009
864.823	20899
864.954	20952
865.086	20876
865.217	20979
865.349	20743
865.48	20857
865.612	20754
865.743	20834
865.875	20785
866.006	20895
866.137	20849
866.269	20811
866.4	20735
866.531	20857
866.662	20712
866.793	20644
866.924	20785
867.055	20845
867.186	20823
867.317	20800
867.448	20724
867.579	20765
867.71	20674
867.841	20598
867.972	20861
868.103	20750
868.233	20762
868.364	20773
868.495	20891
868.625	21013
868.756	21142
868.886	21001
869.017	21066
869.147	21173
869.278	21135
869.408	20944
869.539	21028
869.669	21047
869.799	21089
869.929	21077
870.06	21237
870.19	21340
870.32	21310
870.45	21401
870.58	21329
870.71	21534
870.84	21523
870.97	21359
871.1	21412
871.23	21622
871.36	21682
871.489	21481
871.619	21591
871.749	21724
871.879	21622
872.008	21732
872.138	21572
872.267	21568
872.397	21428
872.526	21450
872.656	21473
872.785	21447
872.915	21690
873.044	21698
873.173	21720
873.303	21701
873.432	21770
873.561	21717
873.69	21625
873.819	21622
873.948	21816
874.077	21736
874.206	21572
874.335	21667
874.464	21728
874.593	21926
874.722	21869
874.851	21850
874.979	21926
875.108	22002
875.237	21698
875.365	21728
875.494	21876
875.623	21861
875.751	21861
875.88	21892
876.008	21953
876.136	22078
876.265	22166
876.393	22428
876.521	22417
876.65	22455
876.778	22291
876.906	22116
877.034	22219
877.162	22166
877.29	22147
877.418	22204
877.546	22310
877.674	22154
877.802	22196
877.93	22215
878.058	22261
878.185	22105
878.313	22154
878.441	22318
878.568	22048
878.696	22147
878.824	22154
878.951	22280
879.079	22413
879.206	22516
879.333	22329
879.461	22291
879.588	22322
879.715	22341
879.842	22333
879.97	22207
880.097	22082
880.224	21998
880.351	21991
880.478	22067
880.605	21880
880.732	22029
880.859	22318
880.986	22196
881.112	22150
881.239	21838
881.366	21751
881.493	21736
881.619	21724
881.746	21641
881.872	21572
881.999	21591
882.125	21564
882.252	21667
882.378	21629
882.505	21614
882.631	21481
882.757	21378
882.883	21386
883.01	21268
883.136	21241
883.262	21203
883.388	21165
883.514	21306
883.64	21393
883.766	21226
883.892	21112
884.018	21123
884.143	21188
884.269	21458
884.395	21127
884.52	21020
884.646	21062
884.772	20861
884.897	20876
885.023	21039
885.148	21222
885.274	21157
885.399	21017
885.524	20982
885.65	20975
885.775	21028
885.9	20910
886.025	21066
886.15	20998
886.275	20914
886.4	20845
886.525	20937
886.65	20910
886.775	20937
886.9	21047
887.025	21146
887.149	20910
887.274	20686
887.399	20746
887.523	20686
887.648	20697
887.773	20629
887.897	20811
888.021	20689
888.146	20670
888.27	20880
888.395	20811
888.519	20853
888.643	20667
888.767	20781
888.891	20552
889.015	20526
889.139	20629
889.263	20415
889.387	20556
889.511	20712
889.635	20686
889.759	20495
889.883	20552
890.006	20442
890.13	20674
890.254	20564
890.377	20412
890.501	20351
890.624	20290
890.748	20332
890.871	20180
890.995	20046
891.118	19989
891.241	20214
891.364	20130
891.488	20199
891.611	20096
891.734	20202
891.857	20210
891.98	20005
892.103	20199
892.226	20035
892.349	20031
892.471	19849
892.594	20062
892.717	20237
892.839	20043
892.962	20107
893.085	20134
893.207	20062
893.33	19955
893.452	19890
893.575	20058
893.697	19940
893.819	20229
893.941	20305
894.064	20180
894.186	19932
894.308	19814
894.43	20157
894.552	20088
894.674	20054
894.796	19917
894.918	20069
895.04	20024
895.161	20126
895.283	20050
895.405	20020
895.526	20069
895.648	19970
895.769	20115
895.891	19970
896.012	19993
896.134	20001
896.255	20008
896.376	19917
896.498	20020
896.619	20126
896.74	19993
896.861	20008
896.982	20370
897.103	20469
897.224	20366
897.345	20259
897.466	20187
897.587	20187
897.708	20408
897.828	20324
897.949	20199
898.07	20119
898.19	20142
898.311	20294
898.431	20218
898.552	20180
898.672	20377
898.792	20457
898.913	20282
899.033	20218
899.153	20081
899.273	19902
899.393	19944
899.513	19986
899.633	20046
899.753	20024
899.873	19963
899.993	19978
900.113	19989
900.232	20039
900.352	19959
900.472	19845
900.591	19632
900.711	19887
900.83	19761
900.95	19811
901.069	19826
901.189	19738
901.308	19411
901.427	19324
901.546	19297
901.665	19293
901.784	19373
901.904	19206
902.023	19156
902.141	18993
902.26	18939
902.379	18970
902.498	18878
902.617	18859
902.735	18935
902.854	18738
902.973	18730
903.091	18486
903.21	18509
903.328	18547
903.446	18407
903.565	18243
903.683	18350
903.801	18258
903.919	18342
904.038	18357
904.156	18087
904.274	18216
904.392	18182
904.51	18091
904.627	18117
904.745	18224
904.863	18296
904.981	17992
905.098	17741
905.216	17904
905.334	17897
905.451	17783
905.569	17748
905.686	17786
905.803	17764
905.921	17570
906.038	17687
906.155	17672
906.272	17562
906.389	17376
906.506	17379
906.623	17269
906.74	17326
906.857	17155
906.974	17223
907.091	17318
907.208	17486
907.324	17330
907.441	17200
907.557	17052
907.674	17121
907.79	16961
907.907	16984
908.023	17094
908.139	17136
908.256	16911
908.372	16980
908.488	16908
908.604	16744
908.72	16679
908.836	16816
908.952	16740
909.068	16778
909.184	16854
909.3	16736
909.415	16869
909.531	16702
909.647	16462
909.762	16440
909.878	16462
909.993	16455
910.108	16546
910.224	16413
910.339	16443
910.454	16428
910.57	16268
910.685	16177
910.8	16489
910.915	16341
911.03	16253
911.145	16071
911.259	16078
911.374	16074
911.489	16006
911.604	15991
911.718	15781
911.833	15842
911.947	15751
912.062	15663
912.176	15774
912.291	15846
912.405	15808
912.519	16021
912.633	16055
912.748	15816
912.862	15800
912.976	15610
913.09	15488
913.204	15667
913.318	15553
913.431	15789
913.545	15633
913.659	15732
913.772	15496
913.886	15507
914	15408
914.113	15435
914.226	15473
914.34	15439
914.453	15306
914.566	15568
914.68	15336
914.793	15214
914.906	15192
915.019	15085
915.132	14944
915.245	14910
915.358	15055
915.47	14975
915.583	15123
915.696	15051
915.809	15108
915.921	15195
916.034	14933
916.146	14937
916.259	14944
916.371	15051
916.483	14861
916.595	14792
916.708	14804
916.82	14895
916.932	14845
917.044	14883
917.156	14720
917.268	14705
917.38	14762
917.491	14621
917.603	14701
917.715	14762
917.826	14750
917.938	14636
918.049	14571
918.161	14503
918.272	14731
918.384	14785
918.495	14587
918.606	14488
918.717	14434
918.828	14484
918.939	14457
919.05	14362
919.161	14374
919.272	14244
919.383	14202
919.494	14431
919.604	14712
919.715	14454
919.826	14404
919.936	14457
920.047	14473
920.157	14309
920.267	14602
920.378	14431
920.488	14343
920.598	14625
920.708	14689
920.818	14526
920.928	14518
921.038	14659
921.148	14621
921.258	14385
921.368	14294
921.477	14252
921.587	14107
921.697	13989
921.806	14123
921.916	14008
922.025	13814
922.134	13818
922.244	13693
922.353	13860
922.462	13696
922.571	13677
922.68	13472
922.789	13464
922.898	13552
923.007	13460
923.116	13506
923.224	13381
923.333	13415
923.442	13270
923.55	13213
923.659	13324
923.767	13324
923.876	13133
923.984	13358
924.092	13240
924.201	13236
924.309	13225
924.417	13133
924.525	13122
924.633	13103
924.741	13944
924.849	12878
924.956	13080
925.064	12966
925.172	12779
925.279	12829
925.387	12890
925.494	12833
925.602	13000
925.709	12901
925.816	12760
925.924	12745
926.031	12840
926.138	12852
926.245	12886
926.352	12795
926.459	12844
926.566	12894
926.673	12684
926.779	12658
926.886	12616
926.993	12498
927.099	12483
927.206	12330
927.312	12357
927.419	12509
927.525	12407
927.631	12528
927.737	12277
927.843	12308
927.95	12201
928.056	12213
928.162	12323
928.267	12258
928.373	12920
928.479	12330
928.585	12072
928.69	12155
928.796	12270
928.901	12053
929.007	12007
929.112	12106
929.218	12095
929.323	11996
929.428	12041
929.533	12114
929.638	11920
929.743	12022
929.848	11908
929.953	11984
930.058	11866
930.163	11627
930.267	11733
930.372	11802
930.477	11596
930.581	11843
930.685	11752
930.79	11547
930.894	11581
930.998	11657
931.103	11710
931.207	11273
931.311	11174
931.415	11124
931.519	10957
931.623	10911
