Data from test_V78500241_856.txt Node
Date: Fri Mar 25 15:47:43 CST 2022
User: usil
Spectrometer: V785-0024
Trigger mode: 0
Integration Time (sec): 4.000000E-1
Scans to average: 1
Nonlinearity correction enabled: false
Boxcar width: 0
Storing dark spectrum: false
XAxis mode: Wavelengths
Number of Pixels in Spectrum: 1024
>>>>>Begin Spectral Data<<<<<
801.071	27888
801.214	27755
801.356	27511
801.499	27526
801.641	27279
801.783	27443
801.926	27340
802.068	27336
802.211	27287
802.353	27256
802.496	27051
802.638	27020
802.78	26906
802.923	26861
803.065	26876
803.208	27017
803.35	26979
803.492	27173
803.635	26982
803.777	27093
803.919	27214
804.061	27462
804.204	27310
804.346	27199
804.488	27085
804.63	27055
804.773	27032
804.915	27272
805.057	27363
805.199	27195
805.341	27256
805.483	27344
805.626	27310
805.768	27272
805.91	27233
806.052	27359
806.194	27222
806.336	27534
806.478	27492
806.62	27279
806.762	27389
806.904	27644
807.046	27705
807.188	27831
807.33	27762
807.472	27838
807.614	27694
807.756	27705
807.898	27652
808.04	27568
808.182	27553
808.324	27698
808.465	27511
808.607	27850
808.749	27964
808.891	28131
809.033	28101
809.174	28010
809.316	27873
809.458	27941
809.6	27789
809.741	28070
809.883	28082
810.025	28112
810.166	28303
810.308	28173
810.45	28166
810.591	28242
810.733	28029
810.875	27937
811.016	27949
811.158	27861
811.299	27930
811.441	28196
811.582	28139
811.724	28036
811.865	27930
812.007	27968
812.148	27941
812.29	28032
812.431	28223
812.573	28367
812.714	28314
812.855	28516
812.997	28584
813.138	28763
813.279	28664
813.421	28649
813.562	28516
813.703	28459
813.845	28169
813.986	27918
814.127	27747
814.268	27610
814.41	27747
814.551	27595
814.692	27686
814.833	27557
814.974	27633
815.115	27724
815.256	27462
815.397	27538
815.539	27622
815.68	27408
815.821	27344
815.962	27618
816.103	27485
816.244	27462
816.385	27344
816.526	27218
816.666	27150
816.807	27036
816.948	26910
817.089	27020
817.23	27058
817.371	27009
817.512	26906
817.653	26940
817.793	26868
817.934	26914
818.075	26960
818.216	26883
818.356	26883
818.497	26845
818.638	26769
818.778	26743
818.919	26644
819.06	26899
819.2	26712
819.341	26838
819.481	27020
819.622	27165
819.762	27256
819.903	27241
820.043	27009
820.184	27032
820.324	27066
820.465	27123
820.605	27032
820.746	27017
820.886	26876
821.026	27127
821.167	26994
821.307	27093
821.447	27043
821.588	26819
821.728	26788
821.868	26549
822.008	26362
822.149	26400
822.289	26317
822.429	26164
822.569	26138
822.709	26043
822.849	26035
822.99	25894
823.13	25978
823.27	25928
823.41	25731
823.55	25647
823.69	25776
823.83	25662
823.97	25693
824.11	25521
824.25	25628
824.389	25674
824.529	25712
824.669	25464
824.809	25731
824.949	25514
825.089	25746
825.228	25776
825.368	25422
825.508	25453
825.648	25377
825.787	25514
825.927	25548
826.067	25430
826.206	25460
826.346	25514
826.485	25457
826.625	25419
826.765	25613
826.904	25434
827.044	25133
827.183	25190
827.323	25129
827.462	25308
827.601	25198
827.741	25091
827.88	25324
828.02	24932
828.159	24996
828.298	25190
828.437	25122
828.577	25122
828.716	25225
828.855	24996
828.994	24867
829.134	24871
829.273	24863
829.412	24821
829.551	24722
829.69	24905
829.829	24916
829.968	24935
830.107	24886
830.246	24711
830.385	24783
830.524	24696
830.663	24681
830.802	24582
830.941	24486
831.08	24498
831.219	24639
831.357	24475
831.496	24730
831.635	24399
831.774	24304
831.913	24437
832.051	24235
832.19	24163
832.329	24224
832.467	24163
832.606	24038
832.744	24003
832.883	23965
833.022	24007
833.16	24163
833.299	24243
833.437	24083
833.576	24152
833.714	24201
833.852	24232
833.991	24144
834.129	24300
834.267	24216
834.406	24209
834.544	24045
834.682	24152
834.821	24159
834.959	24395
835.097	24171
835.235	24350
835.373	24235
835.511	24205
835.65	24022
835.788	24049
835.926	23863
836.064	23824
836.202	23764
836.34	23939
836.478	24026
836.615	23870
836.753	24003
836.891	24095
837.029	24057
837.167	23996
837.305	23973
837.443	23946
837.58	23863
837.718	23828
837.856	23935
837.993	23760
838.131	23855
838.269	23794
838.406	23847
838.544	23695
838.681	23543
838.819	23490
838.956	23337
839.094	23353
839.231	23307
839.369	23440
839.506	23798
839.643	23528
839.781	23277
839.918	23235
840.055	23303
840.193	23311
840.33	23170
840.467	23227
840.604	23242
840.742	23524
840.879	23170
841.016	23147
841.153	23079
841.29	23425
841.427	23246
841.564	23303
841.701	23193
841.838	23128
841.975	23162
842.112	23174
842.249	23109
842.385	22984
842.522	23178
842.659	22987
842.796	22927
842.933	22984
843.069	23014
843.206	22858
843.343	22953
843.479	22946
843.616	23060
843.752	22748
843.889	22763
844.025	22839
844.162	22626
844.298	22877
844.435	22877
844.571	22710
844.708	22713
844.844	22915
844.98	22980
845.117	22790
845.253	22523
845.389	22561
845.525	22721
845.661	22637
845.798	22462
845.934	22557
846.07	22394
846.206	22443
846.342	22580
846.478	22462
846.614	22344
846.75	22177
846.886	22242
847.022	22303
847.158	22268
847.294	22234
847.429	22242
847.565	22291
847.701	22459
847.837	21926
847.972	21888
848.108	22109
848.244	22059
848.379	22010
848.515	21800
848.65	21793
848.786	21781
848.921	21892
849.057	21903
849.192	21876
849.328	21892
849.463	21888
849.598	21717
849.734	21686
849.869	21812
850.004	21530
850.14	21618
850.275	21549
850.41	21469
850.545	21507
850.68	21553
850.815	21698
850.95	21625
851.085	21755
851.22	21671
851.355	21534
851.49	21599
851.625	21542
851.76	21538
851.895	21530
852.03	21561
852.165	21667
852.299	21644
852.434	21587
852.569	21774
852.703	21572
852.838	21572
852.973	21778
853.107	21827
853.242	21644
853.376	21355
853.511	21310
853.645	21412
853.78	21488
853.914	21500
854.048	21348
854.183	21405
854.317	21351
854.451	21603
854.585	21340
854.72	21401
854.854	21397
854.988	21256
855.122	21332
855.256	21214
855.39	21488
855.524	21408
855.658	21393
855.792	21412
855.926	21378
856.06	21428
856.194	21420
856.327	21329
856.461	21294
856.595	21416
856.729	21386
856.862	21469
856.996	21564
857.13	21420
857.263	21447
857.397	21382
857.53	21355
857.664	21443
857.797	21603
857.931	21538
858.064	21435
858.197	21424
858.331	21359
858.464	21272
858.597	21363
858.731	21344
858.864	21310
858.997	21435
859.13	21496
859.263	21367
859.396	21530
859.529	21439
859.662	21439
859.795	21336
859.928	21416
860.061	21359
860.194	21648
860.327	21405
860.46	21329
860.592	21473
860.725	21428
860.858	21519
860.99	21306
861.123	21416
861.256	21355
861.388	21428
861.521	21991
861.653	21329
861.786	21135
861.918	21237
862.05	21443
862.183	21317
862.315	21302
862.447	21344
862.58	21313
862.712	21188
862.844	21112
862.976	21146
863.108	21104
863.24	21591
863.372	21100
863.504	21051
863.636	21032
863.768	21214
863.9	21176
864.032	21009
864.164	21165
864.296	21226
864.428	21226
864.559	21131
864.691	21188
864.823	21146
864.954	21108
865.086	21047
865.217	20963
865.349	20998
865.48	21005
865.612	21028
865.743	21169
865.875	21127
866.006	21005
866.137	21100
866.269	21024
866.4	20921
866.531	21066
866.662	20788
866.793	21070
866.924	20956
867.055	20941
867.186	20971
867.317	20933
867.448	20731
867.579	20952
867.71	20823
867.841	20868
867.972	21032
868.103	20895
868.233	21043
868.364	20944
868.495	21108
868.625	21184
868.756	21329
868.886	21268
869.017	21218
869.147	21363
869.278	21428
869.408	21256
869.539	21173
869.669	21233
869.799	21291
869.929	21416
870.06	21374
870.19	21591
870.32	21549
870.45	21591
870.58	21542
870.71	21705
870.84	21671
870.97	21652
871.1	21500
871.23	21812
871.36	21755
871.489	21728
871.619	21747
871.749	21781
871.879	21823
872.008	21918
872.138	21793
872.267	21808
872.397	21633
872.526	21633
872.656	21500
872.785	21641
872.915	21911
873.044	21964
873.173	21770
873.303	21804
873.432	21876
873.561	21907
873.69	21888
873.819	21717
873.948	21930
874.077	21732
874.206	21759
874.335	21812
874.464	21979
874.593	22185
874.722	21953
874.851	22086
874.979	22010
875.108	22105
875.237	21956
875.365	21869
875.494	21994
875.623	22116
875.751	22006
875.88	22055
876.008	22139
876.136	22249
876.265	22405
876.393	22440
876.521	22519
876.65	22497
876.778	22386
876.906	22352
877.034	22451
877.162	22352
877.29	22363
877.418	22451
877.546	22413
877.674	22341
877.802	22382
877.93	22405
878.058	22314
878.185	22173
878.313	22405
878.441	22204
878.568	22143
878.696	22341
878.824	22459
878.951	22447
879.079	22519
879.206	22675
879.333	22531
879.461	22523
879.588	22405
879.715	22493
879.842	22683
879.97	22356
880.097	22185
880.224	22291
880.351	22318
880.478	22131
880.605	22097
880.732	22181
880.859	22508
880.986	22242
881.112	22173
881.239	21975
881.366	21983
881.493	21774
881.619	21797
881.746	21755
881.872	21812
881.999	21648
882.125	21705
882.252	21915
882.378	21755
882.505	21823
882.631	21519
882.757	21530
882.883	21515
883.01	21370
883.136	21340
883.262	21393
883.388	21272
883.514	21447
883.64	21534
883.766	21351
883.892	21237
884.018	21226
884.143	21450
884.269	21561
884.395	21150
884.52	21165
884.646	21161
884.772	21013
884.897	20864
885.023	21138
885.148	21256
885.274	21135
885.399	21249
885.524	21195
885.65	21188
885.775	21108
885.9	21058
886.025	21279
886.15	21188
886.275	21161
886.4	21051
886.525	21116
886.65	21013
886.775	21005
886.9	21188
887.025	21374
887.149	20998
887.274	20918
887.399	20914
887.523	20918
887.648	20834
887.773	20735
887.897	20937
888.021	20883
888.146	20750
888.27	21028
888.395	20994
888.519	20899
888.643	20979
888.767	20948
888.891	20807
889.015	20693
889.139	20621
889.263	20617
889.387	20739
889.511	20929
889.635	20769
889.759	20697
889.883	20579
890.006	20720
890.13	20811
890.254	20697
890.377	20571
890.501	20396
890.624	20355
890.748	20492
890.871	20381
890.995	20313
891.118	20191
891.241	20370
891.364	20229
891.488	20408
891.611	20225
891.734	20195
891.857	20355
891.98	20317
892.103	20225
892.226	20191
892.349	20305
892.471	20035
892.594	20134
892.717	20168
892.839	20119
892.962	20298
893.085	20229
893.207	20195
893.33	20054
893.452	20088
893.575	20221
893.697	20157
893.819	20393
893.941	20423
894.064	20244
894.186	20088
894.308	20050
894.43	20259
894.552	20199
894.674	20275
894.796	20107
894.918	20149
895.04	20149
895.161	20142
895.283	20248
895.405	20020
895.526	20050
895.648	20115
895.769	20248
895.891	20176
896.012	20157
896.134	20301
896.255	20206
896.376	20149
896.498	20153
896.619	20168
896.74	20103
896.861	20202
896.982	20507
897.103	20488
897.224	20385
897.345	20442
897.466	20328
897.587	20317
897.708	20549
897.828	20278
897.949	20305
898.07	20199
898.19	20393
898.311	20351
898.431	20358
898.552	20355
898.672	20480
898.792	20503
898.913	20294
899.033	20195
899.153	20161
899.273	20020
899.393	20134
899.513	20111
899.633	20100
899.753	20126
899.873	20054
899.993	20130
900.113	20103
900.232	20103
900.352	20020
900.472	19951
900.591	19879
900.711	19989
900.83	19807
900.95	20062
901.069	19982
901.189	19795
901.308	19483
901.427	19422
901.546	19441
901.665	19521
901.784	19601
901.904	19358
902.023	19301
902.141	19118
902.26	18928
902.379	19103
902.498	19038
902.617	18966
902.735	19084
902.854	18996
902.973	18939
903.091	18749
903.21	18604
903.328	18623
903.446	18532
903.565	18486
903.683	18494
903.801	18452
903.919	18441
904.038	18391
904.156	18178
904.274	18429
904.392	18224
904.51	18121
904.627	18258
904.745	18338
904.863	18224
904.981	18053
905.098	17931
905.216	17889
905.334	18007
905.451	17874
905.569	17912
905.686	17916
905.803	17980
905.921	17718
906.038	17798
906.155	17665
906.272	17554
906.389	17604
906.506	17505
906.623	17414
906.74	17414
906.857	17368
906.974	17376
907.091	17490
907.208	17486
907.324	17429
907.441	17364
907.557	17311
907.674	17193
907.79	17197
907.907	17143
908.023	17155
908.139	17151
908.256	17140
908.372	17086
908.488	17117
908.604	16839
908.72	16908
908.836	16946
908.952	16930
909.068	16847
909.184	17029
909.3	16782
909.415	16965
909.531	16866
909.647	16649
909.762	16523
909.878	16584
909.993	16634
910.108	16558
910.224	16611
910.339	16622
910.454	16489
910.57	16371
910.685	16325
910.8	16649
910.915	16466
911.03	16356
911.145	16276
911.259	16105
911.374	16226
911.489	16059
911.604	16025
911.718	15819
911.833	15945
911.947	15926
912.062	15812
912.176	15926
912.291	15949
912.405	15861
912.519	16181
912.633	16071
912.748	15987
912.862	15880
912.976	15701
913.09	15641
913.204	15633
913.318	15709
913.431	15732
913.545	15652
913.659	15774
913.772	15701
913.886	15477
914	15584
914.113	15549
914.226	15625
914.34	15675
914.453	15530
914.566	15458
914.68	15374
914.793	15386
914.906	15241
915.019	15173
915.132	15097
915.245	15165
915.358	15214
915.47	15169
915.583	15173
915.696	15203
915.809	15169
915.921	15211
916.034	15131
916.146	15028
916.259	15017
916.371	15058
916.483	15020
916.595	14941
916.708	14937
916.82	14975
916.932	15005
917.044	14967
917.156	14979
917.268	14640
917.38	14853
917.491	14853
917.603	14807
917.715	14891
917.826	14967
917.938	14792
918.049	14655
918.161	14716
918.272	14933
918.384	14906
918.495	14727
918.606	14571
918.717	14579
918.828	14590
918.939	14568
919.05	14461
919.161	14568
919.272	14408
919.383	14446
919.494	14651
919.604	14804
919.715	14556
919.826	14419
919.936	14461
920.047	14705
920.157	14552
920.267	14727
920.378	14617
920.488	14457
920.598	14750
920.708	14944
920.818	14678
920.928	14610
921.038	14887
921.148	14773
921.258	14526
921.368	14431
921.477	14332
921.587	14290
921.697	14202
921.806	14221
921.916	14103
922.025	13932
922.134	14005
922.244	13925
922.353	13978
922.462	13734
922.571	13791
922.68	13578
922.789	13438
922.898	13548
923.007	13540
923.116	13575
923.224	13601
923.333	13533
923.442	13434
923.55	13327
923.659	13476
923.767	13449
923.876	13266
923.984	13441
924.092	13327
924.201	13369
924.309	13308
924.417	13377
924.525	13232
924.633	13187
924.741	14126
924.849	13027
924.956	13209
925.064	13046
925.172	12947
925.279	13027
925.387	13034
925.494	13000
925.602	13110
925.709	13091
925.816	12909
925.924	12875
926.031	13004
926.138	12924
926.245	13008
926.352	12856
926.459	13012
926.566	13046
926.673	12890
926.779	12688
926.886	12696
926.993	12642
927.099	12616
927.206	12532
927.312	12517
927.419	12635
927.525	12563
927.631	12528
927.737	12540
927.843	12376
927.95	12175
928.056	12346
928.162	12433
928.267	12361
928.373	12981
928.479	12426
928.585	12171
928.69	12285
928.796	12410
928.901	12171
929.007	12068
929.112	12251
929.218	12167
929.323	12053
929.428	12098
929.533	12228
929.638	11999
929.743	12022
929.848	12083
929.953	12076
930.058	11885
930.163	11748
930.267	11817
930.372	11863
930.477	11813
930.581	12015
930.685	11927
930.79	11718
930.894	11760
930.998	11695
931.103	11840
931.207	11459
931.311	11341
931.415	11288
931.519	11071
931.623	11029
