Data from test_V78500241_3569.txt Node
Date: Fri Mar 25 16:06:31 CST 2022
User: usil
Spectrometer: V785-0024
Trigger mode: 0
Integration Time (sec): 4.000000E-1
Scans to average: 1
Nonlinearity correction enabled: false
Boxcar width: 0
Storing dark spectrum: false
XAxis mode: Wavelengths
Number of Pixels in Spectrum: 1024
>>>>>Begin Spectral Data<<<<<
801.071	28778
801.214	28721
801.356	28531
801.499	28508
801.641	28436
801.783	28421
801.926	28428
802.068	28268
802.211	28405
802.353	28268
802.496	28196
802.638	28116
802.78	28093
802.923	28070
803.065	27968
803.208	27949
803.35	28082
803.492	28169
803.635	28215
803.777	28074
803.919	28390
804.061	28687
804.204	28367
804.346	28226
804.488	28166
804.63	28306
804.773	28215
804.915	28306
805.057	28443
805.199	28303
805.341	28265
805.483	28440
805.626	28424
805.768	28325
805.91	28527
806.052	28535
806.194	28348
806.336	28656
806.478	28557
806.62	28470
806.762	28599
806.904	28790
807.046	29136
807.188	28877
807.33	28843
807.472	29025
807.614	28843
807.756	28995
807.898	28816
808.04	28691
808.182	28641
808.324	28767
808.465	28877
808.607	29037
808.749	29216
808.891	29330
809.033	29296
809.174	29193
809.316	29162
809.458	29128
809.6	29090
809.741	29307
809.883	29250
810.025	29486
810.166	29570
810.308	29421
810.45	29402
810.591	29417
810.733	29189
810.875	29223
811.016	29128
811.158	29098
811.299	29356
811.441	29296
811.582	29417
811.724	29200
811.865	29105
812.007	29220
812.148	29075
812.29	29242
812.431	29398
812.573	29531
812.714	29577
812.855	29745
812.997	29764
813.138	29874
813.279	29870
813.421	29832
813.562	29722
813.703	29345
813.845	29318
813.986	29311
814.127	29056
814.268	28904
814.41	29025
814.551	29003
814.692	28877
814.833	28908
814.974	28919
815.115	28904
815.256	28793
815.397	28755
815.539	28725
815.68	28694
815.821	28744
815.962	28828
816.103	28637
816.244	28592
816.385	28417
816.526	28500
816.666	28272
816.807	28158
816.948	28455
817.089	28226
817.23	28169
817.371	28150
817.512	28150
817.653	28257
817.793	28215
817.934	28234
818.075	28226
818.216	28044
818.356	28246
818.497	28124
818.638	27873
818.778	27922
818.919	28093
819.06	28219
819.2	28116
819.341	28295
819.481	28162
819.622	28497
819.762	28538
819.903	28485
820.043	28371
820.184	28333
820.324	28215
820.465	28466
820.605	28432
820.746	28257
820.886	28097
821.026	28394
821.167	28268
821.307	28325
821.447	28386
821.588	28097
821.728	27949
821.868	27823
822.008	27732
822.149	27671
822.289	27633
822.429	27519
822.569	27408
822.709	27378
822.849	27188
822.99	27199
823.13	27222
823.27	27176
823.41	27119
823.55	26864
823.69	26998
823.83	27116
823.97	26883
824.11	26765
824.25	26762
824.389	26731
824.529	26952
824.669	26834
824.809	26914
824.949	26921
825.089	26868
825.228	26918
825.368	26785
825.508	26659
825.648	26830
825.787	26834
825.927	26853
826.067	26655
826.206	26773
826.346	26796
826.485	26758
826.625	26693
826.765	26724
826.904	26739
827.044	26453
827.183	26526
827.323	26320
827.462	26461
827.601	26537
827.741	26438
827.88	26495
828.02	26377
828.159	26385
828.298	26431
828.437	26473
828.577	26370
828.716	26465
828.855	26408
828.994	26229
829.134	26149
829.273	26092
829.412	26096
829.551	26081
829.69	26187
829.829	26100
829.968	26221
830.107	26115
830.246	26180
830.385	26058
830.524	25993
830.663	25955
830.802	25944
830.941	25757
831.08	25639
831.219	25799
831.357	25890
831.496	25986
831.635	25734
831.774	25719
831.913	25556
832.051	25563
832.19	25571
832.329	25639
832.467	25556
832.606	25278
832.744	25377
832.883	25270
833.022	25464
833.16	25327
833.299	25575
833.437	25529
833.576	25491
833.714	25525
833.852	25445
833.991	25525
834.129	25609
834.267	25597
834.406	25502
834.544	25510
834.682	25453
834.821	25567
834.959	25734
835.097	25434
835.235	25476
835.373	25449
835.511	25403
835.65	25339
835.788	25308
835.926	25175
836.064	25095
836.202	25209
836.34	25346
836.478	25419
836.615	25251
836.753	25183
836.891	25434
837.029	25312
837.167	25301
837.305	25179
837.443	25232
837.58	25133
837.718	25240
837.856	25183
837.993	25061
838.131	25118
838.269	24928
838.406	24943
838.544	24947
838.681	24726
838.819	24658
838.956	24677
839.094	24669
839.231	24604
839.369	24745
839.506	24894
839.643	24935
839.781	24635
839.918	24498
840.055	24627
840.193	24559
840.33	24388
840.467	24456
840.604	24540
840.742	24776
840.879	24330
841.016	24289
841.153	24323
841.29	24604
841.427	24391
841.564	24490
841.701	24452
841.838	24464
841.975	24399
842.112	24342
842.249	24365
842.385	24300
842.522	24467
842.659	24296
842.796	24270
842.933	24292
843.069	24224
843.206	24330
843.343	24270
843.479	24155
843.616	24190
843.752	24045
843.889	24095
844.025	24011
844.162	23950
844.298	24289
844.435	23992
844.571	23931
844.708	24045
844.844	24216
844.98	24030
845.117	24121
845.253	23939
845.389	23866
845.525	23958
845.661	23950
845.798	23767
845.934	23843
846.07	23703
846.206	23870
846.342	23847
846.478	23718
846.614	23653
846.75	23417
846.886	23585
847.022	23592
847.158	23570
847.294	23615
847.429	23543
847.565	23471
847.701	23722
847.837	23208
847.972	23315
848.108	23227
848.244	23387
848.379	23128
848.515	23185
848.65	23048
848.786	23151
848.921	23113
849.057	23178
849.192	23128
849.328	23143
849.463	23136
849.598	23044
849.734	23010
849.869	22965
850.004	22946
850.14	22873
850.275	22786
850.41	22755
850.545	23003
850.68	22801
850.815	22881
850.95	22858
851.085	23117
851.22	23010
851.355	22995
851.49	22812
851.625	22957
851.76	22900
851.895	22786
852.03	22809
852.165	22908
852.299	22976
852.434	22946
852.569	22866
852.703	22900
852.838	22927
852.973	22965
853.107	22957
853.242	22725
853.376	22660
853.511	22516
853.645	22603
853.78	22759
853.914	22736
854.048	22573
854.183	22656
854.317	22729
854.451	22869
854.585	22793
854.72	22622
854.854	22850
854.988	22588
855.122	22706
855.256	22538
855.39	22641
855.524	22725
855.658	22634
855.792	22683
855.926	22740
856.06	22793
856.194	22672
856.327	22679
856.461	22554
856.595	22717
856.729	22603
856.862	22767
856.996	22748
857.13	22664
857.263	22881
857.397	22835
857.53	22698
857.664	22717
857.797	22596
857.931	22877
858.064	22713
858.197	22721
858.331	22618
858.464	22668
858.597	22584
858.731	22713
858.864	22656
858.997	22694
859.13	22653
859.263	22603
859.396	22805
859.529	22588
859.662	22675
859.795	22675
859.928	22561
860.061	22877
860.194	22900
860.327	22831
860.46	22797
860.592	22729
860.725	22736
860.858	22801
860.99	22725
861.123	22550
861.256	22561
861.388	22790
861.521	23444
861.653	22497
861.786	22466
861.918	22474
862.05	22561
862.183	22603
862.315	22554
862.447	22717
862.58	22592
862.712	22367
862.844	22436
862.976	22436
863.108	22504
863.24	22755
863.372	22341
863.504	22424
863.636	22371
863.768	22500
863.9	22455
864.032	22257
864.164	22394
864.296	22363
864.428	22519
864.559	22390
864.691	22459
864.823	22341
864.954	22295
865.086	22352
865.217	22306
865.349	22204
865.48	22192
865.612	22234
865.743	22428
865.875	22325
866.006	22257
866.137	22329
866.269	22097
866.4	22093
866.531	22226
866.662	22135
866.793	22162
866.924	22200
867.055	22177
867.186	22090
867.317	22116
867.448	22063
867.579	22128
867.71	22162
867.841	22074
867.972	22147
868.103	22192
868.233	22261
868.364	22109
868.495	22284
868.625	22310
868.756	22466
868.886	22394
869.017	22455
869.147	22653
869.278	22504
869.408	22352
869.539	22394
869.669	22519
869.799	22402
869.929	22493
870.06	22611
870.19	22774
870.32	22771
870.45	22736
870.58	22733
870.71	22862
870.84	22995
870.97	22744
871.1	22927
871.23	22980
871.36	23029
871.489	23006
871.619	23025
871.749	22949
871.879	22972
872.008	23212
872.138	23105
872.267	22923
872.397	22835
872.526	22930
872.656	22862
872.785	22869
872.915	23102
873.044	23181
873.173	23014
873.303	23075
873.432	23170
873.561	23223
873.69	23136
873.819	23041
873.948	23003
874.077	23140
874.206	22919
874.335	23003
874.464	23197
874.593	23273
874.722	23174
874.851	23246
874.979	23147
875.108	23341
875.237	23124
875.365	23170
875.494	23151
875.623	23212
875.751	23200
875.88	23307
876.008	23318
876.136	23482
876.265	23600
876.393	23752
876.521	23722
876.65	23764
876.778	23608
876.906	23501
877.034	23524
877.162	23684
877.29	23528
877.418	23634
877.546	23524
877.674	23558
877.802	23699
877.93	23600
878.058	23490
878.185	23436
878.313	23501
878.441	23585
878.568	23376
878.696	23444
878.824	23570
878.951	23646
879.079	23722
879.206	23999
879.333	23695
879.461	23474
879.588	23737
879.715	23783
879.842	23939
879.97	23737
880.097	23356
880.224	23391
880.351	23417
880.478	23395
880.605	23414
880.732	23383
880.859	23687
880.986	23455
881.112	23330
881.239	23364
881.366	23083
881.493	23022
881.619	23010
881.746	23033
881.872	22930
881.999	22885
882.125	22980
882.252	22957
882.378	23010
882.505	22953
882.631	22824
882.757	22645
882.883	22774
883.01	22691
883.136	22626
883.262	22451
883.388	22390
883.514	22626
883.64	22588
883.766	22546
883.892	22436
884.018	22470
884.143	22508
884.269	22702
884.395	22363
884.52	22261
884.646	22219
884.772	22219
884.897	22211
885.023	22352
885.148	22303
885.274	22508
885.399	22356
885.524	22310
885.65	22215
885.775	22295
885.9	22341
886.025	22367
886.15	22348
886.275	22276
886.4	22082
886.525	22188
886.65	22207
886.775	22211
886.9	22394
887.025	22455
887.149	22166
887.274	22048
887.399	22025
887.523	21991
887.648	22017
887.773	21873
887.897	22021
888.021	22070
888.146	22010
888.27	22048
888.395	22029
888.519	22173
888.643	21987
888.767	22109
888.891	21930
889.015	21766
889.139	21892
889.263	21823
889.387	21941
889.511	22055
889.635	21960
889.759	21797
889.883	21850
890.006	21705
890.13	21949
890.254	21732
890.377	21667
890.501	21530
890.624	21587
890.748	21530
890.871	21473
890.995	21294
891.118	21306
891.241	21420
891.364	21363
891.488	21583
891.611	21279
891.734	21325
891.857	21561
891.98	21325
892.103	21264
892.226	21367
892.349	21283
892.471	21047
892.594	21173
892.717	21283
892.839	21096
892.962	21287
893.085	21298
893.207	21245
893.33	21150
893.452	21207
893.575	21370
893.697	21313
893.819	21462
893.941	21393
894.064	21458
894.186	21161
894.308	21135
894.43	21355
894.552	21443
894.674	21428
894.796	21116
894.918	21302
895.04	21070
895.161	21268
895.283	21195
895.405	21157
895.526	21321
895.648	21264
895.769	21302
895.891	21260
896.012	21260
896.134	21336
896.255	21150
896.376	21195
896.498	21230
896.619	21249
896.74	21233
896.861	21378
896.982	21576
897.103	21663
897.224	21462
897.345	21435
897.466	21485
897.587	21363
897.708	21587
897.828	21454
897.949	21393
898.07	21275
898.19	21306
898.311	21473
898.431	21447
898.552	21504
898.672	21466
898.792	21488
898.913	21439
899.033	21325
899.153	21188
899.273	21116
899.393	21135
899.513	21207
899.633	21089
899.753	21192
899.873	21081
899.993	21195
900.113	21036
900.232	20960
900.352	21013
900.472	21005
900.591	20990
900.711	20910
900.83	20807
900.95	20982
901.069	20994
901.189	20861
901.308	20545
901.427	20636
901.546	20469
901.665	20526
901.784	20408
901.904	20320
902.023	20263
902.141	20050
902.26	19906
902.379	20161
902.498	20016
902.617	19959
902.735	19944
902.854	19928
902.973	19860
903.091	19693
903.21	19689
903.328	19552
903.446	19575
903.565	19445
903.683	19422
903.801	19400
903.919	19468
904.038	19403
904.156	19187
904.274	19301
904.392	19103
904.51	19209
904.627	19209
904.745	19346
904.863	19335
904.981	19050
905.098	18837
905.216	18844
905.334	18913
905.451	18951
905.569	18806
905.686	18947
905.803	18924
905.921	18768
906.038	18817
906.155	18768
906.272	18559
906.389	18620
906.506	18509
906.623	18448
906.74	18399
906.857	18369
906.974	18361
907.091	18532
907.208	18544
907.324	18494
907.441	18296
907.557	18266
907.674	18194
907.79	18083
907.907	18159
908.023	18163
908.139	18148
908.256	18011
908.372	18003
908.488	17969
908.604	17805
908.72	17840
908.836	17851
908.952	17760
909.068	17794
909.184	17969
909.3	17821
909.415	17775
909.531	17847
909.647	17619
909.762	17520
909.878	17497
909.993	17558
910.108	17398
910.224	17387
910.339	17425
910.454	17391
910.57	17341
910.685	17246
910.8	17535
910.915	17493
911.03	17277
911.145	17143
911.259	17086
911.374	17010
911.489	17094
911.604	17090
911.718	16858
911.833	16854
911.947	16725
912.062	16740
912.176	16881
912.291	16938
912.405	16949
912.519	17064
912.633	17014
912.748	16812
912.862	16793
912.976	16725
913.09	16630
913.204	16634
913.318	16588
913.431	16694
913.545	16835
913.659	16759
913.772	16554
913.886	16466
914	16394
914.113	16603
914.226	16645
914.34	16402
914.453	16143
914.566	16500
914.68	16382
914.793	16242
914.906	16120
915.019	16017
915.132	15964
915.245	16021
915.358	16071
915.47	15987
915.583	16002
915.696	16090
915.809	16185
915.921	16074
916.034	15945
916.146	15869
916.259	15922
916.371	16048
916.483	15915
916.595	15895
916.708	15915
916.82	15842
916.932	15804
917.044	15789
917.156	15751
917.268	15660
917.38	15618
917.491	15660
917.603	15682
917.715	15603
917.826	15743
917.938	15614
918.049	15469
918.161	15698
918.272	15842
918.384	15667
918.495	15549
918.606	15447
918.717	15367
918.828	15439
918.939	15477
919.05	15325
919.161	15363
919.272	15146
919.383	15283
919.494	15473
919.604	15454
919.715	15291
919.826	15184
919.936	15237
920.047	15249
920.157	15351
920.267	15382
920.378	15439
920.488	15272
920.598	15526
920.708	15614
920.818	15458
920.928	15435
921.038	15603
921.148	15534
921.258	15233
921.368	15116
921.477	15119
921.587	15039
921.697	14899
921.806	14941
921.916	14933
922.025	14823
922.134	14701
922.244	14579
922.353	14606
922.462	14492
922.571	14457
922.68	14343
922.789	14309
922.898	14305
923.007	14332
923.116	14400
923.224	14336
923.333	14252
923.442	14145
923.55	14145
923.659	14161
923.767	14214
923.876	14088
923.984	14157
924.092	13959
924.201	14065
924.309	14027
924.417	14103
924.525	13978
924.633	13967
924.741	14921
924.849	13791
924.956	13871
925.064	13807
925.172	13647
925.279	13658
925.387	13818
925.494	13658
925.602	13837
925.709	13776
925.816	13685
925.924	13658
926.031	13784
926.138	13632
926.245	13666
926.352	13514
926.459	13700
926.566	13639
926.673	13556
926.779	13419
926.886	13453
926.993	13301
927.099	13171
927.206	13122
927.312	13057
927.419	13301
927.525	13228
927.631	13259
927.737	13110
927.843	13133
927.95	12943
928.056	12954
928.162	13027
928.267	13088
928.373	13742
928.479	13110
928.585	12741
928.69	13019
928.796	12989
928.901	12924
929.007	12722
929.112	12821
929.218	12840
929.323	12745
929.428	12711
929.533	12905
929.638	12684
929.743	12688
929.848	12669
929.953	12707
930.058	12669
930.163	12429
930.267	12445
930.372	12547
930.477	12350
930.581	12582
930.685	12426
930.79	12266
930.894	12311
930.998	12273
931.103	12441
931.207	11969
931.311	11923
931.415	11813
931.519	11703
931.623	11570
