Data from test_V78500241_1890.txt Node
Date: Fri Mar 25 15:54:53 CST 2022
User: usil
Spectrometer: V785-0024
Trigger mode: 0
Integration Time (sec): 4.000000E-1
Scans to average: 1
Nonlinearity correction enabled: false
Boxcar width: 0
Storing dark spectrum: false
XAxis mode: Wavelengths
Number of Pixels in Spectrum: 1024
>>>>>Begin Spectral Data<<<<<
801.071	28653
801.214	28577
801.356	28341
801.499	28265
801.641	28341
801.783	28280
801.926	28337
802.068	28253
802.211	28169
802.353	28329
802.496	27914
802.638	27903
802.78	28029
802.923	27797
803.065	27800
803.208	27808
803.35	27903
803.492	28090
803.635	28032
803.777	28112
803.919	28166
804.061	28333
804.204	28253
804.346	28002
804.488	28036
804.63	28219
804.773	27979
804.915	28325
805.057	28147
805.199	28093
805.341	28215
805.483	28409
805.626	28329
805.768	28276
805.91	28303
806.052	28265
806.194	28131
806.336	28360
806.478	28230
806.62	28329
806.762	28462
806.904	28607
807.046	28866
807.188	28881
807.33	28752
807.472	28896
807.614	28706
807.756	28725
807.898	28538
808.04	28573
808.182	28413
808.324	28634
808.465	28767
808.607	28793
808.749	28991
808.891	29136
809.033	29223
809.174	29079
809.316	28999
809.458	28828
809.6	28934
809.741	29090
809.883	29128
810.025	29121
810.166	29174
810.308	29208
810.45	29315
810.591	29094
810.733	29037
810.875	28930
811.016	28968
811.158	28850
811.299	29029
811.441	29044
811.582	29113
811.724	28934
811.865	28873
812.007	29090
812.148	28949
812.29	29033
812.431	29185
812.573	29429
812.714	29448
812.855	29509
812.997	29528
813.138	29752
813.279	29646
813.421	29402
813.562	29375
813.703	29330
813.845	29379
813.986	28839
814.127	28839
814.268	28733
814.41	28771
814.551	28577
814.692	28733
814.833	28561
814.974	28637
815.115	28801
815.256	28599
815.397	28538
815.539	28535
815.68	28554
815.821	28485
815.962	28516
816.103	28447
816.244	28363
816.385	28413
816.526	28261
816.666	28070
816.807	27983
816.948	28036
817.089	28192
817.23	27972
817.371	28150
817.512	27972
817.653	27964
817.793	27960
817.934	28006
818.075	27922
818.216	28147
818.356	28010
818.497	27884
818.638	27774
818.778	27827
818.919	27816
819.06	27922
819.2	28013
819.341	28017
819.481	27800
819.622	28040
819.762	28219
819.903	28166
820.043	28131
820.184	28246
820.324	28162
820.465	28299
820.605	28105
820.746	28025
820.886	28013
821.026	28177
821.167	27994
821.307	28188
821.447	28097
821.588	27895
821.728	27800
821.868	27625
822.008	27591
822.149	27477
822.289	27500
822.429	27348
822.569	27233
822.709	27241
822.849	27058
822.99	26880
823.13	26891
823.27	26967
823.41	26823
823.55	26712
823.69	26826
823.83	26754
823.97	26697
824.11	26541
824.25	26587
824.389	26667
824.529	26712
824.669	26670
824.809	26765
824.949	26712
825.089	26857
825.228	26708
825.368	26362
825.508	26453
825.648	26518
825.787	26598
825.927	26632
826.067	26461
826.206	26503
826.346	26571
826.485	26514
826.625	26560
826.765	26655
826.904	26480
827.044	26324
827.183	26225
827.323	26172
827.462	26294
827.601	26115
827.741	26221
827.88	26278
828.02	26126
828.159	26081
828.298	26206
828.437	26290
828.577	26161
828.716	26210
828.855	26161
828.994	25890
829.134	25849
829.273	26073
829.412	25875
829.551	25864
829.69	25852
829.829	25845
829.968	25890
830.107	26024
830.246	25913
830.385	26020
830.524	25818
830.663	25700
830.802	25616
830.941	25472
831.08	25537
831.219	25567
831.357	25715
831.496	25719
831.635	25628
831.774	25441
831.913	25396
832.051	25259
832.19	25247
832.329	25400
832.467	25346
832.606	25221
832.744	25164
832.883	25228
833.022	25107
833.16	25282
833.299	25221
833.437	25129
833.576	25156
833.714	25343
833.852	25358
833.991	25362
834.129	25354
834.267	25316
834.406	25213
834.544	25202
834.682	25217
834.821	25400
834.959	25453
835.097	25198
835.235	25270
835.373	25240
835.511	25190
835.65	25141
835.788	25095
835.926	24886
836.064	24924
836.202	24867
836.34	25156
836.478	25156
836.615	25156
836.753	25088
836.891	25080
837.029	25198
837.167	25008
837.305	25042
837.443	24985
837.58	24806
837.718	24962
837.856	24928
837.993	24825
838.131	24920
838.269	24802
838.406	24802
838.544	24802
838.681	24494
838.819	24566
838.956	24494
839.094	24365
839.231	24452
839.369	24601
839.506	24696
839.643	24551
839.781	24315
839.918	24258
840.055	24365
840.193	24334
840.33	24273
840.467	24456
840.604	24342
840.742	24555
840.879	24228
841.016	24292
841.153	24243
841.29	24471
841.427	24239
841.564	24213
841.701	24338
841.838	24353
841.975	24262
842.112	24041
842.249	24110
842.385	24205
842.522	24296
842.659	24144
842.796	24015
842.933	24060
843.069	24007
843.206	23996
843.343	24110
843.479	24034
843.616	24049
843.752	23855
843.889	23832
844.025	23950
844.162	23847
844.298	23836
844.435	23821
844.571	23680
844.708	23969
844.844	24038
844.98	23866
845.117	23882
845.253	23840
845.389	23551
845.525	23691
845.661	23630
845.798	23486
845.934	23707
846.07	23524
846.206	23608
846.342	23775
846.478	23509
846.614	23326
846.75	23315
846.886	23311
847.022	23391
847.158	23360
847.294	23231
847.429	23307
847.565	23212
847.701	23600
847.837	22869
847.972	23048
848.108	23025
848.244	23128
848.379	22927
848.515	22801
848.65	22809
848.786	22740
848.921	22820
849.057	22980
849.192	23010
849.328	22847
849.463	22866
849.598	22923
849.734	22927
849.869	22702
850.004	22660
850.14	22656
850.275	22580
850.41	22584
850.545	22538
850.68	22500
850.815	22478
850.95	22618
851.085	22854
851.22	22729
851.355	22679
851.49	22584
851.625	22641
851.76	22634
851.895	22577
852.03	22432
852.165	22611
852.299	22618
852.434	22618
852.569	22508
852.703	22497
852.838	22607
852.973	22805
853.107	22698
853.242	22535
853.376	22500
853.511	22360
853.645	22390
853.78	22592
853.914	22481
854.048	22371
854.183	22485
854.317	22394
854.451	22771
854.585	22443
854.72	22436
854.854	22432
854.988	22337
855.122	22421
855.256	22306
855.39	22440
855.524	22535
855.658	22363
855.792	22554
855.926	22557
856.06	22413
856.194	22573
856.327	22325
856.461	22367
856.595	22409
856.729	22360
856.862	22584
856.996	22493
857.13	22485
857.263	22592
857.397	22519
857.53	22398
857.664	22489
857.797	22436
857.931	22424
858.064	22489
858.197	22504
858.331	22470
858.464	22352
858.597	22375
858.731	22265
858.864	22333
858.997	22470
859.13	22504
859.263	22405
859.396	22615
859.529	22348
859.662	22447
859.795	22295
859.928	22535
860.061	22531
860.194	22660
860.327	22607
860.46	22462
860.592	22512
860.725	22637
860.858	22618
860.99	22417
861.123	22382
861.256	22379
861.388	22424
861.521	23330
861.653	22181
861.786	22223
861.918	22204
862.05	22249
862.183	22348
862.315	22447
862.447	22333
862.58	22318
862.712	22204
862.844	22112
862.976	22287
863.108	22204
863.24	22634
863.372	22082
863.504	22029
863.636	22086
863.768	22238
863.9	22082
864.032	22032
864.164	22093
864.296	22124
864.428	22265
864.559	22204
864.691	22185
864.823	22139
864.954	22059
865.086	22082
865.217	22032
865.349	21949
865.48	22097
865.612	21941
865.743	22150
865.875	22044
866.006	21979
866.137	22010
866.269	21983
866.4	21972
866.531	21888
866.662	21930
866.793	21842
866.924	21987
867.055	21892
867.186	21968
867.317	21941
867.448	21789
867.579	22013
867.71	21926
867.841	21759
867.972	21903
868.103	21774
868.233	21949
868.364	21895
868.495	22147
868.625	22158
868.756	22284
868.886	22032
869.017	22211
869.147	22230
869.278	22284
869.408	22223
869.539	22109
869.669	22272
869.799	22207
869.929	22253
870.06	22272
870.19	22489
870.32	22580
870.45	22432
870.58	22596
870.71	22668
870.84	22645
870.97	22504
871.1	22596
871.23	22752
871.36	22713
871.489	22668
871.619	22778
871.749	22740
871.879	22759
872.008	22949
872.138	22672
872.267	22835
872.397	22675
872.526	22542
872.656	22546
872.785	22527
872.915	22828
873.044	22839
873.173	22653
873.303	22927
873.432	22862
873.561	22919
873.69	22828
873.819	22812
873.948	22759
874.077	22877
874.206	22675
874.335	22755
874.464	22889
874.593	22995
874.722	22873
874.851	23090
874.979	23056
875.108	23029
875.237	23075
875.365	22934
875.494	22904
875.623	23121
875.751	22911
875.88	22999
876.008	23075
876.136	23098
876.265	23334
876.393	23421
876.521	23410
876.65	23448
876.778	23463
876.906	23337
877.034	23185
877.162	23292
877.29	23322
877.418	23330
877.546	23372
877.674	23360
877.802	23421
877.93	23296
878.058	23296
878.185	23261
878.313	23398
878.441	23151
878.568	23117
878.696	23296
878.824	23273
878.951	23539
879.079	23459
879.206	23691
879.333	23547
879.461	23474
879.588	23391
879.715	23516
879.842	23581
879.97	23356
880.097	23197
880.224	23098
880.351	23185
880.478	23056
880.605	23056
880.732	23242
880.859	23353
880.986	23136
881.112	23246
881.239	23143
881.366	23025
881.493	22881
881.619	22710
881.746	22816
881.872	22713
881.999	22759
882.125	22675
882.252	22702
882.378	22702
882.505	22793
882.631	22710
882.757	22637
882.883	22481
883.01	22295
883.136	22413
883.262	22204
883.388	22265
883.514	22348
883.64	22500
883.766	22322
883.892	22105
884.018	22173
884.143	22363
884.269	22485
884.395	22234
884.52	22025
884.646	22059
884.772	21895
884.897	22124
885.023	22059
885.148	22150
885.274	22215
885.399	22112
885.524	21991
885.65	22040
885.775	22059
885.9	21987
886.025	22143
886.15	22082
886.275	22036
886.4	21842
886.525	21979
886.65	22040
886.775	21915
886.9	22101
887.025	22185
887.149	22055
887.274	21918
887.399	21876
887.523	21755
887.648	21686
887.773	21743
887.897	21819
888.021	21892
888.146	21770
888.27	21899
888.395	21895
888.519	21991
888.643	21755
888.767	21903
888.891	21652
889.015	21492
889.139	21576
889.263	21576
889.387	21766
889.511	21766
889.635	21743
889.759	21485
889.883	21488
890.006	21580
890.13	21641
890.254	21492
890.377	21462
890.501	21264
890.624	21279
890.748	21507
890.871	21135
890.995	20952
891.118	21013
891.241	21036
891.364	21104
891.488	21249
891.611	21214
891.734	21100
891.857	21218
891.98	21237
892.103	21131
892.226	21032
892.349	21199
892.471	20944
892.594	21055
892.717	21081
892.839	21089
892.962	21036
893.085	21119
893.207	20971
893.33	20948
893.452	20819
893.575	21001
893.697	21028
893.819	21176
893.941	21317
894.064	21199
894.186	20880
894.308	20876
894.43	21081
894.552	21195
894.674	21039
894.796	21001
894.918	20910
895.04	20963
895.161	21085
895.283	21093
895.405	20956
895.526	21116
895.648	20998
895.769	21127
895.891	20982
896.012	21074
896.134	21047
896.255	21032
896.376	20921
896.498	20967
896.619	21013
896.74	21043
896.861	21013
896.982	21321
897.103	21485
897.224	21268
897.345	21188
897.466	21096
897.587	21173
897.708	21310
897.828	21237
897.949	21070
898.07	20998
898.19	21165
898.311	21317
898.431	21150
898.552	21336
898.672	21161
898.792	21363
898.913	21203
899.033	21020
899.153	20986
899.273	20826
899.393	20937
899.513	20944
899.633	20929
899.753	20826
899.873	20902
899.993	21047
900.113	20929
900.232	20868
900.352	20914
900.472	20743
900.591	20693
900.711	20686
900.83	20750
900.95	20785
901.069	20796
901.189	20514
901.308	20339
901.427	20202
901.546	20347
901.665	20374
901.784	20256
901.904	20134
902.023	20035
902.141	19822
902.26	19852
902.379	19830
902.498	19715
902.617	19788
902.735	19845
902.854	19708
902.973	19586
903.091	19392
903.21	19411
903.328	19502
903.446	19270
903.565	19358
903.683	19240
903.801	19126
903.919	19168
904.038	19103
904.156	18970
904.274	19046
904.392	18932
904.51	18905
904.627	18993
904.745	19042
904.863	19023
904.981	18810
905.098	18669
905.216	18692
905.334	18711
905.451	18661
905.569	18585
905.686	18582
905.803	18654
905.921	18521
906.038	18521
906.155	18448
906.272	18376
906.389	18300
906.506	18220
906.623	18232
906.74	18133
906.857	18068
906.974	18144
907.091	18289
907.208	18380
907.324	18190
907.441	17984
907.557	17775
907.674	17885
907.79	17832
907.907	17866
908.023	17912
908.139	17870
908.256	17859
908.372	17775
908.488	17741
908.604	17535
908.72	17547
908.836	17642
908.952	17467
909.068	17581
909.184	17726
909.3	17646
909.415	17676
909.531	17634
909.647	17376
909.762	17429
909.878	17330
909.993	17364
910.108	17242
910.224	17261
910.339	17242
910.454	17212
910.57	17197
910.685	16938
910.8	17334
910.915	17193
911.03	17075
911.145	17018
911.259	16949
911.374	16991
911.489	16911
911.604	16828
911.718	16713
911.833	16656
911.947	16588
912.062	16615
912.176	16660
912.291	16713
912.405	16599
912.519	16839
912.633	16835
912.748	16717
912.862	16558
912.976	16478
913.09	16303
913.204	16329
913.318	16470
913.431	16504
913.545	16462
913.659	16500
913.772	16310
913.886	16238
914	16207
914.113	16325
914.226	16352
914.34	16257
914.453	16097
914.566	16310
914.68	16181
914.793	16112
914.906	15949
915.019	15793
915.132	15816
915.245	15812
915.358	15800
915.47	15854
915.583	15915
915.696	15850
915.809	15850
915.921	15895
916.034	15747
916.146	15720
916.259	15679
916.371	15838
916.483	15713
916.595	15622
916.708	15656
916.82	15622
916.932	15701
917.044	15572
917.156	15564
917.268	15477
917.38	15412
917.491	15454
917.603	15443
917.715	15557
917.826	15500
917.938	15287
918.049	15169
918.161	15386
918.272	15492
918.384	15504
918.495	15443
918.606	15272
918.717	15203
918.828	15142
918.939	15119
919.05	14990
919.161	15180
919.272	14902
919.383	14941
919.494	15138
919.604	15344
919.715	15123
919.826	15074
919.936	15036
920.047	15226
920.157	15188
920.267	15408
920.378	15180
920.488	15070
920.598	15310
920.708	15348
920.818	15291
920.928	15260
921.038	15272
921.148	15370
921.258	15104
921.368	14986
921.477	14952
921.587	14853
921.697	14697
921.806	14899
921.916	14716
922.025	14564
922.134	14568
922.244	14450
922.353	14480
922.462	14442
922.571	14351
922.68	14142
922.789	14153
922.898	14168
923.007	14134
923.116	14195
923.224	14073
923.333	14111
923.442	14077
923.55	13917
923.659	13894
923.767	14046
923.876	13841
923.984	13978
924.092	13803
924.201	13898
924.309	13898
924.417	13818
924.525	13738
924.633	13757
924.741	14389
924.849	13578
924.956	13723
925.064	13552
925.172	13552
925.279	13552
925.387	13563
925.494	13529
925.602	13662
925.709	13590
925.816	13419
925.924	13453
926.031	13464
926.138	13411
926.245	13556
926.352	13289
926.459	13476
926.566	13499
926.673	13411
926.779	13259
926.886	13278
926.993	13156
927.099	13099
927.206	13050
927.312	13027
927.419	12985
927.525	13168
927.631	13061
927.737	13000
927.843	13008
927.95	12768
928.056	12932
928.162	12905
928.267	12886
928.373	13460
928.479	12924
928.585	12749
928.69	12810
928.796	12829
928.901	12787
929.007	12684
929.112	12802
929.218	12616
929.323	12639
929.428	12612
929.533	12646
929.638	12601
929.743	12551
929.848	12684
929.953	12635
930.058	12441
930.163	12277
930.267	12361
930.372	12376
930.477	12235
930.581	12460
930.685	12270
930.79	12155
930.894	12190
930.998	12079
931.103	12201
931.207	11973
931.311	11809
931.415	11676
931.519	11452
931.623	11482
