Data from test_V78500241_716.txt Node
Date: Fri Mar 25 15:46:46 CST 2022
User: usil
Spectrometer: V785-0024
Trigger mode: 0
Integration Time (sec): 4.000000E-1
Scans to average: 1
Nonlinearity correction enabled: false
Boxcar width: 0
Storing dark spectrum: false
XAxis mode: Wavelengths
Number of Pixels in Spectrum: 1024
>>>>>Begin Spectral Data<<<<<
801.071	27804
801.214	27823
801.356	27557
801.499	27462
801.641	27351
801.783	27431
801.926	27427
802.068	27412
802.211	27389
802.353	27199
802.496	27150
802.638	27066
802.78	27020
802.923	27104
803.065	26937
803.208	27024
803.35	27135
803.492	27176
803.635	27184
803.777	26982
803.919	27142
804.061	27458
804.204	27424
804.346	27093
804.488	27051
804.63	27154
804.773	27108
804.915	27218
805.057	27359
805.199	27146
805.341	27249
805.483	27424
805.626	27416
805.768	27142
805.91	27340
806.052	27245
806.194	27230
806.336	27530
806.478	27367
806.62	27374
806.762	27443
806.904	27770
807.046	27930
807.188	27785
807.33	27690
807.472	27880
807.614	27656
807.756	27778
807.898	27572
808.04	27682
808.182	27553
808.324	27701
808.465	27618
808.607	27869
808.749	27968
808.891	28044
809.033	28128
809.174	28120
809.316	27949
809.458	27998
809.6	28013
809.741	28097
809.883	28105
810.025	28333
810.166	28318
810.308	28242
810.45	28070
810.591	28090
810.733	28036
810.875	27975
811.016	27953
811.158	27983
811.299	28093
811.441	28287
811.582	28116
811.724	28040
811.865	27998
812.007	28002
812.148	27968
812.29	28090
812.431	28230
812.573	28215
812.714	28424
812.855	28500
812.997	28603
813.138	28790
813.279	28653
813.421	28565
813.562	28577
813.703	28333
813.845	28287
813.986	27934
814.127	27759
814.268	27690
814.41	27717
814.551	27671
814.692	27557
814.833	27587
814.974	27572
815.115	27686
815.256	27477
815.397	27610
815.539	27473
815.68	27321
815.821	27496
815.962	27500
816.103	27481
816.244	27439
816.385	27226
816.526	27199
816.666	27116
816.807	26982
816.948	27131
817.089	27279
817.23	27058
817.371	26998
817.512	26940
817.653	26952
817.793	26937
817.934	26948
818.075	26937
818.216	27123
818.356	26906
818.497	26769
818.638	26716
818.778	26708
818.919	26670
819.06	26838
819.2	26842
819.341	26891
819.481	27096
819.622	27195
819.762	27283
819.903	27249
820.043	27096
820.184	27070
820.324	26910
820.465	27127
820.605	27032
820.746	26918
820.886	27013
821.026	27116
821.167	26910
821.307	26921
821.447	27039
821.588	26872
821.728	26815
821.868	26648
822.008	26495
822.149	26412
822.289	26313
822.429	26336
822.569	26058
822.709	26210
822.849	25849
822.99	25951
823.13	25944
823.27	25883
823.41	25822
823.55	25639
823.69	25822
823.83	25807
823.97	25666
824.11	25605
824.25	25582
824.389	25582
824.529	25616
824.669	25712
824.809	25662
824.949	25628
825.089	25742
825.228	25738
825.368	25479
825.508	25422
825.648	25499
825.787	25457
825.927	25567
826.067	25350
826.206	25468
826.346	25464
826.485	25620
826.625	25499
826.765	25620
826.904	25407
827.044	25297
827.183	25126
827.323	25107
827.462	25247
827.601	25122
827.741	25297
827.88	25217
828.02	25038
828.159	25221
828.298	25221
828.437	25259
828.577	25095
828.716	25141
828.855	25023
828.994	24928
829.134	24989
829.273	24935
829.412	24696
829.551	24829
829.69	24871
829.829	24966
829.968	24958
830.107	24863
830.246	24894
830.385	24859
830.524	24741
830.663	24707
830.802	24616
830.941	24445
831.08	24395
831.219	24521
831.357	24448
831.496	24810
831.635	24471
831.774	24357
831.913	24399
832.051	24327
832.19	24452
832.329	24357
832.467	24232
832.606	24152
832.744	24076
832.883	24140
833.022	24114
833.16	24174
833.299	24216
833.437	24270
833.576	24224
833.714	24098
833.852	24216
833.991	24319
834.129	24380
834.267	24323
834.406	24201
834.544	24243
834.682	24262
834.821	24228
834.959	24346
835.097	24064
835.235	24232
835.373	24281
835.511	24190
835.65	24148
835.788	24144
835.926	23977
836.064	23836
836.202	23935
836.34	24133
836.478	24125
836.615	24064
836.753	23920
836.891	24072
837.029	24064
837.167	23923
837.305	23958
837.443	23977
837.58	23901
837.718	24011
837.856	23805
837.993	23790
838.131	23805
838.269	23813
838.406	23824
838.544	23707
838.681	23547
838.819	23623
838.956	23330
839.094	23303
839.231	23474
839.369	23471
839.506	23767
839.643	23539
839.781	23368
839.918	23269
840.055	23288
840.193	23311
840.33	23448
840.467	23307
840.604	23429
840.742	23410
840.879	23140
841.016	23170
841.153	23246
841.29	23436
841.427	23208
841.564	23376
841.701	23292
841.838	23147
841.975	23109
842.112	23284
842.249	23113
842.385	22984
842.522	23315
842.659	23174
842.796	22881
842.933	22984
843.069	22984
843.206	23044
843.343	23071
843.479	23041
843.616	23010
843.752	22839
843.889	22786
844.025	23048
844.162	22774
844.298	22938
844.435	22850
844.571	22900
844.708	22831
844.844	22915
844.98	23018
845.117	22869
845.253	22736
845.389	22812
845.525	22721
845.661	22672
845.798	22557
845.934	22672
846.07	22611
846.206	22675
846.342	22645
846.478	22459
846.614	22333
846.75	22223
846.886	22371
847.022	22356
847.158	22291
847.294	22257
847.429	22230
847.565	22306
847.701	22436
847.837	22063
847.972	22048
848.108	21979
848.244	21975
848.379	21903
848.515	21857
848.65	21736
848.786	21854
848.921	21918
849.057	21873
849.192	21994
849.328	21884
849.463	21850
849.598	21835
849.734	21762
849.869	21690
850.004	21595
850.14	21625
850.275	21759
850.41	21488
850.545	21591
850.68	21641
850.815	21705
850.95	21652
851.085	21675
851.22	21797
851.355	21762
851.49	21542
851.625	21591
851.76	21637
851.895	21534
852.03	21534
852.165	21625
852.299	21713
852.434	21736
852.569	21694
852.703	21679
852.838	21686
852.973	21751
853.107	21797
853.242	21534
853.376	21416
853.511	21298
853.645	21496
853.78	21526
853.914	21329
854.048	21481
854.183	21523
854.317	21519
854.451	21583
854.585	21443
854.72	21367
854.854	21496
854.988	21412
855.122	21519
855.256	21291
855.39	21313
855.524	21515
855.658	21420
855.792	21416
855.926	21469
856.06	21542
856.194	21530
856.327	21466
856.461	21374
856.595	21355
856.729	21462
856.862	21564
856.996	21443
857.13	21511
857.263	21663
857.397	21469
857.53	21401
857.664	21481
857.797	21564
857.931	21492
858.064	21492
858.197	21568
858.331	21450
858.464	21260
858.597	21306
858.731	21443
858.864	21397
858.997	21473
859.13	21450
859.263	21416
859.396	21679
859.529	21397
859.662	21355
859.795	21534
859.928	21515
860.061	21633
860.194	21549
860.327	21583
860.46	21583
860.592	21660
860.725	21660
860.858	21538
860.99	21462
861.123	21431
861.256	21370
861.388	21450
861.521	22021
861.653	21374
861.786	21283
861.918	21233
862.05	21313
862.183	21431
862.315	21428
862.447	21473
862.58	21408
862.712	21081
862.844	21123
862.976	21306
863.108	21291
863.24	21641
863.372	21074
863.504	21230
863.636	21142
863.768	21195
863.9	21180
864.032	21024
864.164	21123
864.296	21207
864.428	21283
864.559	21070
864.691	21127
864.823	21192
864.954	21150
865.086	21089
865.217	21100
865.349	21081
865.48	20880
865.612	21005
865.743	21108
865.875	21093
866.006	21051
866.137	21245
866.269	21005
866.4	20979
866.531	20948
866.662	20956
866.793	20921
866.924	20937
867.055	21066
867.186	21093
867.317	21001
867.448	20880
867.579	20807
867.71	20899
867.841	20819
867.972	21009
868.103	20902
868.233	20960
868.364	21077
868.495	21062
868.625	21165
868.756	21397
868.886	21195
869.017	21233
869.147	21393
869.278	21306
869.408	21291
869.539	21188
869.669	21302
869.799	21260
869.929	21332
870.06	21386
870.19	21534
870.32	21622
870.45	21534
870.58	21549
870.71	21755
870.84	21728
870.97	21610
871.1	21583
871.23	21785
871.36	21895
871.489	21698
871.619	21842
871.749	21751
871.879	21937
872.008	21880
872.138	21766
872.267	21850
872.397	21720
872.526	21595
872.656	21648
872.785	21583
872.915	21835
873.044	21945
873.173	21808
873.303	21918
873.432	21873
873.561	21838
873.69	21888
873.819	21850
873.948	21915
874.077	21876
874.206	21835
874.335	21884
874.464	21983
874.593	22238
874.722	21926
874.851	22074
874.979	22185
875.108	22204
875.237	21960
875.365	21991
875.494	22002
875.623	22181
875.751	22086
875.88	22109
876.008	22200
876.136	22268
876.265	22265
876.393	22675
876.521	22557
876.65	22485
876.778	22512
876.906	22348
877.034	22367
877.162	22413
877.29	22462
877.418	22436
877.546	22379
877.674	22436
877.802	22470
877.93	22344
878.058	22341
878.185	22371
878.313	22382
878.441	22344
878.568	22329
878.696	22356
878.824	22455
878.951	22512
879.079	22634
879.206	22687
879.333	22554
879.461	22371
879.588	22489
879.715	22538
879.842	22717
879.97	22542
880.097	22226
880.224	22234
880.351	22204
880.478	22257
880.605	22230
880.732	22223
880.859	22405
880.986	22280
881.112	22314
881.239	22097
881.366	22002
881.493	21888
881.619	21705
881.746	21816
881.872	21804
881.999	21751
882.125	21793
882.252	21800
882.378	21690
882.505	21888
882.631	21633
882.757	21485
882.883	21561
883.01	21526
883.136	21367
883.262	21424
883.388	21370
883.514	21530
883.64	21519
883.766	21519
883.892	21230
884.018	21317
884.143	21329
884.269	21545
884.395	21275
884.52	21055
884.646	21146
884.772	21154
884.897	21036
885.023	21123
885.148	21192
885.274	21306
885.399	21233
885.524	21096
885.65	21062
885.775	21100
885.9	21165
886.025	21214
886.15	21211
886.275	21188
886.4	21119
886.525	21039
886.65	21096
886.775	20986
886.9	21329
887.025	21264
887.149	21032
887.274	20979
887.399	20929
887.523	20960
887.648	20819
887.773	20918
887.897	21051
888.021	20960
888.146	20960
888.27	21028
888.395	20941
888.519	20982
888.643	20994
888.767	20933
888.891	20689
889.015	20667
889.139	20815
889.263	20602
889.387	20804
889.511	20956
889.635	20804
889.759	20682
889.883	20712
890.006	20731
890.13	20819
890.254	20697
890.377	20765
890.501	20461
890.624	20362
890.748	20514
890.871	20332
890.995	20267
891.118	20294
891.241	20301
891.364	20248
891.488	20438
891.611	20214
891.734	20309
891.857	20317
891.98	20294
892.103	20385
892.226	20400
892.349	20256
892.471	20130
892.594	20237
892.717	20248
892.839	20134
892.962	20176
893.085	20256
893.207	20149
893.33	20065
893.452	20119
893.575	20278
893.697	20153
893.819	20240
893.941	20427
894.064	20317
894.186	20122
894.308	20062
894.43	20259
894.552	20328
894.674	20206
894.796	19940
894.918	19944
895.04	20062
895.161	20248
895.283	20275
895.405	20088
895.526	20073
895.648	20191
895.769	20142
895.891	20294
896.012	20183
896.134	20149
896.255	20157
896.376	20206
896.498	20244
896.619	20282
896.74	20180
896.861	20275
896.982	20473
897.103	20537
897.224	20442
897.345	20412
897.466	20298
897.587	20412
897.708	20625
897.828	20480
897.949	20313
898.07	20180
898.19	20324
898.311	20404
898.431	20476
898.552	20533
898.672	20400
898.792	20651
898.913	20442
899.033	20290
899.153	20168
899.273	20214
899.393	20077
899.513	20161
899.633	20149
899.753	20199
899.873	20119
899.993	20218
900.113	20035
900.232	20168
900.352	19967
900.472	19951
900.591	19887
900.711	19852
900.83	19864
900.95	20088
901.069	19925
901.189	19852
901.308	19540
901.427	19525
901.546	19548
901.665	19502
901.784	19521
901.904	19331
902.023	19232
902.141	19065
902.26	19118
902.379	19095
902.498	18970
902.617	19000
902.735	19114
902.854	19004
902.973	18909
903.091	18719
903.21	18642
903.328	18798
903.446	18616
903.565	18395
903.683	18563
903.801	18486
903.919	18544
904.038	18380
904.156	18186
904.274	18292
904.392	18327
904.51	18186
904.627	18129
904.745	18277
904.863	18334
904.981	18034
905.098	18003
905.216	17912
905.334	18015
905.451	17942
905.569	17931
905.686	17958
905.803	17977
905.921	17737
906.038	17790
906.155	17805
906.272	17570
906.389	17653
906.506	17512
906.623	17486
906.74	17520
906.857	17433
906.974	17372
907.091	17520
907.208	17661
907.324	17463
907.441	17379
907.557	17174
907.674	17159
907.79	17045
907.907	17292
908.023	17258
908.139	17151
908.256	17143
908.372	17067
908.488	17025
908.604	16919
908.72	16904
908.836	16900
908.952	16927
909.068	16911
909.184	16831
909.3	16911
909.415	17151
909.531	16938
909.647	16713
909.762	16653
909.878	16603
909.993	16630
910.108	16577
910.224	16626
910.339	16653
910.454	16417
910.57	16394
910.685	16390
910.8	16611
910.915	16569
911.03	16447
911.145	16291
911.259	16234
911.374	16162
911.489	16173
911.604	16067
911.718	16006
911.833	16112
911.947	15842
912.062	15808
912.176	15892
912.291	16029
912.405	15953
912.519	16124
912.633	16135
912.748	15991
912.862	15945
912.976	15827
913.09	15580
913.204	15739
913.318	15747
913.431	15876
913.545	15850
913.659	15857
913.772	15732
913.886	15545
914	15545
914.113	15747
914.226	15713
914.34	15584
914.453	15534
914.566	15629
914.68	15355
914.793	15355
914.906	15256
915.019	15119
915.132	15089
915.245	15165
915.358	15195
915.47	15211
915.583	15252
915.696	15218
915.809	15348
915.921	15340
916.034	15047
916.146	15127
916.259	15154
916.371	15165
916.483	15119
916.595	15013
916.708	15036
916.82	15097
916.932	14880
917.044	14956
917.156	14941
917.268	14811
917.38	14906
917.491	14739
917.603	14857
917.715	14933
917.826	14910
917.938	14804
918.049	14735
918.161	14769
918.272	14781
918.384	14887
918.495	14712
918.606	14629
918.717	14541
918.828	14663
918.939	14590
919.05	14454
919.161	14492
919.272	14400
919.383	14396
919.494	14568
919.604	14686
919.715	14629
919.826	14404
919.936	14457
920.047	14632
920.157	14590
920.267	14788
920.378	14610
920.488	14526
920.598	14769
920.708	14872
920.818	14636
920.928	14636
921.038	14788
921.148	14804
921.258	14400
921.368	14415
921.477	14328
921.587	14278
921.697	14096
921.806	14263
921.916	14206
922.025	13955
922.134	13917
922.244	13769
922.353	13963
922.462	13811
922.571	13715
922.68	13594
922.789	13571
922.898	13571
923.007	13548
923.116	13628
923.224	13578
923.333	13525
923.442	13453
923.55	13441
923.659	13396
923.767	13483
923.876	13274
923.984	13304
924.092	13168
924.201	13251
924.309	13247
924.417	13244
924.525	13228
924.633	13152
924.741	14248
924.849	13034
924.956	13187
925.064	13069
925.172	12924
925.279	12966
925.387	13000
925.494	12856
925.602	13095
925.709	13015
925.816	12886
925.924	12989
926.031	13031
926.138	12920
926.245	12970
926.352	12875
926.459	12958
926.566	13019
926.673	12890
926.779	12684
926.886	12757
926.993	12547
927.099	12593
927.206	12471
927.312	12471
927.419	12589
927.525	12483
927.631	12517
927.737	12441
927.843	12365
927.95	12361
928.056	12388
928.162	12338
928.267	12350
928.373	13080
928.479	12426
928.585	12213
928.69	12342
928.796	12365
928.901	12220
929.007	12159
929.112	12152
929.218	12186
929.323	12144
929.428	12053
929.533	12197
929.638	12019
929.743	12049
929.848	12114
929.953	12049
930.058	11916
930.163	11726
930.267	11836
930.372	11961
930.477	11733
930.581	12026
930.685	11813
930.79	11718
930.894	11642
930.998	11630
931.103	11783
931.207	11383
931.311	11372
931.415	11368
931.519	11064
931.623	11010
