Data from test_V78500241_1453.txt Node
Date: Fri Mar 25 15:51:52 CST 2022
User: usil
Spectrometer: V785-0024
Trigger mode: 0
Integration Time (sec): 4.000000E-1
Scans to average: 1
Nonlinearity correction enabled: false
Boxcar width: 0
Storing dark spectrum: false
XAxis mode: Wavelengths
Number of Pixels in Spectrum: 1024
>>>>>Begin Spectral Data<<<<<
801.071	28390
801.214	28344
801.356	28299
801.499	28082
801.641	28078
801.783	28006
801.926	28021
802.068	27964
802.211	27949
802.353	27785
802.496	27804
802.638	27770
802.78	27705
802.923	27553
803.065	27717
803.208	27523
803.35	27599
803.492	27816
803.635	27850
803.777	27698
803.919	27880
804.061	28124
804.204	27907
804.346	27812
804.488	27816
804.63	27838
804.773	27679
804.915	27956
805.057	27895
805.199	28029
805.341	27968
805.483	28055
805.626	28017
805.768	27994
805.91	28010
806.052	28093
806.194	27903
806.336	28211
806.478	28010
806.62	27991
806.762	28379
806.904	28299
807.046	28592
807.188	28474
807.33	28519
807.472	28634
807.614	28390
807.756	28500
807.898	28249
808.04	28337
808.182	28337
808.324	28481
808.465	28447
808.607	28622
808.749	28683
808.891	28793
809.033	28980
809.174	28767
809.316	28698
809.458	28778
809.6	28683
809.741	28904
809.883	28786
810.025	29090
810.166	29033
810.308	29064
810.45	29014
810.591	28961
810.733	28687
810.875	28725
811.016	28504
811.158	28557
811.299	28797
811.441	28904
811.582	28919
811.724	28656
811.865	28774
812.007	28702
812.148	28713
812.29	28748
812.431	28953
812.573	29022
812.714	29178
812.855	29417
812.997	29269
813.138	29303
813.279	29375
813.421	29360
813.562	29197
813.703	29159
813.845	28904
813.986	28622
814.127	28443
814.268	28470
814.41	28508
814.551	28356
814.692	28569
814.833	28455
814.974	28394
815.115	28554
815.256	28303
815.397	28272
815.539	28276
815.68	28207
815.821	28139
815.962	28238
816.103	28265
816.244	28242
816.385	27987
816.526	27960
816.666	27778
816.807	27907
816.948	27648
817.089	27884
817.23	27899
817.371	27724
817.512	27835
817.653	27652
817.793	27580
817.934	27622
818.075	27675
818.216	27816
818.356	27690
818.497	27576
818.638	27393
818.778	27374
818.919	27340
819.06	27496
819.2	27580
819.341	27720
819.481	27698
819.622	27876
819.762	27918
819.903	27968
820.043	27934
820.184	27838
820.324	27755
820.465	27918
820.605	27914
820.746	27793
820.886	27713
821.026	27865
821.167	27850
821.307	27941
821.447	27736
821.588	27652
821.728	27473
821.868	27405
822.008	27287
822.149	27169
822.289	27176
822.429	27013
822.569	26777
822.709	26948
822.849	26629
822.99	26705
823.13	26701
823.27	26583
823.41	26541
823.55	26377
823.69	26590
823.83	26571
823.97	26469
824.11	26351
824.25	26374
824.389	26374
824.529	26522
824.669	26339
824.809	26400
824.949	26419
825.089	26453
825.228	26351
825.368	26164
825.508	26172
825.648	26263
825.787	26286
825.927	26305
826.067	26233
826.206	26142
826.346	26259
826.485	26229
826.625	26187
826.765	26362
826.904	26259
827.044	26077
827.183	25966
827.323	26062
827.462	25887
827.601	25928
827.741	25917
827.88	26046
828.02	25807
828.159	25868
828.298	25970
828.437	25986
828.577	25909
828.716	25940
828.855	25955
828.994	25643
829.134	25658
829.273	25628
829.412	25537
829.551	25582
829.69	25757
829.829	25567
829.968	25734
830.107	25696
830.246	25635
830.385	25635
830.524	25441
830.663	25388
830.802	25324
830.941	25335
831.08	25274
831.219	25278
831.357	25373
831.496	25468
831.635	25228
831.774	25168
831.913	25084
832.051	25145
832.19	25038
832.329	25145
832.467	24996
832.606	24886
832.744	24951
832.883	24859
833.022	24837
833.16	24837
833.299	25015
833.437	24962
833.576	25000
833.714	24928
833.852	24920
833.991	24939
834.129	25133
834.267	24996
834.406	24966
834.544	25038
834.682	24970
834.821	24905
834.959	25183
835.097	24840
835.235	24962
835.373	25065
835.511	24966
835.65	24848
835.788	24829
835.926	24654
836.064	24639
836.202	24490
836.34	24711
836.478	24985
836.615	24863
836.753	24867
836.891	24817
837.029	24837
837.167	24730
837.305	24844
837.443	24635
837.58	24642
837.718	24692
837.856	24612
837.993	24566
838.131	24635
838.269	24498
838.406	24445
838.544	24486
838.681	24380
838.819	24201
838.956	23996
839.094	24022
839.231	24136
839.369	24334
839.506	24551
839.643	24289
839.781	24121
839.918	24091
840.055	24026
840.193	23999
840.33	24110
840.467	24136
840.604	23992
840.742	24365
840.879	23843
841.016	23920
841.153	23847
841.29	24041
841.427	23939
841.564	23923
841.701	24068
841.838	23923
841.975	23828
842.112	23859
842.249	23920
842.385	23809
842.522	23897
842.659	23729
842.796	23661
842.933	23828
843.069	23707
843.206	23668
843.343	23767
843.479	23771
843.616	23600
843.752	23592
843.889	23543
844.025	23646
844.162	23509
844.298	23741
844.435	23547
844.571	23490
844.708	23592
844.844	23748
844.98	23703
845.117	23554
845.253	23497
845.389	23429
845.525	23433
845.661	23261
845.798	23216
845.934	23414
846.07	23273
846.206	23246
846.342	23273
846.478	23242
846.614	23010
846.75	22980
846.886	22946
847.022	23041
847.158	22930
847.294	23033
847.429	23048
847.565	22991
847.701	23170
847.837	22637
847.972	22721
848.108	22782
848.244	22908
848.379	22698
848.515	22687
848.65	22504
848.786	22634
848.921	22615
849.057	22729
849.192	22645
849.328	22755
849.463	22588
849.598	22523
849.734	22485
849.869	22337
850.004	22356
850.14	22333
850.275	22424
850.41	22268
850.545	22462
850.68	22325
850.815	22318
850.95	22295
851.085	22550
851.22	22417
851.355	22344
851.49	22352
851.625	22276
851.76	22295
851.895	22268
852.03	22181
852.165	22344
852.299	22337
852.434	22390
852.569	22348
852.703	22382
852.838	22436
852.973	22462
853.107	22386
853.242	22196
853.376	22128
853.511	22017
853.645	22013
853.78	22291
853.914	22185
854.048	22166
854.183	22135
854.317	22215
854.451	22284
854.585	22303
854.72	21983
854.854	22169
854.988	22090
855.122	22177
855.256	21968
855.39	22017
855.524	22211
855.658	22253
855.792	22116
855.926	22173
856.06	22299
856.194	22318
856.327	22097
856.461	22051
856.595	22147
856.729	22078
856.862	22398
856.996	22246
857.13	22249
857.263	22318
857.397	22306
857.53	22177
857.664	22211
857.797	22215
857.931	22128
858.064	22059
858.197	22204
858.331	22291
858.464	22124
858.597	21972
858.731	22135
858.864	22109
858.997	22074
859.13	22185
859.263	22101
859.396	22135
859.529	22051
859.662	22048
859.795	22173
859.928	22192
860.061	22268
860.194	22322
860.327	22265
860.46	22196
860.592	22318
860.725	22265
860.858	22204
860.99	22147
861.123	22223
861.256	22010
861.388	22181
861.521	22995
861.653	22021
861.786	21941
861.918	22002
862.05	21854
862.183	22055
862.315	22131
862.447	22162
862.58	22112
862.712	21884
862.844	21812
862.976	21991
863.108	21876
863.24	22363
863.372	21774
863.504	21915
863.636	21831
863.768	21918
863.9	21846
864.032	21701
864.164	21819
864.296	21759
864.428	21861
864.559	21953
864.691	21793
864.823	21918
864.954	21816
865.086	21850
865.217	21812
865.349	21682
865.48	21755
865.612	21781
865.743	21907
865.875	21622
866.006	21755
866.137	21675
866.269	21808
866.4	21728
866.531	21698
866.662	21519
866.793	21698
866.924	21618
867.055	21778
867.186	21694
867.317	21572
867.448	21564
867.579	21701
867.71	21648
867.841	21648
867.972	21728
868.103	21660
868.233	21656
868.364	21747
868.495	21819
868.625	21895
868.756	21983
868.886	22002
869.017	21888
869.147	21991
869.278	21949
869.408	21937
869.539	21812
869.669	22017
869.799	21979
869.929	22029
870.06	22025
870.19	22192
870.32	22226
870.45	22310
870.58	22375
870.71	22432
870.84	22329
870.97	22352
871.1	22455
871.23	22523
871.36	22462
871.489	22303
871.619	22557
871.749	22519
871.879	22516
872.008	22607
872.138	22440
872.267	22470
872.397	22310
872.526	22329
872.656	22409
872.785	22295
872.915	22546
873.044	22535
873.173	22516
873.303	22535
873.432	22717
873.561	22675
873.69	22485
873.819	22550
873.948	22710
874.077	22497
874.206	22356
874.335	22493
874.464	22603
874.593	22816
874.722	22740
874.851	22683
874.979	22713
875.108	22687
875.237	22755
875.365	22584
875.494	22649
875.623	22729
875.751	22668
875.88	22710
876.008	22835
876.136	23033
876.265	23181
876.393	23334
876.521	23246
876.65	23261
876.778	23086
876.906	23003
877.034	23041
877.162	23094
877.29	23048
877.418	23121
877.546	23090
877.674	23022
877.802	23166
877.93	23086
878.058	22942
878.185	22980
878.313	22999
878.441	23006
878.568	22816
878.696	22995
878.824	23235
878.951	23170
879.079	23231
879.206	23429
879.333	23261
879.461	23105
879.588	23220
879.715	23265
879.842	23395
879.97	23147
880.097	23006
880.224	22949
880.351	22877
880.478	22850
880.605	22885
880.732	22866
880.859	23193
880.986	22850
881.112	22930
881.239	22767
881.366	22721
881.493	22603
881.619	22569
881.746	22489
881.872	22478
881.999	22489
882.125	22356
882.252	22592
882.378	22405
882.505	22573
882.631	22314
882.757	22185
882.883	22299
883.01	22223
883.136	22150
883.262	22036
883.388	22063
883.514	22105
883.64	22215
883.766	22135
883.892	21937
884.018	22032
884.143	22128
884.269	22173
884.395	21930
884.52	21675
884.646	21785
884.772	21800
884.897	21778
885.023	21854
885.148	21899
885.274	21949
885.399	21800
885.524	21785
885.65	21739
885.775	21618
885.9	21766
886.025	21831
886.15	21835
886.275	21816
886.4	21713
886.525	21759
886.65	21698
886.775	21641
886.9	21869
887.025	21880
887.149	21728
887.274	21568
887.399	21572
887.523	21580
887.648	21466
887.773	21557
887.897	21603
888.021	21469
888.146	21477
888.27	21717
888.395	21576
888.519	21610
888.643	21534
888.767	21534
888.891	21507
889.015	21321
889.139	21389
889.263	21313
889.387	21424
889.511	21469
889.635	21488
889.759	21317
889.883	21321
890.006	21332
890.13	21367
890.254	21287
890.377	21180
890.501	21077
890.624	21051
890.748	21135
890.871	21013
890.995	20781
891.118	20891
891.241	21017
891.364	21032
891.488	20979
891.611	20960
891.734	20925
891.857	20910
891.98	20906
892.103	20902
892.226	20941
892.349	20948
892.471	20697
892.594	20800
892.717	20811
892.839	20792
892.962	20769
893.085	20727
893.207	20838
893.33	20750
893.452	20667
893.575	20815
893.697	20792
893.819	20842
893.941	20960
894.064	20982
894.186	20629
894.308	20788
894.43	20994
894.552	20853
894.674	20921
894.796	20651
894.918	20777
895.04	20735
895.161	20765
895.283	20792
895.405	20697
895.526	20845
895.648	20785
895.769	20781
895.891	20834
896.012	20724
896.134	20800
896.255	20781
896.376	20762
896.498	20796
896.619	20872
896.74	20800
896.861	20834
896.982	21081
897.103	21116
897.224	21013
897.345	21017
897.466	21062
897.587	20986
897.708	21093
897.828	21116
897.949	20895
898.07	20906
898.19	20914
898.311	21070
898.431	21085
898.552	20998
898.672	20967
898.792	20998
898.913	20880
899.033	20773
899.153	20754
899.273	20629
899.393	20712
899.513	20785
899.633	20731
899.753	20781
899.873	20670
899.993	20773
900.113	20659
900.232	20750
900.352	20617
900.472	20556
900.591	20503
900.711	20533
900.83	20476
900.95	20617
901.069	20594
901.189	20377
901.308	20149
901.427	20024
901.546	20081
901.665	20119
901.784	20103
901.904	19940
902.023	19814
902.141	19605
902.26	19628
902.379	19753
902.498	19670
902.617	19495
902.735	19613
902.854	19578
902.973	19373
903.091	19346
903.21	19270
903.328	19175
903.446	19053
903.565	19065
903.683	19091
903.801	18924
903.919	19057
904.038	19012
904.156	18833
904.274	18890
904.392	18703
904.51	18806
904.627	18730
904.745	18833
904.863	18878
904.981	18589
905.098	18399
905.216	18494
905.334	18570
905.451	18483
905.569	18407
905.686	18475
905.803	18372
905.921	18346
906.038	18422
906.155	18182
906.272	18121
906.389	18121
906.506	17980
906.623	18030
906.74	17958
906.857	17748
906.974	17942
907.091	18026
907.208	18064
907.324	17954
907.441	17874
907.557	17767
907.674	17729
907.79	17554
907.907	17638
908.023	17684
908.139	17638
908.256	17714
908.372	17543
908.488	17676
908.604	17471
908.72	17398
908.836	17395
908.952	17379
909.068	17452
909.184	17501
909.3	17459
909.415	17421
909.531	17368
909.647	17166
909.762	17109
909.878	17014
909.993	17185
910.108	17113
910.224	17098
910.339	17124
910.454	16976
910.57	16873
910.685	16938
910.8	17181
910.915	16976
911.03	16877
911.145	16774
911.259	16649
911.374	16717
911.489	16637
911.604	16573
911.718	16436
911.833	16512
911.947	16333
912.062	16242
912.176	16474
912.291	16489
912.405	16421
912.519	16675
912.633	16672
912.748	16436
912.862	16337
912.976	16424
913.09	16097
913.204	16318
913.318	16234
913.431	16417
913.545	16295
913.659	16405
913.772	16158
913.886	16013
914	15922
914.113	16162
914.226	16268
914.34	16006
914.453	15941
914.566	16036
914.68	15953
914.793	15804
914.906	15641
915.019	15698
915.132	15564
915.245	15603
915.358	15660
915.47	15637
915.583	15610
915.696	15576
915.809	15762
915.921	15747
916.034	15599
916.146	15466
916.259	15504
916.371	15667
916.483	15580
916.595	15386
916.708	15431
916.82	15428
916.932	15355
917.044	15431
917.156	15336
917.268	15264
917.38	15279
917.491	15237
917.603	15310
917.715	15351
917.826	15245
917.938	15165
918.049	15116
918.161	15161
918.272	15268
918.384	15325
918.495	15180
918.606	14948
918.717	14986
918.828	14982
918.939	14956
919.05	14872
919.161	14982
919.272	14796
919.383	14895
919.494	15020
919.604	15188
919.715	14979
919.826	14849
919.936	14895
920.047	15055
920.157	14994
920.267	15097
920.378	14963
920.488	14868
920.598	15184
920.708	15249
920.818	15127
920.928	15150
921.038	15313
921.148	15154
921.258	14880
921.368	14845
921.477	14712
921.587	14598
921.697	14564
921.806	14670
921.916	14598
922.025	14419
922.134	14324
922.244	14389
922.353	14324
922.462	14183
922.571	14050
922.68	14123
922.789	14020
922.898	13986
923.007	13928
923.116	13967
923.224	13826
923.333	13868
923.442	13746
923.55	13772
923.659	13750
923.767	13845
923.876	13685
923.984	13830
924.092	13677
924.201	13731
924.309	13753
924.417	13769
924.525	13586
924.633	13628
924.741	14366
924.849	13392
924.956	13502
925.064	13358
925.172	13301
925.279	13362
925.387	13422
925.494	13438
925.602	13453
925.709	13369
925.816	13263
925.924	13297
926.031	13354
926.138	13320
926.245	13320
926.352	13236
926.459	13358
926.566	13301
926.673	13263
926.779	13072
926.886	13133
926.993	12882
927.099	12886
927.206	12882
927.312	12833
927.419	12875
927.525	12901
927.631	12981
927.737	12768
927.843	12684
927.95	12608
928.056	12745
928.162	12810
928.267	12772
928.373	13415
928.479	12798
928.585	12589
928.69	12635
928.796	12639
928.901	12582
929.007	12506
929.112	12597
929.218	12483
929.323	12437
929.428	12464
929.533	12559
929.638	12334
929.743	12334
929.848	12395
929.953	12498
930.058	12254
930.163	12121
930.267	12190
930.372	12133
930.477	12110
930.581	12357
930.685	12129
930.79	11996
930.894	11931
930.998	12007
931.103	12155
931.207	11798
931.311	11665
931.415	11543
931.519	11345
931.623	11269
