Data from test_V78500241_2822.txt Node
Date: Fri Mar 25 16:01:20 CST 2022
User: usil
Spectrometer: V785-0024
Trigger mode: 0
Integration Time (sec): 4.000000E-1
Scans to average: 1
Nonlinearity correction enabled: false
Boxcar width: 0
Storing dark spectrum: false
XAxis mode: Wavelengths
Number of Pixels in Spectrum: 1024
>>>>>Begin Spectral Data<<<<<
801.071	29178
801.214	29029
801.356	28885
801.499	28869
801.641	28687
801.783	28687
801.926	28790
802.068	28763
802.211	28782
802.353	28752
802.496	28611
802.638	28565
802.78	28325
802.923	28390
803.065	28523
803.208	28341
803.35	28550
803.492	28729
803.635	28736
803.777	28694
803.919	28580
804.061	29064
804.204	28957
804.346	28725
804.488	28584
804.63	28607
804.773	28607
804.915	28999
805.057	28919
805.199	28729
805.341	28881
805.483	28748
805.626	28790
805.768	28820
805.91	28824
806.052	28976
806.194	28831
806.336	28953
806.478	28965
806.62	28927
806.762	29094
806.904	29124
807.046	29360
807.188	29410
807.33	29383
807.472	29467
807.614	29204
807.756	29212
807.898	29231
808.04	29128
808.182	29018
808.324	29254
808.465	29387
808.607	29471
808.749	29543
808.891	29672
809.033	29718
809.174	29615
809.316	29634
809.458	29611
809.6	29604
809.741	29592
809.883	29767
810.025	29935
810.166	29954
810.308	29862
810.45	29904
810.591	29623
810.733	29745
810.875	29558
811.016	29554
811.158	29516
811.299	29802
811.441	29726
811.582	29748
811.724	29665
811.865	29524
812.007	29505
812.148	29589
812.29	29619
812.431	29767
812.573	30053
812.714	29980
812.855	30174
812.997	30247
813.138	30498
813.279	30258
813.421	30254
813.562	30152
813.703	29958
813.845	29908
813.986	29493
814.127	29448
814.268	29478
814.41	29341
814.551	29395
814.692	29387
814.833	29379
814.974	29311
815.115	29387
815.256	29193
815.397	29360
815.539	29254
815.68	29136
815.821	29067
815.962	29258
816.103	29083
816.244	29132
816.385	29083
816.526	28957
816.666	28660
816.807	28691
816.948	28809
817.089	28736
817.23	28717
817.371	28755
817.512	28713
817.653	28672
817.793	28451
817.934	28649
818.075	28687
818.216	28725
818.356	28656
818.497	28588
818.638	28382
818.778	28367
818.919	28668
819.06	28550
819.2	28516
819.341	28660
819.481	28656
819.622	28763
819.762	29014
819.903	29018
820.043	28911
820.184	28774
820.324	28934
820.465	28850
820.605	28767
820.746	28706
820.886	28527
821.026	28744
821.167	28740
821.307	28942
821.447	28653
821.588	28797
821.728	28451
821.868	28459
822.008	28265
822.149	28109
822.289	28173
822.429	27953
822.569	27759
822.709	27857
822.849	27774
822.99	27770
823.13	27663
823.27	27720
823.41	27610
823.55	27294
823.69	27545
823.83	27462
823.97	27367
824.11	27252
824.25	27275
824.389	27401
824.529	27454
824.669	27336
824.809	27389
824.949	27443
825.089	27477
825.228	27431
825.368	27245
825.508	27252
825.648	27214
825.787	27146
825.927	27367
826.067	27188
826.206	27268
826.346	27374
826.485	27218
826.625	27252
826.765	27233
826.904	27332
827.044	26986
827.183	26979
827.323	26986
827.462	26975
827.601	26899
827.741	26857
827.88	27020
828.02	26853
828.159	26933
828.298	27093
828.437	26952
828.577	26857
828.716	27039
828.855	26868
828.994	26693
829.134	26480
829.273	26670
829.412	26537
829.551	26621
829.69	26689
829.829	26583
829.968	26568
830.107	26811
830.246	26659
830.385	26575
830.524	26530
830.663	26552
830.802	26362
830.941	26328
831.08	26202
831.219	26259
831.357	26271
831.496	26507
831.635	26366
831.774	26199
831.913	26054
832.051	26092
832.19	26027
832.329	26046
832.467	25947
832.606	25902
832.744	25845
832.883	25780
833.022	25837
833.16	25932
833.299	26069
833.437	25959
833.576	25986
833.714	25986
833.852	26016
833.991	26084
834.129	26027
834.267	26081
834.406	26103
834.544	26020
834.682	26012
834.821	25986
834.959	26130
835.097	25966
835.235	26020
835.373	25788
835.511	26039
835.65	25845
835.788	25780
835.926	25670
836.064	25643
836.202	25723
836.34	25982
836.478	25917
836.615	25765
836.753	25776
836.891	25898
837.029	25715
837.167	25753
837.305	25734
837.443	25613
837.58	25594
837.718	25708
837.856	25620
837.993	25578
838.131	25677
838.269	25525
838.406	25491
838.544	25533
838.681	25350
838.819	25190
838.956	24962
839.094	25118
839.231	25046
839.369	25407
839.506	25419
839.643	25335
839.781	25145
839.918	25145
840.055	25179
840.193	25236
840.33	25046
840.467	25065
840.604	25107
840.742	25304
840.879	24890
841.016	24859
841.153	24753
841.29	24973
841.427	24913
841.564	25133
841.701	25095
841.838	24768
841.975	24958
842.112	24886
842.249	24764
842.385	24741
842.522	25023
842.659	24711
842.796	24798
842.933	24764
843.069	24601
843.206	24745
843.343	24802
843.479	24681
843.616	24776
843.752	24505
843.889	24555
844.025	24604
844.162	24486
844.298	24734
844.435	24490
844.571	24388
844.708	24353
844.844	24719
844.98	24673
845.117	24654
845.253	24467
845.389	24452
845.525	24388
845.661	24235
845.798	24300
845.934	24334
846.07	24270
846.206	24254
846.342	24365
846.478	24182
846.614	24163
846.75	23927
846.886	23847
847.022	23931
847.158	24003
847.294	23992
847.429	24030
847.565	23885
847.701	24167
847.837	23722
847.972	23505
848.108	23729
848.244	23771
848.379	23623
848.515	23558
848.65	23440
848.786	23554
848.921	23509
849.057	23558
849.192	23684
849.328	23562
849.463	23490
849.598	23512
849.734	23311
849.869	23269
850.004	23277
850.14	23239
850.275	23471
850.41	23132
850.545	23273
850.68	23269
850.815	23478
850.95	23372
851.085	23467
851.22	23528
851.355	23299
851.49	23235
851.625	23242
851.76	23258
851.895	23216
852.03	23239
852.165	23242
852.299	23395
852.434	23311
852.569	23387
852.703	23326
852.838	23372
852.973	23497
853.107	23372
853.242	23174
853.376	23140
853.511	23022
853.645	23033
853.78	23235
853.914	23071
854.048	23022
854.183	23216
854.317	23197
854.451	23292
854.585	23075
854.72	23060
854.854	23250
854.988	23083
855.122	23102
855.256	23006
855.39	23162
855.524	23090
855.658	23140
855.792	23041
855.926	23124
856.06	23143
856.194	23239
856.327	23102
856.461	23128
856.595	23064
856.729	23010
856.862	23220
856.996	23174
857.13	23204
857.263	23231
857.397	23258
857.53	23094
857.664	23071
857.797	23216
857.931	23288
858.064	23140
858.197	23189
858.331	23102
858.464	23071
858.597	23060
858.731	23261
858.864	23048
858.997	23018
859.13	23060
859.263	23064
859.396	23292
859.529	23181
859.662	23033
859.795	23132
859.928	23060
860.061	23315
860.194	23284
860.327	23162
860.46	23151
860.592	23337
860.725	23280
860.858	23231
860.99	23185
861.123	23006
861.256	22999
861.388	23064
861.521	23710
861.653	22987
861.786	22930
861.918	22908
862.05	22889
862.183	22957
862.315	23071
862.447	23010
862.58	23140
862.712	22744
862.844	22809
862.976	22923
863.108	22831
863.24	23273
863.372	22740
863.504	22850
863.636	22706
863.768	22881
863.9	22790
864.032	22729
864.164	22710
864.296	22748
864.428	22904
864.559	22980
864.691	22793
864.823	22801
864.954	22691
865.086	22835
865.217	22729
865.349	22656
865.48	22691
865.612	22626
865.743	22896
865.875	22725
866.006	22683
866.137	22637
866.269	22656
866.4	22740
866.531	22668
866.662	22535
866.793	22634
866.924	22736
867.055	22622
867.186	22565
867.317	22580
867.448	22592
867.579	22542
867.71	22592
867.841	22538
867.972	22622
868.103	22573
868.233	22542
868.364	22542
868.495	22763
868.625	22831
868.756	22828
868.886	22733
869.017	22820
869.147	23052
869.278	22995
869.408	22877
869.539	22816
869.669	22919
869.799	22843
869.929	23010
870.06	23029
870.19	22987
870.32	23189
870.45	23273
870.58	23044
870.71	23337
870.84	23383
870.97	23242
871.1	23349
871.23	23459
871.36	23497
871.489	23345
871.619	23372
871.749	23505
871.879	23356
872.008	23585
872.138	23406
872.267	23356
872.397	23273
872.526	23250
872.656	23235
872.785	23288
872.915	23486
873.044	23649
873.173	23501
873.303	23535
873.432	23581
873.561	23585
873.69	23307
873.819	23467
873.948	23539
874.077	23387
874.206	23376
874.335	23425
874.464	23497
874.593	23760
874.722	23630
874.851	23722
874.979	23691
875.108	23767
875.237	23615
875.365	23562
875.494	23562
875.623	23714
875.751	23589
875.88	23684
876.008	23771
876.136	23775
876.265	23969
876.393	24110
876.521	24087
876.65	24155
876.778	24068
876.906	23912
877.034	24049
877.162	23984
877.29	24011
877.418	24091
877.546	23946
877.674	23939
877.802	23920
877.93	24102
878.058	23790
878.185	23764
878.313	23912
878.441	23950
878.568	23893
878.696	23809
878.824	24098
878.951	24102
879.079	24174
879.206	24296
879.333	24045
879.461	23988
879.588	24110
879.715	24106
879.842	24258
879.97	23961
880.097	23927
880.224	23916
880.351	23821
880.478	23920
880.605	23878
880.732	23882
880.859	24007
880.986	23756
881.112	23840
881.239	23653
881.366	23531
881.493	23398
881.619	23474
881.746	23505
881.872	23410
881.999	23216
882.125	23353
882.252	23478
882.378	23273
882.505	23474
882.631	23280
882.757	23060
882.883	23018
883.01	22987
883.136	23128
883.262	22938
883.388	22816
883.514	23041
883.64	23010
883.766	22835
883.892	22812
884.018	22774
884.143	22965
884.269	23014
884.395	22843
884.52	22725
884.646	22687
884.772	22641
884.897	22546
885.023	22649
885.148	22847
885.274	22835
885.399	22691
885.524	22615
885.65	22672
885.775	22679
885.9	22656
886.025	22755
886.15	22752
886.275	22626
886.4	22531
886.525	22683
886.65	22588
886.775	22580
886.9	22710
887.025	22854
887.149	22611
887.274	22462
887.399	22421
887.523	22375
887.648	22257
887.773	22405
887.897	22508
888.021	22557
888.146	22375
888.27	22489
888.395	22470
888.519	22451
888.643	22466
888.767	22348
888.891	22249
889.015	22310
889.139	22246
889.263	22135
889.387	22367
889.511	22367
889.635	22158
889.759	22219
889.883	22158
890.006	22268
890.13	22314
890.254	21994
890.377	22158
890.501	22082
890.624	21953
890.748	22067
890.871	21884
890.995	21812
891.118	21572
891.241	21743
891.364	21778
891.488	21903
891.611	21766
891.734	21629
891.857	21759
891.98	21614
892.103	21854
892.226	21705
892.349	21701
892.471	21504
892.594	21675
892.717	21682
892.839	21663
892.962	21618
893.085	21724
893.207	21625
893.33	21526
893.452	21504
893.575	21698
893.697	21614
893.819	21743
893.941	21694
894.064	21701
894.186	21595
894.308	21492
894.43	21751
894.552	21739
894.674	21713
894.796	21530
894.918	21538
895.04	21587
895.161	21663
895.283	21564
895.405	21534
895.526	21564
895.648	21496
895.769	21648
895.891	21660
896.012	21557
896.134	21701
896.255	21553
896.376	21431
896.498	21648
896.619	21458
896.74	21568
896.861	21542
896.982	21953
897.103	22021
897.224	21804
897.345	21804
897.466	21846
897.587	21728
897.708	21895
897.828	21861
897.949	21591
898.07	21739
898.19	21648
898.311	21797
898.431	21743
898.552	21705
898.672	21778
898.792	21884
898.913	21789
899.033	21720
899.153	21500
899.273	21374
899.393	21507
899.513	21610
899.633	21351
899.753	21515
899.873	21443
899.993	21542
900.113	21458
900.232	21367
900.352	21397
900.472	21321
900.591	21199
900.711	21310
900.83	21207
900.95	21256
901.069	21226
901.189	21119
901.308	20857
901.427	20834
901.546	20807
901.665	20792
901.784	20815
901.904	20765
902.023	20579
902.141	20408
902.26	20328
902.379	20339
902.498	20180
902.617	20301
902.735	20377
902.854	20263
902.973	20301
903.091	20043
903.21	20012
903.328	19898
903.446	19959
903.565	19677
903.683	19734
903.801	19700
903.919	19719
904.038	19635
904.156	19472
904.274	19601
904.392	19578
904.51	19499
904.627	19506
904.745	19586
904.863	19548
904.981	19324
905.098	19198
905.216	19122
905.334	19190
905.451	19152
905.569	19141
905.686	19084
905.803	19038
905.921	19061
906.038	19122
906.155	18894
906.272	18890
906.389	18897
906.506	18627
906.623	18715
906.74	18734
906.857	18551
906.974	18570
907.091	18673
907.208	18897
907.324	18696
907.441	18639
907.557	18494
907.674	18388
907.79	18262
907.907	18365
908.023	18403
908.139	18384
908.256	18456
908.372	18270
908.488	18148
908.604	18155
908.72	18125
908.836	18155
908.952	18057
909.068	18098
909.184	18106
909.3	18079
909.415	18076
909.531	18091
909.647	17817
909.762	17786
909.878	17832
909.993	17908
910.108	17764
910.224	17608
910.339	17726
910.454	17577
910.57	17604
910.685	17649
910.8	17889
910.915	17813
911.03	17661
911.145	17353
911.259	17452
911.374	17448
911.489	17315
911.604	17261
911.718	17086
911.833	17185
911.947	16934
912.062	16915
912.176	17155
912.291	17037
912.405	17060
912.519	17246
912.633	17208
912.748	17117
912.862	17098
912.976	16934
913.09	16774
913.204	16790
913.318	16915
913.431	16908
913.545	17045
913.659	17048
913.772	16889
913.886	16675
914	16596
914.113	16729
914.226	16721
914.34	16790
914.453	16687
914.566	16672
914.68	16519
914.793	16523
914.906	16344
915.019	16303
915.132	16162
915.245	16173
915.358	16188
915.47	16337
915.583	16280
915.696	16246
915.809	16325
915.921	16291
916.034	16120
916.146	16131
916.259	16147
916.371	16196
916.483	16177
916.595	16112
916.708	16105
916.82	16021
916.932	15911
917.044	16086
917.156	16017
917.268	15781
917.38	15960
917.491	15835
917.603	15876
917.715	15899
917.826	15945
917.938	15793
918.049	15724
918.161	15694
918.272	15956
918.384	15854
918.495	15781
918.606	15610
918.717	15591
918.828	15618
918.939	15682
919.05	15492
919.161	15576
919.272	15401
919.383	15424
919.494	15530
919.604	15781
919.715	15572
919.826	15492
919.936	15557
920.047	15557
920.157	15584
920.267	15751
920.378	15568
920.488	15473
920.598	15713
920.708	15888
920.818	15660
920.928	15713
921.038	15785
921.148	15892
921.258	15450
921.368	15408
921.477	15287
921.587	15214
921.697	15116
921.806	15188
921.916	15051
922.025	14910
922.134	14845
922.244	14887
922.353	14853
922.462	14804
922.571	14556
922.68	14549
922.789	14457
922.898	14533
923.007	14552
923.116	14533
923.224	14442
923.333	14450
923.442	14347
923.55	14298
923.659	14313
923.767	14412
923.876	14210
923.984	14362
924.092	14263
924.201	14290
924.309	14164
924.417	14210
924.525	14180
924.633	14138
924.741	15097
924.849	13944
924.956	14111
925.064	13963
925.172	13826
925.279	13864
925.387	13921
925.494	14016
925.602	14016
925.709	13944
925.816	13830
925.924	13742
926.031	13898
926.138	13795
926.245	13883
926.352	13788
926.459	13837
926.566	13784
926.673	13670
926.779	13666
926.886	13548
926.993	13476
927.099	13445
927.206	13369
927.312	13381
927.419	13510
927.525	13373
927.631	13400
927.737	13278
927.843	13327
927.95	13027
928.056	13209
928.162	13297
928.267	13324
928.373	13746
928.479	13285
928.585	13103
928.69	13187
928.796	13213
928.901	13149
929.007	12894
929.112	13080
929.218	13019
929.323	12901
929.428	12779
929.533	13061
929.638	12825
929.743	12798
929.848	12863
929.953	12916
930.058	12760
930.163	12513
930.267	12608
930.372	12734
930.477	12502
930.581	12863
930.685	12631
930.79	12376
930.894	12494
930.998	12391
931.103	12563
931.207	12270
931.311	12106
931.415	11973
931.519	11798
931.623	11832
