Data from test_V78500241_1671.txt Node
Date: Fri Mar 25 15:53:22 CST 2022
User: usil
Spectrometer: V785-0024
Trigger mode: 0
Integration Time (sec): 4.000000E-1
Scans to average: 1
Nonlinearity correction enabled: false
Boxcar width: 0
Storing dark spectrum: false
XAxis mode: Wavelengths
Number of Pixels in Spectrum: 1024
>>>>>Begin Spectral Data<<<<<
801.071	28344
801.214	28177
801.356	28025
801.499	28013
801.641	27892
801.783	27808
801.926	27800
802.068	27835
802.211	27880
802.353	27622
802.496	27370
802.638	27583
802.78	27511
802.923	27538
803.065	27405
803.208	27408
803.35	27595
803.492	27633
803.635	27793
803.777	27633
803.919	27682
804.061	28139
804.204	27873
804.346	27667
804.488	27629
804.63	27663
804.773	27610
804.915	27827
805.057	27914
805.199	27622
805.341	27755
805.483	27835
805.626	27720
805.768	27694
805.91	27827
806.052	27991
806.194	27759
806.336	28029
806.478	28013
806.62	27781
806.762	28101
806.904	28226
807.046	28348
807.188	28295
807.33	28246
807.472	28447
807.614	28257
807.756	28219
807.898	28169
808.04	28120
808.182	28025
808.324	28116
808.465	28261
808.607	28375
808.749	28626
808.891	28557
809.033	28656
809.174	28611
809.316	28588
809.458	28405
809.6	28519
809.741	28599
809.883	28713
810.025	28763
810.166	28812
810.308	28809
810.45	28801
810.591	28683
810.733	28675
810.875	28599
811.016	28371
811.158	28344
811.299	28649
811.441	28672
811.582	28828
811.724	28542
811.865	28569
812.007	28538
812.148	28493
812.29	28508
812.431	28588
812.573	28873
812.714	28927
812.855	29044
812.997	29022
813.138	29250
813.279	29212
813.421	29010
813.562	28987
813.703	28771
813.845	28626
813.986	28500
814.127	28405
814.268	28318
814.41	28318
814.551	28177
814.692	28299
814.833	28246
814.974	28303
815.115	28249
815.256	28013
815.397	28040
815.539	28139
815.68	27945
815.821	28029
815.962	28074
816.103	28135
816.244	27789
816.385	27876
816.526	27774
816.666	27515
816.807	27538
816.948	27507
817.089	27675
817.23	27412
817.371	27557
817.512	27447
817.653	27469
817.793	27519
817.934	27523
818.075	27542
818.216	27492
818.356	27534
818.497	27378
818.638	27184
818.778	27230
818.919	27317
819.06	27405
819.2	27332
819.341	27496
819.481	27507
819.622	27610
819.762	27895
819.903	27724
820.043	27705
820.184	27625
820.324	27675
820.465	27739
820.605	27690
820.746	27610
820.886	27553
821.026	27713
821.167	27580
821.307	27679
821.447	27526
821.588	27466
821.728	27211
821.868	27245
822.008	27036
822.149	26948
822.289	26982
822.429	26724
822.569	26659
822.709	26644
822.849	26431
822.99	26457
823.13	26533
823.27	26339
823.41	26389
823.55	26214
823.69	26290
823.83	26195
823.97	26282
824.11	26073
824.25	26134
824.389	26233
824.529	26206
824.669	26301
824.809	26290
824.949	26100
825.089	26202
825.228	26240
825.368	26039
825.508	26001
825.648	26096
825.787	26039
825.927	26107
826.067	25921
826.206	26043
826.346	26142
826.485	26134
826.625	26122
826.765	26172
826.904	26077
827.044	25784
827.183	25822
827.323	25807
827.462	25765
827.601	25822
827.741	25700
827.88	25879
828.02	25670
828.159	25609
828.298	25803
828.437	25753
828.577	25708
828.716	25856
828.855	25609
828.994	25518
829.134	25377
829.273	25559
829.412	25403
829.551	25502
829.69	25346
829.829	25400
829.968	25464
830.107	25441
830.246	25487
830.385	25259
830.524	25308
830.663	25285
830.802	25152
830.941	25110
831.08	24985
831.219	25114
831.357	25114
831.496	25285
831.635	25084
831.774	24954
831.913	24989
832.051	24939
832.19	24875
832.329	24840
832.467	24669
832.606	24719
832.744	24772
832.883	24703
833.022	24677
833.16	24722
833.299	24840
833.437	24738
833.576	24878
833.714	24772
833.852	24787
833.991	24776
834.129	24764
834.267	24821
834.406	24825
834.544	24734
834.682	24791
834.821	24791
834.959	24947
835.097	24700
835.235	24711
835.373	24719
835.511	24817
835.65	24681
835.788	24700
835.926	24528
836.064	24429
836.202	24285
836.34	24665
836.478	24696
836.615	24570
836.753	24585
836.891	24616
837.029	24665
837.167	24620
837.305	24623
837.443	24566
837.58	24464
837.718	24525
837.856	24414
837.993	24395
838.131	24471
838.269	24247
838.406	24315
838.544	24239
838.681	24190
838.819	24057
838.956	23866
839.094	24041
839.231	23885
839.369	24064
839.506	24140
839.643	24262
839.781	23988
839.918	23885
840.055	23939
840.193	23764
840.33	23866
840.467	23927
840.604	23821
840.742	24114
840.879	23604
841.016	23668
841.153	23870
841.29	23843
841.427	23866
841.564	23737
841.701	23771
841.838	23809
841.975	23714
842.112	23726
842.249	23745
842.385	23611
842.522	23767
842.659	23798
842.796	23630
842.933	23455
843.069	23493
843.206	23596
843.343	23604
843.479	23680
843.616	23558
843.752	23330
843.889	23307
844.025	23490
844.162	23345
844.298	23429
844.435	23261
844.571	23269
844.708	23379
844.844	23577
844.98	23512
845.117	23452
845.253	23303
845.389	23349
845.525	23136
845.661	23212
845.798	23170
845.934	23147
846.07	23109
846.206	23098
846.342	23258
846.478	23178
846.614	22957
846.75	22820
846.886	22858
847.022	22858
847.158	22938
847.294	22782
847.429	22858
847.565	22748
847.701	23124
847.837	22637
847.972	22580
848.108	22599
848.244	22622
848.379	22421
848.515	22409
848.65	22299
848.786	22466
848.921	22375
849.057	22485
849.192	22519
849.328	22462
849.463	22356
849.598	22478
849.734	22318
849.869	22181
850.004	22055
850.14	22162
850.275	22238
850.41	22135
850.545	22082
850.68	22211
850.815	22185
850.95	22185
851.085	22341
851.22	22375
851.355	22249
851.49	22082
851.625	22105
851.76	22063
851.895	22116
852.03	22147
852.165	22105
852.299	22234
852.434	22310
852.569	22265
852.703	22204
852.838	22192
852.973	22135
853.107	22219
853.242	22078
853.376	22010
853.511	21903
853.645	21778
853.78	22120
853.914	21972
854.048	21953
854.183	21861
854.317	22002
854.451	22207
854.585	21930
854.72	21941
854.854	22181
854.988	21918
855.122	21945
855.256	21903
855.39	21998
855.524	22048
855.658	21994
855.792	22010
855.926	21934
856.06	22040
856.194	22086
856.327	21972
856.461	21975
856.595	21922
856.729	21960
856.862	22158
856.996	22070
857.13	22006
857.263	22067
857.397	22147
857.53	21873
857.664	21937
857.797	22059
857.931	22025
858.064	21953
858.197	22147
858.331	22029
858.464	21964
858.597	21907
858.731	21949
858.864	22032
858.997	21956
859.13	21968
859.263	21991
859.396	22055
859.529	22067
859.662	21941
859.795	21991
859.928	21964
860.061	22185
860.194	22059
860.327	21922
860.46	21903
860.592	22200
860.725	22059
860.858	22086
860.99	22021
861.123	21831
861.256	21873
861.388	21979
861.521	22649
861.653	21918
861.786	21679
861.918	21766
862.05	21785
862.183	21987
862.315	21930
862.447	22059
862.58	21854
862.712	21747
862.844	21637
862.976	21800
863.108	21709
863.24	22128
863.372	21682
863.504	21606
863.636	21576
863.768	21671
863.9	21549
864.032	21542
864.164	21545
864.296	21618
864.428	21709
864.559	21743
864.691	21793
864.823	21667
864.954	21545
865.086	21751
865.217	21766
865.349	21500
865.48	21511
865.612	21652
865.743	21690
865.875	21679
866.006	21504
866.137	21591
866.269	21622
866.4	21492
866.531	21443
866.662	21538
866.793	21572
866.924	21469
867.055	21496
867.186	21393
867.317	21492
867.448	21416
867.579	21496
867.71	21306
867.841	21374
867.972	21450
868.103	21492
868.233	21389
868.364	21500
868.495	21675
868.625	21724
868.756	21774
868.886	21591
869.017	21789
869.147	21888
869.278	21827
869.408	21865
869.539	21808
869.669	21728
869.799	21751
869.929	21880
870.06	21880
870.19	22021
870.32	22067
870.45	22070
870.58	22185
870.71	22150
870.84	22086
870.97	22196
871.1	22128
871.23	22344
871.36	22230
871.489	22169
871.619	22322
871.749	22291
871.879	22356
872.008	22481
872.138	22318
872.267	22291
872.397	22322
872.526	22059
872.656	22143
872.785	22173
872.915	22409
873.044	22500
873.173	22303
873.303	22402
873.432	22451
873.561	22421
873.69	22352
873.819	22413
873.948	22329
874.077	22325
874.206	22131
874.335	22329
874.464	22394
874.593	22653
874.722	22527
874.851	22656
874.979	22573
875.108	22599
875.237	22557
875.365	22398
875.494	22573
875.623	22538
875.751	22538
875.88	22649
876.008	22752
876.136	22801
876.265	22854
876.393	23044
876.521	23200
876.65	23018
876.778	22968
876.906	22881
877.034	22824
877.162	23010
877.29	22873
877.418	22953
877.546	23006
877.674	22949
877.802	22904
877.93	22915
878.058	22869
878.185	22835
878.313	22934
878.441	23003
878.568	22759
878.696	22999
878.824	22968
878.951	23022
879.079	23117
879.206	23128
879.333	23166
879.461	23014
879.588	23041
879.715	22915
879.842	23193
879.97	23025
880.097	22717
880.224	22698
880.351	22809
880.478	22679
880.605	22672
880.732	22748
880.859	22987
880.986	22736
881.112	22763
881.239	22649
881.366	22504
881.493	22344
881.619	22265
881.746	22310
881.872	22261
881.999	22276
882.125	22291
882.252	22367
882.378	22223
882.505	22325
882.631	22131
882.757	22021
882.883	22048
883.01	21983
883.136	21918
883.262	21922
883.388	21770
883.514	22093
883.64	22021
883.766	21766
883.892	21720
884.018	21941
884.143	21835
884.269	22036
884.395	21850
884.52	21610
884.646	21583
884.772	21473
884.897	21515
885.023	21637
885.148	21732
885.274	21709
885.399	21694
885.524	21637
885.65	21625
885.775	21629
885.9	21504
886.025	21709
886.15	21675
886.275	21667
886.4	21553
886.525	21614
886.65	21675
886.775	21443
886.9	21743
887.025	21918
887.149	21595
887.274	21367
887.399	21378
887.523	21443
887.648	21294
887.773	21363
887.897	21492
888.021	21469
888.146	21275
888.27	21481
888.395	21443
888.519	21488
888.643	21439
888.767	21401
888.891	21222
889.015	21123
889.139	21272
889.263	21233
889.387	21230
889.511	21466
889.635	21313
889.759	21184
889.883	21131
890.006	21188
890.13	21264
890.254	21108
890.377	21062
890.501	20921
890.624	20929
890.748	20883
890.871	20944
890.995	20712
891.118	20674
891.241	20781
891.364	20773
891.488	20853
891.611	20750
891.734	20705
891.857	20762
891.98	20811
892.103	20750
892.226	20830
892.349	20678
892.471	20530
892.594	20667
892.717	20693
892.839	20541
892.962	20750
893.085	20716
893.207	20609
893.33	20533
893.452	20564
893.575	20777
893.697	20651
893.819	20697
893.941	20899
894.064	20689
894.186	20556
894.308	20655
894.43	20826
894.552	20796
894.674	20625
894.796	20583
894.918	20552
895.04	20632
895.161	20613
895.283	20686
895.405	20473
895.526	20636
895.648	20617
895.769	20625
895.891	20655
896.012	20686
896.134	20651
896.255	20583
896.376	20598
896.498	20667
896.619	20739
896.74	20674
896.861	20609
896.982	20998
897.103	20986
897.224	20933
897.345	20902
897.466	20743
897.587	20819
897.708	20956
897.828	20887
897.949	20826
898.07	20640
898.19	20807
898.311	20937
898.431	20689
898.552	20883
898.672	20933
898.792	20823
898.913	20872
899.033	20667
899.153	20758
899.273	20617
899.393	20609
899.513	20621
899.633	20644
899.753	20636
899.873	20514
899.993	20629
900.113	20621
900.232	20492
900.352	20381
900.472	20423
900.591	20324
900.711	20431
900.83	20294
900.95	20423
901.069	20499
901.189	20210
901.308	20039
901.427	19955
901.546	19868
901.665	19906
901.784	19875
901.904	19750
902.023	19571
902.141	19419
902.26	19499
902.379	19639
902.498	19415
902.617	19430
902.735	19343
902.854	19422
902.973	19403
903.091	19019
903.21	19107
903.328	19038
903.446	19031
903.565	18939
903.683	18878
903.801	18848
903.919	18970
904.038	18741
904.156	18700
904.274	18726
904.392	18688
904.51	18688
904.627	18597
904.745	18681
904.863	18810
904.981	18467
905.098	18304
905.216	18285
905.334	18407
905.451	18350
905.569	18330
905.686	18357
905.803	18338
905.921	18117
906.038	18254
906.155	18220
906.272	18129
906.389	18091
906.506	17878
906.623	17855
906.74	17893
906.857	17802
906.974	17729
907.091	17870
907.208	17961
907.324	17878
907.441	17695
907.557	17592
907.674	17638
907.79	17474
907.907	17440
908.023	17642
908.139	17566
908.256	17532
908.372	17421
908.488	17337
908.604	17311
908.72	17277
908.836	17379
908.952	17334
909.068	17288
909.184	17501
909.3	17322
909.415	17311
909.531	17303
909.647	17029
909.762	17102
909.878	16946
909.993	17014
910.108	16942
910.224	16972
910.339	16934
910.454	16896
910.57	16782
910.685	16782
910.8	17121
910.915	16904
911.03	16801
911.145	16622
911.259	16535
911.374	16603
911.489	16500
911.604	16531
911.718	16421
911.833	16310
911.947	16204
912.062	16169
912.176	16265
912.291	16287
912.405	16367
912.519	16527
912.633	16584
912.748	16375
912.862	16325
912.976	16166
913.09	15915
913.204	16154
913.318	16097
913.431	16169
913.545	16128
913.659	16177
913.772	16090
913.886	15979
914	15888
914.113	15918
914.226	16154
914.34	15991
914.453	15846
914.566	15930
914.68	15789
914.793	15884
914.906	15515
915.019	15450
915.132	15447
915.245	15553
915.358	15523
915.47	15587
915.583	15504
915.696	15443
915.809	15564
915.921	15739
916.034	15580
916.146	15325
916.259	15386
916.371	15492
916.483	15450
916.595	15306
916.708	15355
916.82	15370
916.932	15298
917.044	15359
917.156	15294
917.268	15112
917.38	15252
917.491	15252
917.603	15230
917.715	15188
917.826	15233
917.938	15047
918.049	14982
918.161	15077
918.272	15256
918.384	15180
918.495	15131
918.606	14944
918.717	14902
918.828	14933
918.939	14895
919.05	14899
919.161	14872
919.272	14697
919.383	14758
919.494	14902
919.604	15051
919.715	14914
919.826	14807
919.936	14807
920.047	14956
920.157	14807
920.267	15081
920.378	14800
920.488	14845
920.598	14986
920.708	14998
920.818	15024
920.928	14986
921.038	15150
921.148	15070
921.258	14857
921.368	14804
921.477	14621
921.587	14667
921.697	14465
921.806	14575
921.916	14415
922.025	14298
922.134	14259
922.244	14259
922.353	14263
922.462	14100
922.571	14024
922.68	13814
922.789	13837
922.898	13906
923.007	13849
923.116	13944
923.224	13830
923.333	13963
923.442	13750
923.55	13776
923.659	13750
923.767	13715
923.876	13734
923.984	13651
924.092	13605
924.201	13704
924.309	13575
924.417	13552
924.525	13533
924.633	13529
924.741	14123
924.849	13308
924.956	13480
925.064	13285
925.172	13232
925.279	13308
925.387	13213
925.494	13270
925.602	13430
925.709	13308
925.816	13175
925.924	13244
926.031	13343
926.138	13164
926.245	13301
926.352	13095
926.459	13278
926.566	13331
926.673	13080
926.779	13000
926.886	12935
926.993	12909
927.099	12875
927.206	12795
927.312	12749
927.419	12863
927.525	12817
927.631	12772
927.737	12783
927.843	12707
927.95	12589
928.056	12635
928.162	12707
928.267	12768
928.373	13320
928.479	12776
928.585	12490
928.69	12509
928.796	12585
928.901	12585
929.007	12357
929.112	12494
929.218	12494
929.323	12426
929.428	12296
929.533	12414
929.638	12266
929.743	12319
929.848	12357
929.953	12330
930.058	12175
930.163	12034
930.267	12038
930.372	12178
930.477	11980
930.581	12167
930.685	12003
930.79	11992
930.894	11912
930.998	11798
931.103	12091
931.207	11672
931.311	11672
931.415	11535
931.519	11364
931.623	11235
