Data from test_V78500241_1200.txt Node
Date: Fri Mar 25 15:50:06 CST 2022
User: usil
Spectrometer: V785-0024
Trigger mode: 0
Integration Time (sec): 4.000000E-1
Scans to average: 1
Nonlinearity correction enabled: false
Boxcar width: 0
Storing dark spectrum: false
XAxis mode: Wavelengths
Number of Pixels in Spectrum: 1024
>>>>>Begin Spectral Data<<<<<
801.071	28691
801.214	28588
801.356	28367
801.499	28421
801.641	28238
801.783	28173
801.926	28158
802.068	28230
802.211	28078
802.353	28040
802.496	27892
802.638	27793
802.78	27876
802.923	27835
803.065	27819
803.208	27720
803.35	27953
803.492	28017
803.635	28067
803.777	28131
803.919	28150
804.061	28409
804.204	28204
804.346	28135
804.488	28101
804.63	27968
804.773	28040
804.915	28238
805.057	28268
805.199	28181
805.341	28291
805.483	28253
805.626	28249
805.768	28230
805.91	28291
806.052	28356
806.194	28268
806.336	28500
806.478	28295
806.62	28447
806.762	28440
806.904	28481
807.046	28923
807.188	28687
807.33	28691
807.472	28660
807.614	28675
807.756	28759
807.898	28725
808.04	28698
808.182	28649
808.324	28516
808.465	28675
808.607	28873
808.749	29140
808.891	29124
809.033	29178
809.174	28984
809.316	28946
809.458	28904
809.6	28873
809.741	29200
809.883	29117
810.025	29459
810.166	29151
810.308	29429
810.45	29318
810.591	29170
810.733	29052
810.875	29044
811.016	28961
811.158	28885
811.299	29159
811.441	29124
811.582	29269
811.724	28923
811.865	28946
812.007	28930
812.148	29083
812.29	29128
812.431	29208
812.573	29429
812.714	29414
812.855	29676
812.997	29627
813.138	29817
813.279	29699
813.421	29471
813.562	29535
813.703	29421
813.845	29280
813.986	29006
814.127	28805
814.268	28748
814.41	28809
814.551	28740
814.692	28805
814.833	28603
814.974	28752
815.115	28759
815.256	28649
815.397	28512
815.539	28645
815.68	28447
815.821	28485
815.962	28443
816.103	28451
816.244	28497
816.385	28440
816.526	28421
816.666	28070
816.807	28025
816.948	28154
817.089	28105
817.23	28120
817.371	28116
817.512	28101
817.653	28139
817.793	27907
817.934	27998
818.075	28139
818.216	28082
818.356	28078
818.497	27953
818.638	27774
818.778	27774
818.919	27876
819.06	27842
819.2	27945
819.341	28082
819.481	28013
819.622	28261
819.762	28314
819.903	28455
820.043	28306
820.184	28112
820.324	28238
820.465	28310
820.605	28276
820.746	28196
820.886	28067
821.026	28318
821.167	28105
821.307	28192
821.447	28131
821.588	28036
821.728	27854
821.868	27656
822.008	27545
822.149	27591
822.289	27580
822.429	27313
822.569	27161
822.709	27138
822.849	26967
822.99	27214
823.13	27013
823.27	26979
823.41	26895
823.55	26819
823.69	26910
823.83	26887
823.97	26834
824.11	26689
824.25	26594
824.389	26705
824.529	26853
824.669	26686
824.809	26826
824.949	26705
825.089	26739
825.228	26826
825.368	26579
825.508	26560
825.648	26598
825.787	26575
825.927	26689
826.067	26598
826.206	26598
826.346	26613
826.485	26541
826.625	26697
826.765	26632
826.904	26564
827.044	26362
827.183	26347
827.323	26275
827.462	26328
827.601	26313
827.741	26259
827.88	26218
828.02	26191
828.159	26142
828.298	26282
828.437	26450
828.577	26237
828.716	26370
828.855	26161
828.994	25966
829.134	25963
829.273	25982
829.412	25906
829.551	25951
829.69	25845
829.829	25887
829.968	25966
830.107	25993
830.246	25951
830.385	25864
830.524	25944
830.663	25704
830.802	25662
830.941	25575
831.08	25483
831.219	25723
831.357	25769
831.496	25852
831.635	25582
831.774	25582
831.913	25381
832.051	25369
832.19	25392
832.329	25339
832.467	25422
832.606	25095
832.744	25225
832.883	25209
833.022	25247
833.16	25289
833.299	25438
833.437	25346
833.576	25331
833.714	25327
833.852	25381
833.991	25346
834.129	25274
834.267	25457
834.406	25510
834.544	25297
834.682	25232
834.821	25236
834.959	25464
835.097	25255
835.235	25373
835.373	25289
835.511	25278
835.65	25202
835.788	25259
835.926	25080
836.064	24958
836.202	25088
836.34	25148
836.478	25259
836.615	25145
836.753	25190
836.891	25225
837.029	25118
837.167	25027
837.305	25076
837.443	24977
837.58	24966
837.718	25152
837.856	24973
837.993	24939
838.131	25008
838.269	24871
838.406	24897
838.544	24627
838.681	24612
838.819	24448
838.956	24555
839.094	24479
839.231	24445
839.369	24692
839.506	24920
839.643	24757
839.781	24342
839.918	24254
840.055	24433
840.193	24361
840.33	24418
840.467	24391
840.604	24384
840.742	24631
840.879	24182
841.016	24311
841.153	24197
841.29	24445
841.427	24342
841.564	24376
841.701	24357
841.838	24346
841.975	24194
842.112	24289
842.249	24186
842.385	24133
842.522	24266
842.659	24171
842.796	24057
842.933	24171
843.069	23908
843.206	24034
843.343	24091
843.479	24098
843.616	24182
843.752	23878
843.889	23794
844.025	24018
844.162	23836
844.298	23992
844.435	23847
844.571	23923
844.708	23939
844.844	23984
844.98	24117
845.117	24011
845.253	23737
845.389	23649
845.525	23756
845.661	23775
845.798	23512
845.934	23703
846.07	23509
846.206	23707
846.342	23760
846.478	23570
846.614	23349
846.75	23273
846.886	23307
847.022	23414
847.158	23326
847.294	23345
847.429	23299
847.565	23337
847.701	23531
847.837	22961
847.972	22923
848.108	23185
848.244	23178
848.379	22949
848.515	22953
848.65	22763
848.786	22961
848.921	22995
849.057	23090
849.192	23052
849.328	22968
849.463	22976
849.598	22896
849.734	22759
849.869	22778
850.004	22573
850.14	22721
850.275	22691
850.41	22512
850.545	22706
850.68	22584
850.815	22816
850.95	22721
851.085	22831
851.22	22782
851.355	22637
851.49	22694
851.625	22660
851.76	22664
851.895	22702
852.03	22656
852.165	22691
852.299	22729
852.434	22809
852.569	22622
852.703	22656
852.838	22698
852.973	22820
853.107	22755
853.242	22596
853.376	22653
853.511	22417
853.645	22459
853.78	22470
853.914	22542
854.048	22405
854.183	22527
854.317	22451
854.451	22679
854.585	22466
854.72	22447
854.854	22542
854.988	22481
855.122	22462
855.256	22424
855.39	22512
855.524	22519
855.658	22611
855.792	22417
855.926	22459
856.06	22546
856.194	22538
856.327	22478
856.461	22474
856.595	22390
856.729	22417
856.862	22611
856.996	22557
857.13	22497
857.263	22641
857.397	22554
857.53	22573
857.664	22596
857.797	22573
857.931	22599
858.064	22584
858.197	22550
858.331	22504
858.464	22329
858.597	22424
858.731	22531
858.864	22451
858.997	22443
859.13	22538
859.263	22538
859.396	22626
859.529	22424
859.662	22440
859.795	22417
859.928	22493
860.061	22618
860.194	22691
860.327	22588
860.46	22615
860.592	22531
860.725	22691
860.858	22592
860.99	22424
861.123	22417
861.256	22466
861.388	22466
861.521	23334
861.653	22379
861.786	22223
861.918	22268
862.05	22402
862.183	22367
862.315	22451
862.447	22428
862.58	22455
862.712	22097
862.844	22188
862.976	22276
863.108	22261
863.24	22710
863.372	22230
863.504	22215
863.636	22070
863.768	22181
863.9	22306
864.032	22063
864.164	22154
864.296	22139
864.428	22242
864.559	22265
864.691	22219
864.823	22204
864.954	22131
865.086	22196
865.217	22128
865.349	21918
865.48	22082
865.612	22021
865.743	22086
865.875	22029
866.006	22032
866.137	22109
866.269	22124
866.4	22078
866.531	22074
866.662	21998
866.793	22006
866.924	22029
867.055	22150
867.186	21998
867.317	22051
867.448	21895
867.579	22025
867.71	21937
867.841	21850
867.972	22101
868.103	22059
868.233	22029
868.364	22105
868.495	22074
868.625	22238
868.756	22265
868.886	22154
869.017	22200
869.147	22344
869.278	22246
869.408	22424
869.539	22188
869.669	22348
869.799	22318
869.929	22310
870.06	22310
870.19	22523
870.32	22519
870.45	22588
870.58	22622
870.71	22698
870.84	22805
870.97	22603
871.1	22706
871.23	22771
871.36	22702
871.489	22771
871.619	22812
871.749	22839
871.879	22869
872.008	22942
872.138	22721
872.267	22869
872.397	22653
872.526	22649
872.656	22774
872.785	22725
872.915	22854
873.044	22908
873.173	22927
873.303	22957
873.432	22923
873.561	22923
873.69	22866
873.819	22873
873.948	22968
874.077	22797
874.206	22790
874.335	22797
874.464	23003
874.593	23109
874.722	22847
874.851	23105
874.979	23075
875.108	23117
875.237	23067
875.365	22991
875.494	23022
875.623	23113
875.751	23025
875.88	23094
876.008	23258
876.136	23178
876.265	23547
876.393	23657
876.521	23440
876.65	23551
876.778	23433
876.906	23402
877.034	23455
877.162	23284
877.29	23307
877.418	23360
877.546	23417
877.674	23296
877.802	23471
877.93	23376
878.058	23261
878.185	23387
878.313	23379
878.441	23505
878.568	23250
878.696	23372
878.824	23334
878.951	23379
879.079	23687
879.206	23585
879.333	23570
879.461	23410
879.588	23512
879.715	23573
879.842	23733
879.97	23501
880.097	23220
880.224	23189
880.351	23288
880.478	23223
880.605	23212
880.732	23155
880.859	23379
880.986	23212
881.112	23181
881.239	22999
881.366	22915
881.493	22908
881.619	22824
881.746	22839
881.872	22599
881.999	22740
882.125	22687
882.252	22740
882.378	22710
882.505	22896
882.631	22599
882.757	22573
882.883	22516
883.01	22557
883.136	22500
883.262	22276
883.388	22276
883.514	22500
883.64	22489
883.766	22443
883.892	22226
884.018	22306
884.143	22360
884.269	22417
884.395	22223
884.52	22044
884.646	22154
884.772	22055
884.897	21926
885.023	22067
885.148	22234
885.274	22276
885.399	22090
885.524	22082
885.65	22150
885.775	22086
885.9	22147
886.025	22101
886.15	22238
886.275	22044
886.4	21972
886.525	22086
886.65	21934
886.775	21975
886.9	22181
887.025	22226
887.149	21964
887.274	21876
887.399	21895
887.523	21964
887.648	21732
887.773	21781
887.897	21854
888.021	21945
888.146	21743
888.27	21899
888.395	21987
888.519	21812
888.643	21873
888.767	21934
888.891	21781
889.015	21557
889.139	21747
889.263	21534
889.387	21694
889.511	21835
889.635	21823
889.759	21576
889.883	21629
890.006	21572
890.13	21739
890.254	21492
890.377	21526
890.501	21382
890.624	21363
890.748	21504
890.871	21294
890.995	21184
891.118	21108
891.241	21275
891.364	21108
891.488	21211
891.611	21154
891.734	21230
891.857	21272
891.98	21146
892.103	21131
892.226	21138
892.349	21070
892.471	20891
892.594	21066
892.717	21017
892.839	21032
892.962	21020
893.085	21138
893.207	21089
893.33	20918
893.452	20971
893.575	21093
893.697	20998
893.819	21138
893.941	21317
894.064	21119
894.186	21039
894.308	20914
894.43	21180
894.552	21119
894.674	21157
894.796	20921
894.918	21028
895.04	21013
895.161	21070
895.283	21036
895.405	20967
895.526	21089
895.648	20956
895.769	21036
895.891	20986
896.012	21298
896.134	21047
896.255	21131
896.376	21047
896.498	21036
896.619	20990
896.74	21100
896.861	21180
896.982	21287
897.103	21420
897.224	21378
897.345	21355
897.466	21207
897.587	21226
897.708	21408
897.828	21264
897.949	21226
898.07	21089
898.19	21112
898.311	21431
898.431	21135
898.552	21211
898.672	21165
898.792	21351
898.913	21249
899.033	21218
899.153	21077
899.273	20967
899.393	21081
899.513	21066
899.633	20960
899.753	21047
899.873	20914
899.993	21020
900.113	20891
900.232	21013
900.352	20963
900.472	20826
900.591	20693
900.711	20815
900.83	20743
900.95	20811
901.069	20880
901.189	20625
901.308	20431
901.427	20366
901.546	20294
901.665	20347
901.784	20240
901.904	20168
902.023	20035
902.141	19928
902.26	19791
902.379	19951
902.498	19849
902.617	19742
902.735	19803
902.854	19708
902.973	19731
903.091	19491
903.21	19502
903.328	19430
903.446	19278
903.565	19228
903.683	19259
903.801	19114
903.919	19327
904.038	19198
904.156	19065
904.274	19168
904.392	19050
904.51	19031
904.627	19069
904.745	19053
904.863	19251
904.981	18894
905.098	18692
905.216	18738
905.334	18787
905.451	18738
905.569	18795
905.686	18703
905.803	18753
905.921	18589
906.038	18608
906.155	18445
906.272	18441
906.389	18429
906.506	18292
906.623	18308
906.74	18194
906.857	18136
906.974	18292
907.091	18216
907.208	18330
907.324	18254
907.441	18129
907.557	17977
907.674	18026
907.79	17866
907.907	18034
908.023	17885
908.139	18136
908.256	17882
908.372	17889
908.488	17832
908.604	17767
908.72	17615
908.836	17649
908.952	17672
909.068	17619
909.184	17726
909.3	17535
909.415	17764
909.531	17551
909.647	17360
909.762	17387
909.878	17368
909.993	17406
910.108	17147
910.224	17220
910.339	17265
910.454	17204
910.57	17094
910.685	17052
910.8	17360
910.915	17417
911.03	17083
911.145	17033
911.259	16911
911.374	16976
911.489	16927
911.604	16755
911.718	16717
911.833	16584
911.947	16603
912.062	16394
912.176	16706
912.291	16618
912.405	16752
912.519	16771
912.633	16771
912.748	16694
912.862	16603
912.976	16500
913.09	16455
913.204	16474
913.318	16417
913.431	16474
913.545	16504
913.659	16630
913.772	16470
913.886	16341
914	16234
914.113	16253
914.226	16443
914.34	16303
914.453	16071
914.566	16280
914.68	16185
914.793	16154
914.906	15975
915.019	15873
915.132	15854
915.245	15827
915.358	15892
915.47	15911
915.583	15800
915.696	15831
915.809	15960
915.921	16040
916.034	15739
916.146	15797
916.259	15759
916.371	15922
916.483	15846
916.595	15732
916.708	15564
916.82	15610
916.932	15595
917.044	15663
917.156	15671
917.268	15469
917.38	15519
917.491	15511
917.603	15519
917.715	15538
917.826	15572
917.938	15397
918.049	15336
918.161	15428
918.272	15504
918.384	15519
918.495	15428
918.606	15245
918.717	15161
918.828	15230
918.939	15268
919.05	15192
919.161	15184
919.272	15032
919.383	15047
919.494	15154
919.604	15416
919.715	15199
919.826	15135
919.936	15142
920.047	15279
920.157	15192
920.267	15310
920.378	15245
920.488	15245
920.598	15214
920.708	15568
920.818	15108
920.928	15180
921.038	15488
921.148	15469
921.258	15116
921.368	14937
921.477	14826
921.587	14861
921.697	14724
921.806	14910
921.916	14758
922.025	14560
922.134	14495
922.244	14427
922.353	14571
922.462	14396
922.571	14240
922.68	14271
922.789	14191
922.898	14237
923.007	14043
923.116	14187
923.224	14123
923.333	14100
923.442	14043
923.55	13906
923.659	14008
923.767	13967
923.876	13856
923.984	13986
924.092	13913
924.201	13921
924.309	13917
924.417	13871
924.525	13715
924.633	13818
924.741	14617
924.849	13563
924.956	13704
925.064	13620
925.172	13514
925.279	13559
925.387	13578
925.494	13415
925.602	13738
925.709	13578
925.816	13453
925.924	13518
926.031	13639
926.138	13476
926.245	13529
926.352	13377
926.459	13457
926.566	13597
926.673	13407
926.779	13187
926.886	13213
926.993	13168
927.099	13080
927.206	13015
927.312	13042
927.419	13141
927.525	13057
927.631	13038
927.737	12973
927.843	12989
927.95	12886
928.056	12924
928.162	13004
928.267	12989
928.373	13601
928.479	12981
928.585	12696
928.69	12890
928.796	12840
928.901	12722
929.007	12582
929.112	12745
929.218	12703
929.323	12715
929.428	12631
929.533	12665
929.638	12578
929.743	12513
929.848	12623
929.953	12521
930.058	12429
930.163	12308
930.267	12281
930.372	12365
930.477	12258
930.581	12506
930.685	12315
930.79	12136
930.894	12190
930.998	12117
931.103	12304
931.207	11939
931.311	11760
931.415	11805
931.519	11547
931.623	11455
