Data from test_V78500241_3029.txt Node
Date: Fri Mar 25 16:02:47 CST 2022
User: usil
Spectrometer: V785-0024
Trigger mode: 0
Integration Time (sec): 4.000000E-1
Scans to average: 1
Nonlinearity correction enabled: false
Boxcar width: 0
Storing dark spectrum: false
XAxis mode: Wavelengths
Number of Pixels in Spectrum: 1024
>>>>>Begin Spectral Data<<<<<
801.071	28717
801.214	28660
801.356	28413
801.499	28470
801.641	28329
801.783	28276
801.926	28360
802.068	28337
802.211	28181
802.353	28036
802.496	28006
802.638	27797
802.78	27888
802.923	27918
803.065	27918
803.208	27937
803.35	27975
803.492	28143
803.635	28147
803.777	27983
803.919	28017
804.061	28596
804.204	28200
804.346	28010
804.488	28093
804.63	28192
804.773	28238
804.915	28257
805.057	28356
805.199	28299
805.341	28204
805.483	28268
805.626	28379
805.768	28268
805.91	28455
806.052	28306
806.194	28280
806.336	28557
806.478	28417
806.62	28401
806.762	28596
806.904	28573
807.046	28968
807.188	28805
807.33	28778
807.472	28809
807.614	28706
807.756	28706
807.898	28691
808.04	28573
808.182	28656
808.324	28797
808.465	28850
808.607	28980
808.749	29136
808.891	28942
809.033	29250
809.174	29083
809.316	28968
809.458	29022
809.6	29079
809.741	29060
809.883	29292
810.025	29345
810.166	29398
810.308	29429
810.45	29292
810.591	29147
810.733	29235
810.875	29060
811.016	28991
811.158	28885
811.299	29220
811.441	29242
811.582	29105
811.724	29041
811.865	28888
812.007	29102
812.148	29067
812.29	29242
812.431	29330
812.573	29315
812.714	29520
812.855	29726
812.997	29638
813.138	29901
813.279	29836
813.421	29570
813.562	29474
813.703	29444
813.845	29311
813.986	29124
814.127	28892
814.268	28809
814.41	28911
814.551	28725
814.692	28771
814.833	28664
814.974	28687
815.115	28809
815.256	28687
815.397	28618
815.539	28634
815.68	28500
815.821	28577
815.962	28516
816.103	28466
816.244	28489
816.385	28401
816.526	28318
816.666	28150
816.807	28010
816.948	28169
817.089	28306
817.23	28112
817.371	28025
817.512	28006
817.653	27979
817.793	27975
817.934	28063
818.075	28097
818.216	28101
818.356	28177
818.497	28002
818.638	27949
818.778	27895
818.919	27793
819.06	27762
819.2	27857
819.341	27838
819.481	28173
819.622	28192
819.762	28470
819.903	28424
820.043	28337
820.184	28230
820.324	28196
820.465	28314
820.605	28265
820.746	28131
820.886	28059
821.026	28124
821.167	28036
821.307	28344
821.447	28086
821.588	28086
821.728	27857
821.868	27762
822.008	27557
822.149	27576
822.289	27538
822.429	27207
822.569	27214
822.709	27382
822.849	27093
822.99	26975
823.13	26986
823.27	27043
823.41	26895
823.55	26765
823.69	26975
823.83	26998
823.97	26887
824.11	26895
824.25	26731
824.389	26842
824.529	26712
824.669	26724
824.809	26800
824.949	26891
825.089	26792
825.228	26739
825.368	26594
825.508	26526
825.648	26663
825.787	26613
825.927	26800
826.067	26602
826.206	26651
826.346	26674
826.485	26834
826.625	26746
826.765	26594
826.904	26682
827.044	26446
827.183	26301
827.323	26275
827.462	26374
827.601	26393
827.741	26317
827.88	26339
828.02	26355
828.159	26324
828.298	26267
828.437	26328
828.577	26183
828.716	26453
828.855	26278
828.994	26115
829.134	26100
829.273	26103
829.412	25993
829.551	25978
829.69	26005
829.829	26039
829.968	26153
830.107	26077
830.246	25963
830.385	25902
830.524	25986
830.663	25833
830.802	25708
830.941	25639
831.08	25700
831.219	25791
831.357	25712
831.496	25864
831.635	25620
831.774	25499
831.913	25502
832.051	25373
832.19	25419
832.329	25586
832.467	25400
832.606	25274
832.744	25285
832.883	25293
833.022	25381
833.16	25308
833.299	25320
833.437	25365
833.576	25449
833.714	25240
833.852	25396
833.991	25377
834.129	25308
834.267	25331
834.406	25495
834.544	25464
834.682	25297
834.821	25270
834.959	25483
835.097	25091
835.235	25434
835.373	25377
835.511	25403
835.65	25042
835.788	25194
835.926	24981
836.064	24867
836.202	25114
836.34	25156
836.478	25331
836.615	25137
836.753	25335
836.891	25206
837.029	25133
837.167	25129
837.305	24992
837.443	25209
837.58	24954
837.718	25095
837.856	25088
837.993	24928
838.131	24970
838.269	24783
838.406	24939
838.544	24894
838.681	24711
838.819	24467
838.956	24372
839.094	24437
839.231	24414
839.369	24646
839.506	24768
839.643	24639
839.781	24391
839.918	24467
840.055	24441
840.193	24273
840.33	24285
840.467	24464
840.604	24342
840.742	24589
840.879	24323
841.016	24292
841.153	24216
841.29	24376
841.427	24285
841.564	24418
841.701	24281
841.838	24407
841.975	24304
842.112	24319
842.249	24243
842.385	24083
842.522	24441
842.659	24319
842.796	24163
842.933	24114
843.069	24171
843.206	24129
843.343	24079
843.479	24133
843.616	24041
843.752	23901
843.889	23878
844.025	24083
844.162	23927
844.298	24068
844.435	23866
844.571	23878
844.708	23935
844.844	24102
844.98	24030
845.117	23988
845.253	23821
845.389	23745
845.525	23863
845.661	23756
845.798	23535
845.934	23649
846.07	23646
846.206	23661
846.342	23642
846.478	23657
846.614	23509
846.75	23299
846.886	23356
847.022	23471
847.158	23440
847.294	23341
847.429	23436
847.565	23356
847.701	23573
847.837	23048
847.972	23056
848.108	23052
848.244	23235
848.379	23083
848.515	22915
848.65	22869
848.786	22980
848.921	22995
849.057	22949
849.192	23003
849.328	22923
849.463	22866
849.598	22984
849.734	22816
849.869	22816
850.004	22660
850.14	22763
850.275	22660
850.41	22653
850.545	22630
850.68	22580
850.815	22694
850.95	22752
851.085	22843
851.22	22820
851.355	22736
851.49	22721
851.625	22710
851.76	22645
851.895	22493
852.03	22580
852.165	22630
852.299	22637
852.434	22626
852.569	22725
852.703	22809
852.838	22839
852.973	22877
853.107	22698
853.242	22599
853.376	22607
853.511	22531
853.645	22504
853.78	22516
853.914	22497
854.048	22546
854.183	22538
854.317	22687
854.451	22725
854.585	22668
854.72	22618
854.854	22580
854.988	22455
855.122	22542
855.256	22428
855.39	22538
855.524	22656
855.658	22409
855.792	22413
855.926	22447
856.06	22535
856.194	22584
856.327	22443
856.461	22417
856.595	22440
856.729	22546
856.862	22668
856.996	22527
857.13	22622
857.263	22580
857.397	22630
857.53	22523
857.664	22649
857.797	22675
857.931	22717
858.064	22569
858.197	22679
858.331	22466
858.464	22538
858.597	22478
858.731	22394
858.864	22421
858.997	22424
859.13	22428
859.263	22470
859.396	22615
859.529	22561
859.662	22535
859.795	22363
859.928	22382
860.061	22542
860.194	22744
860.327	22577
860.46	22675
860.592	22626
860.725	22771
860.858	22694
860.99	22504
861.123	22375
861.256	22546
861.388	22542
861.521	23315
861.653	22390
861.786	22371
861.918	22398
862.05	22596
862.183	22421
862.315	22424
862.447	22573
862.58	22455
862.712	22276
862.844	22303
862.976	22352
863.108	22394
863.24	22649
863.372	22211
863.504	22181
863.636	22242
863.768	22314
863.9	22284
864.032	22169
864.164	22261
864.296	22219
864.428	22394
864.559	22211
864.691	22280
864.823	22196
864.954	22238
865.086	22147
865.217	22147
865.349	22044
865.48	22181
865.612	22010
865.743	22238
865.875	22063
866.006	22040
866.137	21998
866.269	22074
866.4	22147
866.531	22044
866.662	22143
866.793	22013
866.924	22055
867.055	22086
867.186	22059
867.317	22032
867.448	21983
867.579	22063
867.71	21941
867.841	21972
867.972	22063
868.103	21994
868.233	22036
868.364	22032
868.495	22215
868.625	22268
868.756	22295
868.886	22230
869.017	22234
869.147	22375
869.278	22394
869.408	22322
869.539	22200
869.669	22382
869.799	22325
869.929	22481
870.06	22310
870.19	22603
870.32	22538
870.45	22519
870.58	22618
870.71	22843
870.84	22702
870.97	22599
871.1	22679
871.23	22923
871.36	22896
871.489	22748
871.619	22820
871.749	22949
871.879	22904
872.008	22972
872.138	22847
872.267	22923
872.397	22771
872.526	22748
872.656	22809
872.785	22710
872.915	22972
873.044	22858
873.173	23025
873.303	22957
873.432	23044
873.561	23067
873.69	22900
873.819	22839
873.948	22908
874.077	22793
874.206	22885
874.335	22816
874.464	23048
874.593	23086
874.722	23132
874.851	23204
874.979	23189
875.108	23200
875.237	23113
875.365	23037
875.494	23124
875.623	23185
875.751	23155
875.88	23162
876.008	23303
876.136	23349
876.265	23581
876.393	23592
876.521	23596
876.65	23604
876.778	23528
876.906	23493
877.034	23570
877.162	23448
877.29	23474
877.418	23448
877.546	23421
877.674	23467
877.802	23478
877.93	23395
878.058	23311
878.185	23330
878.313	23349
878.441	23398
878.568	23277
878.696	23326
878.824	23474
878.951	23471
879.079	23653
879.206	23748
879.333	23573
879.461	23573
879.588	23516
879.715	23596
879.842	23824
879.97	23589
880.097	23296
880.224	23292
880.351	23284
880.478	23231
880.605	23250
880.732	23227
880.859	23543
880.986	23299
881.112	23227
881.239	23117
881.366	22908
881.493	23037
881.619	22767
881.746	22801
881.872	22889
881.999	22820
882.125	22771
882.252	22965
882.378	22835
882.505	22915
882.631	22634
882.757	22497
882.883	22519
883.01	22523
883.136	22538
883.262	22325
883.388	22398
883.514	22462
883.64	22546
883.766	22478
883.892	22386
884.018	22325
884.143	22318
884.269	22493
884.395	22253
884.52	22131
884.646	22185
884.772	22128
884.897	21937
885.023	22177
885.148	22276
885.274	22246
885.399	22131
885.524	22150
885.65	22177
885.775	22215
885.9	22010
886.025	22166
886.15	22238
886.275	22044
886.4	22109
886.525	22093
886.65	21934
886.775	21975
886.9	22253
887.025	22455
887.149	22082
887.274	21884
887.399	21918
887.523	21918
887.648	21819
887.773	21835
887.897	21964
888.021	21842
888.146	21903
888.27	21899
888.395	22021
888.519	21888
888.643	21812
888.767	21876
888.891	21880
889.015	21663
889.139	21770
889.263	21652
889.387	21774
889.511	21861
889.635	21778
889.759	21759
889.883	21644
890.006	21781
890.13	21785
890.254	21564
890.377	21450
890.501	21431
890.624	21344
890.748	21507
890.871	21283
890.995	21226
891.118	21233
891.241	21237
891.364	21359
891.488	21313
891.611	21195
891.734	21264
891.857	21332
891.98	21218
892.103	21169
892.226	21279
892.349	21157
892.471	21112
892.594	21085
892.717	21127
892.839	21108
892.962	21222
893.085	21275
893.207	21119
893.33	20963
893.452	21020
893.575	21161
893.697	21051
893.819	21127
893.941	21302
894.064	21264
894.186	21100
894.308	21119
894.43	21146
894.552	21283
894.674	21131
894.796	21024
894.918	21089
895.04	21218
895.161	21123
895.283	21214
895.405	21077
895.526	21032
895.648	21028
895.769	21146
895.891	21108
896.012	21241
896.134	21135
896.255	21241
896.376	21070
896.498	21051
896.619	21192
896.74	21047
896.861	21135
896.982	21302
897.103	21595
897.224	21496
897.345	21317
897.466	21275
897.587	21306
897.708	21374
897.828	21302
897.949	21123
898.07	21161
898.19	21226
898.311	21389
898.431	21207
898.552	21291
898.672	21325
898.792	21386
898.913	21393
899.033	21176
899.153	21180
899.273	21001
899.393	21104
899.513	21123
899.633	20941
899.753	21036
899.873	21047
899.993	21066
900.113	21039
900.232	20975
900.352	20982
900.472	20887
900.591	20876
900.711	20880
900.83	20689
900.95	20762
901.069	20746
901.189	20663
901.308	20492
901.427	20385
901.546	20332
901.665	20313
901.784	20339
901.904	20161
902.023	20100
902.141	19879
902.26	19921
902.379	20027
902.498	19967
902.617	19811
902.735	19974
902.854	19887
902.973	19723
903.091	19502
903.21	19502
903.328	19506
903.446	19468
903.565	19384
903.683	19270
903.801	19270
903.919	19274
904.038	19209
904.156	19148
904.274	19194
904.392	19145
904.51	19000
904.627	19103
904.745	19050
904.863	19179
904.981	18840
905.098	18837
905.216	18810
905.334	18787
905.451	18776
905.569	18783
905.686	18817
905.803	18707
905.921	18536
906.038	18715
906.155	18589
906.272	18441
906.389	18429
906.506	18254
906.623	18289
906.74	18182
906.857	18129
906.974	18098
907.091	18315
907.208	18403
907.324	18285
907.441	18114
907.557	18060
907.674	18038
907.79	17996
907.907	17901
908.023	18034
908.139	18041
908.256	17923
908.372	17893
908.488	17935
908.604	17752
908.72	17699
908.836	17786
908.952	17684
909.068	17699
909.184	17779
909.3	17680
909.415	17665
909.531	17680
909.647	17334
909.762	17345
909.878	17364
909.993	17402
910.108	17345
910.224	17318
910.339	17471
910.454	17341
910.57	17212
910.685	17151
910.8	17277
910.915	17315
911.03	17193
911.145	17045
911.259	16965
911.374	16968
911.489	16885
911.604	16797
911.718	16706
911.833	16771
911.947	16725
912.062	16379
912.176	16717
912.291	16691
912.405	16668
912.519	16953
912.633	16900
912.748	16691
912.862	16767
912.976	16550
913.09	16417
913.204	16558
913.318	16500
913.431	16516
913.545	16531
913.659	16653
913.772	16478
913.886	16325
914	16291
914.113	16523
914.226	16402
914.34	16341
914.453	16238
914.566	16287
914.68	16204
914.793	16112
914.906	16055
915.019	16010
915.132	15789
915.245	15934
915.358	15835
915.47	15842
915.583	15892
915.696	15888
915.809	15937
915.921	16013
916.034	15804
916.146	15800
916.259	15846
916.371	15895
916.483	15812
916.595	15660
916.708	15709
916.82	15755
916.932	15698
917.044	15713
917.156	15644
917.268	15568
917.38	15534
917.491	15504
917.603	15534
917.715	15595
917.826	15587
917.938	15500
918.049	15287
918.161	15408
918.272	15553
918.384	15599
918.495	15519
918.606	15382
918.717	15161
918.828	15306
918.939	15348
919.05	15085
919.161	15294
919.272	15009
919.383	15161
919.494	15294
919.604	15443
919.715	15230
919.826	15093
919.936	15112
920.047	15245
920.157	15260
920.267	15370
920.378	15317
920.488	15154
920.598	15397
920.708	15519
920.818	15332
920.928	15321
921.038	15515
921.148	15523
921.258	15146
921.368	15020
921.477	14967
921.587	14918
921.697	14876
921.806	14883
921.916	14777
922.025	14632
922.134	14518
922.244	14560
922.353	14564
922.462	14355
922.571	14298
922.68	14210
922.789	14244
922.898	14191
923.007	14206
923.116	14282
923.224	14244
923.333	14126
923.442	14039
923.55	14027
923.659	14016
923.767	14012
923.876	13932
923.984	14065
924.092	13871
924.201	14008
924.309	13978
924.417	13845
924.525	13951
924.633	13807
924.741	14670
924.849	13704
924.956	13700
925.064	13597
925.172	13540
925.279	13529
925.387	13590
925.494	13597
925.602	13746
925.709	13605
925.816	13411
925.924	13514
926.031	13616
926.138	13525
926.245	13586
926.352	13460
926.459	13571
926.566	13590
926.673	13491
926.779	13301
926.886	13293
926.993	13190
927.099	13129
927.206	13046
927.312	13095
927.419	13122
927.525	13168
927.631	13145
927.737	13034
927.843	12894
927.95	12909
928.056	12939
928.162	12905
928.267	12916
928.373	13480
928.479	12935
928.585	12776
928.69	12829
928.796	12928
928.901	12776
929.007	12673
929.112	12776
929.218	12779
929.323	12730
929.428	12684
929.533	12852
929.638	12677
929.743	12578
929.848	12646
929.953	12604
930.058	12513
930.163	12315
930.267	12350
930.372	12471
930.477	12224
930.581	12483
930.685	12327
930.79	12182
930.894	12235
930.998	12148
931.103	12266
931.207	11961
931.311	11931
931.415	11764
931.519	11512
931.623	11627
