Data from test_V78500241_3648.txt Node
Date: Fri Mar 25 16:07:04 CST 2022
User: usil
Spectrometer: V785-0024
Trigger mode: 0
Integration Time (sec): 4.000000E-1
Scans to average: 1
Nonlinearity correction enabled: false
Boxcar width: 0
Storing dark spectrum: false
XAxis mode: Wavelengths
Number of Pixels in Spectrum: 1024
>>>>>Begin Spectral Data<<<<<
801.071	28287
801.214	28200
801.356	28101
801.499	28090
801.641	27857
801.783	27774
801.926	27751
802.068	27941
802.211	27648
802.353	27686
802.496	27713
802.638	27462
802.78	27367
802.923	27473
803.065	27348
803.208	27447
803.35	27557
803.492	27618
803.635	27595
803.777	27644
803.919	27751
804.061	28029
804.204	27755
804.346	27591
804.488	27504
804.63	27755
804.773	27705
804.915	27701
805.057	27911
805.199	27751
805.341	27808
805.483	27903
805.626	27846
805.768	27709
805.91	27774
806.052	27831
806.194	27823
806.336	27991
806.478	27899
806.62	27888
806.762	28139
806.904	28196
807.046	28382
807.188	28325
807.33	28280
807.472	28417
807.614	28268
807.756	28310
807.898	28135
808.04	28124
808.182	28181
808.324	28109
808.465	28166
808.607	28291
808.749	28588
808.891	28687
809.033	28653
809.174	28527
809.316	28538
809.458	28500
809.6	28379
809.741	28512
809.883	28778
810.025	28835
810.166	28717
810.308	28683
810.45	28679
810.591	28679
810.733	28508
810.875	28550
811.016	28523
811.158	28367
811.299	28649
811.441	28653
811.582	28634
811.724	28542
811.865	28603
812.007	28493
812.148	28504
812.29	28538
812.431	28843
812.573	28946
812.714	29041
812.855	29083
812.997	29269
813.138	29181
813.279	29064
813.421	29056
813.562	28942
813.703	28793
813.845	28729
813.986	28550
814.127	28401
814.268	28276
814.41	28265
814.551	28154
814.692	28295
814.833	28128
814.974	28234
815.115	28223
815.256	28139
815.397	28261
815.539	28101
815.68	28063
815.821	27926
815.962	28093
816.103	27964
816.244	27949
816.385	27964
816.526	27755
816.666	27610
816.807	27545
816.948	27667
817.089	27816
817.23	27568
817.371	27504
817.512	27542
817.653	27447
817.793	27530
817.934	27458
818.075	27454
818.216	27564
818.356	27603
818.497	27435
818.638	27230
818.778	27256
818.919	27332
819.06	27336
819.2	27473
819.341	27534
819.481	27473
819.622	27675
819.762	27854
819.903	27827
820.043	27523
820.184	27873
820.324	27660
820.465	27755
820.605	27732
820.746	27595
820.886	27603
821.026	27538
821.167	27530
821.307	27747
821.447	27408
821.588	27363
821.728	27317
821.868	27112
822.008	27104
822.149	26933
822.289	27009
822.429	26746
822.569	26754
822.709	26765
822.849	26511
822.99	26594
823.13	26408
823.27	26377
823.41	26370
823.55	26103
823.69	26366
823.83	26549
823.97	26153
824.11	26100
824.25	26043
824.389	26020
824.529	26233
824.669	26252
824.809	26187
824.949	26370
825.089	26180
825.228	26218
825.368	26005
825.508	25936
825.648	25928
825.787	26027
825.927	26122
826.067	26046
826.206	25978
826.346	26077
826.485	26027
826.625	26031
826.765	26282
826.904	26221
827.044	25700
827.183	25837
827.323	25651
827.462	25860
827.601	25799
827.741	25788
827.88	25750
828.02	25571
828.159	25811
828.298	25780
828.437	25852
828.577	25670
828.716	25750
828.855	25658
828.994	25457
829.134	25487
829.273	25514
829.412	25464
829.551	25377
829.69	25388
829.829	25403
829.968	25426
830.107	25529
830.246	25499
830.385	25369
830.524	25403
830.663	25381
830.802	25099
830.941	24996
831.08	24954
831.219	25034
831.357	25129
831.496	25354
831.635	24901
831.774	25015
831.913	24901
832.051	24745
832.19	24787
832.329	24913
832.467	24681
832.606	24726
832.744	24574
832.883	24772
833.022	24734
833.16	24741
833.299	24821
833.437	24753
833.576	24795
833.714	24817
833.852	24901
833.991	24932
834.129	24738
834.267	24798
834.406	24852
834.544	24829
834.682	24840
834.821	24856
834.959	25031
835.097	24646
835.235	24829
835.373	24776
835.511	24932
835.65	24650
835.788	24570
835.926	24490
836.064	24513
836.202	24369
836.34	24749
836.478	24760
836.615	24631
836.753	24650
836.891	24555
837.029	24684
837.167	24479
837.305	24547
837.443	24418
837.58	24490
837.718	24604
837.856	24563
837.993	24357
838.131	24452
838.269	24315
838.406	24323
838.544	24201
838.681	24125
838.819	24140
838.956	23882
839.094	24007
839.231	23908
839.369	23916
839.506	24315
839.643	24144
839.781	23840
839.918	23783
840.055	23783
840.193	23847
840.33	23802
840.467	23912
840.604	23908
840.742	24110
840.879	23630
841.016	23722
841.153	23657
841.29	23836
841.427	23764
841.564	23946
841.701	23802
841.838	23737
841.975	23741
842.112	23752
842.249	23729
842.385	23573
842.522	23866
842.659	23577
842.796	23608
842.933	23573
843.069	23345
843.206	23398
843.343	23577
843.479	23604
843.616	23600
843.752	23398
843.889	23368
844.025	23535
844.162	23322
844.298	23273
844.435	23402
844.571	23337
844.708	23334
844.844	23573
844.98	23493
845.117	23429
845.253	23258
845.389	23315
845.525	23235
845.661	23155
845.798	23113
845.934	23216
846.07	23170
846.206	23193
846.342	23197
846.478	23102
846.614	22953
846.75	22873
846.886	22809
847.022	22877
847.158	22687
847.294	22744
847.429	22847
847.565	22911
847.701	22828
847.837	22561
847.972	22561
848.108	22527
848.244	22634
848.379	22409
848.515	22417
848.65	22348
848.786	22356
848.921	22417
849.057	22641
849.192	22428
849.328	22390
849.463	22413
849.598	22402
849.734	22375
849.869	22173
850.004	22048
850.14	22188
850.275	22348
850.41	22154
850.545	22067
850.68	22181
850.815	22078
850.95	22192
851.085	22428
851.22	22207
851.355	22169
851.49	22143
851.625	22219
851.76	22154
851.895	22124
852.03	22086
852.165	22211
852.299	22257
852.434	22196
852.569	22295
852.703	22200
852.838	22291
852.973	22185
853.107	22280
853.242	22124
853.376	21956
853.511	21987
853.645	21918
853.78	22128
853.914	21998
854.048	22013
854.183	22013
854.317	22055
854.451	22147
854.585	22048
854.72	21903
854.854	22143
854.988	21915
855.122	22036
855.256	21808
855.39	21998
855.524	22040
855.658	22040
855.792	21911
855.926	21987
856.06	22029
856.194	22006
856.327	22036
856.461	21926
856.595	21934
856.729	22006
856.862	22154
856.996	22097
857.13	21979
857.263	22086
857.397	22120
857.53	22025
857.664	21968
857.797	21998
857.931	22177
858.064	21991
858.197	22090
858.331	21975
858.464	22097
858.597	21934
858.731	21972
858.864	21934
858.997	21960
859.13	21892
859.263	22067
859.396	22059
859.529	22101
859.662	21895
859.795	21945
859.928	21987
860.061	22249
860.194	22166
860.327	22090
860.46	21941
860.592	22215
860.725	22063
860.858	21998
860.99	22093
861.123	21922
861.256	21876
861.388	21827
861.521	22763
861.653	21922
861.786	21709
861.918	21850
862.05	21831
862.183	21903
862.315	21941
862.447	21964
862.58	21934
862.712	21622
862.844	21682
862.976	21857
863.108	21812
863.24	22166
863.372	21751
863.504	21587
863.636	21663
863.768	21789
863.9	21690
864.032	21557
864.164	21736
864.296	21865
864.428	21743
864.559	21854
864.691	21812
864.823	21603
864.954	21648
865.086	21686
865.217	21557
865.349	21435
865.48	21599
865.612	21648
865.743	21770
865.875	21526
866.006	21538
866.137	21587
866.269	21682
866.4	21583
866.531	21633
866.662	21473
866.793	21618
866.924	21568
867.055	21500
867.186	21603
867.317	21386
867.448	21283
867.579	21572
867.71	21393
867.841	21336
867.972	21576
868.103	21515
868.233	21656
868.364	21606
868.495	21614
868.625	21713
868.756	21838
868.886	21682
869.017	21797
869.147	21842
869.278	21884
869.408	21759
869.539	21736
869.669	21804
869.799	21823
869.929	21880
870.06	21945
870.19	21983
870.32	22025
870.45	22044
870.58	22173
870.71	22234
870.84	22196
870.97	22143
871.1	22211
871.23	22310
871.36	22367
871.489	22268
871.619	22360
871.749	22432
871.879	22409
872.008	22500
872.138	22344
872.267	22470
872.397	22249
872.526	22207
872.656	22063
872.785	22253
872.915	22379
873.044	22542
873.173	22333
873.303	22398
873.432	22516
873.561	22447
873.69	22295
873.819	22352
873.948	22417
874.077	22390
874.206	22295
874.335	22443
874.464	22402
874.593	22550
874.722	22451
874.851	22630
874.979	22626
875.108	22542
875.237	22531
875.365	22478
875.494	22481
875.623	22573
875.751	22565
875.88	22607
876.008	22736
876.136	22744
876.265	23003
876.393	23170
876.521	22995
876.65	23067
876.778	23006
876.906	23025
877.034	22919
877.162	22957
877.29	22919
877.418	23006
877.546	23064
877.674	22919
877.802	23037
877.93	22854
878.058	22927
878.185	22759
878.313	22790
878.441	22908
878.568	22736
878.696	22949
878.824	22942
878.951	23010
879.079	23132
879.206	23242
879.333	23079
879.461	22908
879.588	22972
879.715	23185
879.842	23166
879.97	22965
880.097	22957
880.224	22790
880.351	22862
880.478	22748
880.605	22873
880.732	22843
880.859	23052
880.986	22763
881.112	22771
881.239	22630
881.366	22470
881.493	22443
881.619	22325
881.746	22432
881.872	22424
881.999	22257
882.125	22322
882.252	22303
882.378	22375
882.505	22360
882.631	22154
882.757	22017
882.883	22150
883.01	22109
883.136	22032
883.262	21869
883.388	21850
883.514	22017
883.64	22006
883.766	21854
883.892	21850
884.018	21747
884.143	22051
884.269	22074
884.395	21755
884.52	21701
884.646	21671
884.772	21622
884.897	21595
885.023	21682
885.148	21785
885.274	21789
885.399	21842
885.524	21709
885.65	21736
885.775	21629
885.9	21591
886.025	21781
886.15	21759
886.275	21583
886.4	21511
886.525	21667
886.65	21675
886.775	21644
886.9	21823
887.025	21907
887.149	21599
887.274	21420
887.399	21481
887.523	21348
887.648	21359
887.773	21230
887.897	21466
888.021	21443
888.146	21416
888.27	21549
888.395	21386
888.519	21443
888.643	21401
888.767	21424
888.891	21374
889.015	21165
889.139	21389
889.263	21199
889.387	21306
889.511	21538
889.635	21412
889.759	21161
889.883	21195
890.006	21245
890.13	21321
890.254	21146
890.377	21150
890.501	20914
890.624	20990
890.748	21032
890.871	20838
890.995	20674
891.118	20754
891.241	20735
891.364	20838
891.488	20887
891.611	20788
891.734	20918
891.857	20853
891.98	20781
892.103	20918
892.226	20720
892.349	20743
892.471	20670
892.594	20697
892.717	20804
892.839	20552
892.962	20670
893.085	20629
893.207	20651
893.33	20606
893.452	20625
893.575	20739
893.697	20750
893.819	20849
893.941	20929
894.064	20807
894.186	20552
894.308	20587
894.43	20716
894.552	20830
894.674	20739
894.796	20556
894.918	20678
895.04	20727
895.161	20750
895.283	20697
895.405	20663
895.526	20724
895.648	20541
895.769	20796
895.891	20731
896.012	20739
896.134	20762
896.255	20651
896.376	20602
896.498	20678
896.619	20712
896.74	20693
896.861	20720
896.982	20975
897.103	21154
897.224	20906
897.345	20914
897.466	20906
897.587	20944
897.708	20925
897.828	20921
897.949	20899
898.07	20686
898.19	20807
898.311	20883
898.431	20746
898.552	20921
898.672	20933
898.792	20948
898.913	20899
899.033	20659
899.153	20587
899.273	20655
899.393	20552
899.513	20720
899.633	20640
899.753	20682
899.873	20492
899.993	20537
900.113	20575
900.232	20522
900.352	20587
900.472	20446
900.591	20358
900.711	20366
900.83	20332
900.95	20457
901.069	20469
901.189	20290
901.308	20046
901.427	19928
901.546	20024
901.665	19940
901.784	19951
901.904	19807
902.023	19693
902.141	19540
902.26	19518
902.379	19483
902.498	19548
902.617	19476
902.735	19468
902.854	19449
902.973	19354
903.091	19099
903.21	19133
903.328	19099
903.446	19080
903.565	18916
903.683	18913
903.801	18852
903.919	18840
904.038	18863
904.156	18711
904.274	18840
904.392	18631
904.51	18726
904.627	18665
904.745	18703
904.863	18802
904.981	18494
905.098	18346
905.216	18388
905.334	18372
905.451	18452
905.569	18467
905.686	18330
905.803	18350
905.921	18125
906.038	18247
906.155	18178
906.272	18121
906.389	18095
906.506	17912
906.623	17817
906.74	17855
906.857	17783
906.974	17718
907.091	17916
907.208	17942
907.324	17866
907.441	17802
907.557	17672
907.674	17608
907.79	17581
907.907	17608
908.023	17600
908.139	17592
908.256	17619
908.372	17535
908.488	17512
908.604	17360
908.72	17261
908.836	17364
908.952	17387
909.068	17364
909.184	17452
909.3	17315
909.415	17402
909.531	17231
909.647	17113
909.762	16999
909.878	17071
909.993	17029
910.108	16999
910.224	16949
910.339	16854
910.454	16904
910.57	16850
910.685	16710
910.8	17033
910.915	16881
911.03	16752
911.145	16584
911.259	16630
911.374	16558
911.489	16531
911.604	16485
911.718	16360
911.833	16455
911.947	16230
912.062	16173
912.176	16382
912.291	16295
912.405	16287
912.519	16561
912.633	16569
912.748	16379
912.862	16314
912.976	16181
913.09	16120
913.204	16112
913.318	16211
913.431	16284
913.545	16295
913.659	16325
913.772	16116
913.886	15987
914	15937
914.113	16090
914.226	16078
914.34	16006
914.453	15770
914.566	15972
914.68	15869
914.793	15747
914.906	15485
915.019	15599
915.132	15439
915.245	15515
915.358	15454
915.47	15545
915.583	15542
915.696	15576
915.809	15633
915.921	15633
916.034	15526
916.146	15416
916.259	15306
916.371	15534
916.483	15507
916.595	15431
916.708	15367
916.82	15374
916.932	15370
917.044	15363
917.156	15397
917.268	15142
917.38	15214
917.491	15214
917.603	15154
917.715	15195
917.826	15245
917.938	15150
918.049	15009
918.161	15066
918.272	15237
918.384	15226
918.495	15093
918.606	14849
918.717	14887
918.828	14982
918.939	15032
919.05	14823
919.161	14895
919.272	14724
919.383	14750
919.494	14998
919.604	15207
919.715	14880
919.826	14826
919.936	14834
920.047	14986
920.157	14792
920.267	15066
920.378	14887
920.488	14834
920.598	15055
920.708	15112
920.818	15032
920.928	15005
921.038	15077
921.148	15112
921.258	14864
921.368	14750
921.477	14629
921.587	14499
921.697	14564
921.806	14590
921.916	14522
922.025	14336
922.134	14183
922.244	14180
922.353	14237
922.462	14221
922.571	14081
922.68	13818
922.789	13887
922.898	13967
923.007	13845
923.116	13887
923.224	13928
923.333	13860
923.442	13837
923.55	13757
923.659	13719
923.767	13708
923.876	13685
923.984	13791
924.092	13594
924.201	13605
924.309	13712
924.417	13689
924.525	13552
924.633	13628
924.741	14431
924.849	13324
924.956	13525
925.064	13343
925.172	13232
925.279	13293
925.387	13282
925.494	13282
925.602	13316
925.709	13350
925.816	13213
925.924	13339
926.031	13316
926.138	13228
926.245	13209
926.352	13213
926.459	13312
926.566	13194
926.673	13145
926.779	13012
926.886	13053
926.993	12913
927.099	12779
927.206	12833
927.312	12757
927.419	12886
927.525	12867
927.631	12928
927.737	12757
927.843	12608
927.95	12536
928.056	12646
928.162	12654
928.267	12650
928.373	13339
928.479	12696
928.585	12460
928.69	12525
928.796	12631
928.901	12540
929.007	12388
929.112	12528
929.218	12471
929.323	12365
929.428	12334
929.533	12555
929.638	12315
929.743	12391
929.848	12422
929.953	12357
930.058	12209
930.163	12026
930.267	12121
930.372	12136
930.477	11992
930.581	12251
930.685	12083
930.79	11969
930.894	11954
930.998	11878
931.103	12102
931.207	11729
931.311	11642
931.415	11547
931.519	11292
931.623	11311
