Data from test_V78500241_493.txt Node
Date: Fri Mar 25 15:45:13 CST 2022
User: usil
Spectrometer: V785-0024
Trigger mode: 0
Integration Time (sec): 4.000000E-1
Scans to average: 1
Nonlinearity correction enabled: false
Boxcar width: 0
Storing dark spectrum: false
XAxis mode: Wavelengths
Number of Pixels in Spectrum: 1024
>>>>>Begin Spectral Data<<<<<
801.071	27538
801.214	27443
801.356	27245
801.499	27119
801.641	27085
801.783	26933
801.926	27119
802.068	27020
802.211	26998
802.353	26944
802.496	26739
802.638	26735
802.78	26648
802.923	26682
803.065	26590
803.208	26613
803.35	26727
803.492	26842
803.635	26864
803.777	26739
803.919	26807
804.061	27093
804.204	26773
804.346	26785
804.488	26609
804.63	26815
804.773	26716
804.915	26705
805.057	26849
805.199	26914
805.341	26735
805.483	26940
805.626	26864
805.768	26845
805.91	26929
806.052	26880
806.194	26880
806.336	27119
806.478	26979
806.62	26868
806.762	27081
806.904	27119
807.046	27329
807.188	27332
807.33	27523
807.472	27439
807.614	27306
807.756	27237
807.898	27131
808.04	27036
808.182	27157
808.324	27222
808.465	27161
808.607	27447
808.749	27306
808.891	27682
809.033	27564
809.174	27587
809.316	27568
809.458	27660
809.6	27523
809.741	27667
809.883	27751
810.025	27690
810.166	27732
810.308	27968
810.45	27934
810.591	27736
810.733	27511
810.875	27545
811.016	27427
811.158	27405
811.299	27606
811.441	27713
811.582	27690
811.724	27538
811.865	27389
812.007	27481
812.148	27591
812.29	27633
812.431	27751
812.573	27869
812.714	27888
812.855	28135
812.997	28109
813.138	28177
813.279	28226
813.421	28158
813.562	27968
813.703	27941
813.845	27770
813.986	27405
814.127	27412
814.268	27230
814.41	27222
814.551	27104
814.692	27317
814.833	26998
814.974	27283
815.115	27085
815.256	26994
815.397	27089
815.539	27142
815.68	26971
815.821	26872
815.962	26937
816.103	26895
816.244	26914
816.385	26899
816.526	26762
816.666	26499
816.807	26549
816.948	26461
817.089	26617
817.23	26423
817.371	26503
817.512	26602
817.653	26446
817.793	26503
817.934	26450
818.075	26484
818.216	26434
818.356	26298
818.497	26294
818.638	26084
818.778	26050
818.919	26103
819.06	26176
819.2	26320
819.341	26465
819.481	26298
819.622	26686
819.762	26746
819.903	26765
820.043	26488
820.184	26663
820.324	26556
820.465	26731
820.605	26568
820.746	26552
820.886	26328
821.026	26453
821.167	26568
821.307	26648
821.447	26476
821.588	26271
821.728	26256
821.868	25989
822.008	25944
822.149	25906
822.289	25986
822.429	25601
822.569	25689
822.709	25635
822.849	25521
822.99	25464
823.13	25468
823.27	25392
823.41	25183
823.55	25164
823.69	25407
823.83	25270
823.97	25213
824.11	24989
824.25	25038
824.389	25061
824.529	24981
824.669	24992
824.809	25232
824.949	25046
825.089	25179
825.228	25293
825.368	25000
825.508	24943
825.648	24859
825.787	24992
825.927	25012
826.067	24913
826.206	24901
826.346	25099
826.485	24901
826.625	24981
826.765	24966
826.904	24897
827.044	24722
827.183	24707
827.323	24555
827.462	24517
827.601	24521
827.741	24509
827.88	24574
828.02	24456
828.159	24555
828.298	24627
828.437	24540
828.577	24555
828.716	24650
828.855	24635
828.994	24350
829.134	24342
829.273	24433
829.412	24369
829.551	24213
829.69	24330
829.829	24380
829.968	24346
830.107	24471
830.246	24247
830.385	24213
830.524	24205
830.663	24114
830.802	23908
830.941	23901
831.08	23923
831.219	23878
831.357	23923
831.496	24125
831.635	24098
831.774	23684
831.913	23859
832.051	23737
832.19	23703
832.329	23707
832.467	23646
832.606	23539
832.744	23687
832.883	23581
833.022	23543
833.16	23592
833.299	23623
833.437	23531
833.576	23531
833.714	23630
833.852	23722
833.991	23676
834.129	23722
834.267	23779
834.406	23516
834.544	23623
834.682	23646
834.821	23558
834.959	23817
835.097	23516
835.235	23585
835.373	23680
835.511	23497
835.65	23543
835.788	23558
835.926	23269
836.064	23326
836.202	23235
836.34	23467
836.478	23611
836.615	23425
836.753	23471
836.891	23634
837.029	23596
837.167	23235
837.305	23486
837.443	23387
837.58	23273
837.718	23337
837.856	23368
837.993	23318
838.131	23227
838.269	23121
838.406	23178
838.544	23121
838.681	22873
838.819	22987
838.956	22816
839.094	22854
839.231	22877
839.369	22904
839.506	23143
839.643	22946
839.781	22771
839.918	22698
840.055	22824
840.193	22691
840.33	22694
840.467	22729
840.604	22733
840.742	23025
840.879	22535
841.016	22755
841.153	22626
841.29	22725
841.427	22694
841.564	22664
841.701	22637
841.838	22615
841.975	22599
842.112	22611
842.249	22588
842.385	22497
842.522	22615
842.659	22630
842.796	22455
842.933	22432
843.069	22352
843.206	22424
843.343	22455
843.479	22451
843.616	22588
843.752	22287
843.889	22276
844.025	22436
844.162	22230
844.298	22344
844.435	22177
844.571	22158
844.708	22261
844.844	22382
844.98	22394
845.117	22390
845.253	22242
845.389	22131
845.525	22120
845.661	22048
845.798	21994
845.934	21911
846.07	21987
846.206	22036
846.342	22101
846.478	21899
846.614	21709
846.75	21709
846.886	21637
847.022	21709
847.158	21732
847.294	21595
847.429	21690
847.565	21808
847.701	21869
847.837	21466
847.972	21416
848.108	21561
848.244	21393
848.379	21344
848.515	21211
848.65	21222
848.786	21355
848.921	21340
849.057	21310
849.192	21386
849.328	21294
849.463	21367
849.598	21249
849.734	21245
849.869	21116
850.004	20952
850.14	21077
850.275	21074
850.41	20830
850.545	21024
850.68	21005
850.815	21138
850.95	21131
851.085	21146
851.22	21176
851.355	21043
851.49	21062
851.625	21093
851.76	20975
851.895	21036
852.03	20952
852.165	21001
852.299	21020
852.434	20975
852.569	21123
852.703	21001
852.838	21051
852.973	21249
853.107	21131
853.242	20956
853.376	20880
853.511	20735
853.645	20788
853.78	20910
853.914	20845
854.048	20785
854.183	20845
854.317	20876
854.451	21032
854.585	20937
854.72	20929
854.854	21062
854.988	20800
855.122	20902
855.256	20845
855.39	20883
855.524	21005
855.658	21036
855.792	20906
855.926	20910
856.06	20944
856.194	21032
856.327	20857
856.461	20838
856.595	20731
856.729	20868
856.862	20960
856.996	20914
857.13	20937
857.263	20967
857.397	20929
857.53	20868
857.664	20849
857.797	20982
857.931	20967
858.064	20925
858.197	20986
858.331	20891
858.464	20811
858.597	20758
858.731	20758
858.864	20765
858.997	20921
859.13	20834
859.263	20986
859.396	20952
859.529	20906
859.662	20864
859.795	20804
859.928	20933
860.061	21001
860.194	21096
860.327	20830
860.46	20883
860.592	21013
860.725	21077
860.858	20998
860.99	20849
861.123	20769
861.256	20925
861.388	20902
861.521	21553
861.653	20781
861.786	20743
861.918	20731
862.05	20670
862.183	20842
862.315	20769
862.447	20910
862.58	20807
862.712	20594
862.844	20648
862.976	20697
863.108	20651
863.24	20975
863.372	20552
863.504	20693
863.636	20686
863.768	20651
863.9	20522
864.032	20492
864.164	20564
864.296	20552
864.428	20648
864.559	20689
864.691	20720
864.823	20469
864.954	20503
865.086	20621
865.217	20415
865.349	20332
865.48	20469
865.612	20530
865.743	20606
865.875	20507
866.006	20400
866.137	20492
866.269	20442
866.4	20419
866.531	20476
866.662	20347
866.793	20278
866.924	20492
867.055	20423
867.186	20332
867.317	20412
867.448	20408
867.579	20423
867.71	20275
867.841	20362
867.972	20450
868.103	20374
868.233	20469
868.364	20492
868.495	20533
868.625	20716
868.756	20667
868.886	20682
869.017	20655
869.147	20853
869.278	20735
869.408	20689
869.539	20708
869.669	20678
869.799	20655
869.929	20804
870.06	20724
870.19	20960
870.32	20933
870.45	20967
870.58	21062
870.71	21165
870.84	21226
870.97	21017
871.1	21043
871.23	21203
871.36	21306
871.489	21165
871.619	21344
871.749	21306
871.879	21222
872.008	21344
872.138	21294
872.267	21386
872.397	21135
872.526	21104
872.656	21161
872.785	21112
872.915	21226
873.044	21336
873.173	21203
873.303	21264
873.432	21431
873.561	21485
873.69	21264
873.819	21374
873.948	21382
874.077	21275
874.206	21157
874.335	21332
874.464	21378
874.593	21545
874.722	21443
874.851	21641
874.979	21481
875.108	21694
875.237	21492
875.365	21408
875.494	21515
875.623	21625
875.751	21576
875.88	21515
876.008	21614
876.136	21717
876.265	21964
876.393	22010
876.521	21972
876.65	21953
876.778	21899
876.906	21979
877.034	21865
877.162	21930
877.29	21804
877.418	21869
877.546	21911
877.674	21930
877.802	21880
877.93	21888
878.058	21808
878.185	21759
878.313	21846
878.441	21865
878.568	21766
878.696	21956
878.824	21899
878.951	21945
879.079	22013
879.206	22215
879.333	22185
879.461	21907
879.588	21968
879.715	22086
879.842	22230
879.97	21926
880.097	21778
880.224	21713
880.351	21816
880.478	21819
880.605	21644
880.732	21644
880.859	21956
880.986	21656
881.112	21690
881.239	21660
881.366	21523
881.493	21317
881.619	21367
881.746	21378
881.872	21332
881.999	21245
882.125	21085
882.252	21306
882.378	21321
882.505	21424
882.631	21077
882.757	20986
882.883	21161
883.01	21005
883.136	20845
883.262	20853
883.388	20754
883.514	21005
883.64	21058
883.766	20910
883.892	20792
884.018	20838
884.143	20914
884.269	21032
884.395	20587
884.52	20602
884.646	20594
884.772	20583
884.897	20568
885.023	20545
885.148	20880
885.274	20845
885.399	20743
885.524	20708
885.65	20609
885.775	20792
885.9	20613
886.025	20724
886.15	20663
886.275	20590
886.4	20488
886.525	20541
886.65	20606
886.775	20571
886.9	20746
887.025	20826
887.149	20568
887.274	20438
887.399	20423
887.523	20473
887.648	20362
887.773	20313
887.897	20355
888.021	20412
888.146	20240
888.27	20374
888.395	20530
888.519	20457
888.643	20404
888.767	20396
888.891	20404
889.015	20115
889.139	20248
889.263	20237
889.387	20206
889.511	20457
889.635	20275
889.759	20191
889.883	20172
890.006	20370
890.13	20339
890.254	20054
890.377	20145
890.501	19997
890.624	19875
890.748	19951
890.871	19902
890.995	19795
891.118	19700
891.241	19738
891.364	19841
891.488	20016
891.611	19830
891.734	19776
891.857	19879
891.98	19765
892.103	19719
892.226	19746
892.349	19780
892.471	19552
892.594	19791
892.717	19780
892.839	19738
892.962	19750
893.085	19635
893.207	19753
893.33	19632
893.452	19605
893.575	19696
893.697	19670
893.819	19765
893.941	19868
894.064	19791
894.186	19693
894.308	19597
894.43	19734
894.552	19875
894.674	19750
894.796	19590
894.918	19723
895.04	19708
895.161	19719
895.283	19845
895.405	19658
895.526	19628
895.648	19734
895.769	19738
895.891	19757
896.012	19772
896.134	19742
896.255	19772
896.376	19700
896.498	19723
896.619	19765
896.74	19704
896.861	19731
896.982	20027
897.103	20195
897.224	20005
897.345	19989
897.466	19940
897.587	19967
897.708	19986
897.828	20020
897.949	19936
898.07	19757
898.19	19795
898.311	20058
898.431	19982
898.552	19982
898.672	19936
898.792	19909
898.913	19856
899.033	19936
899.153	19807
899.273	19639
899.393	19704
899.513	19830
899.633	19776
899.753	19852
899.873	19677
899.993	19738
900.113	19677
900.232	19628
900.352	19780
900.472	19548
900.591	19506
900.711	19525
900.83	19514
900.95	19575
901.069	19643
901.189	19377
901.308	19213
901.427	19122
901.546	19129
901.665	19145
901.784	19110
901.904	18833
902.023	18935
902.141	18582
902.26	18620
902.379	18852
902.498	18578
902.617	18513
902.735	18707
902.854	18506
902.973	18422
903.091	18384
903.21	18247
903.328	18228
903.446	18140
903.565	18057
903.683	18038
903.801	17927
903.919	17961
904.038	18007
904.156	17840
904.274	17927
904.392	17893
904.51	17809
904.627	17760
904.745	17897
904.863	17904
904.981	17695
905.098	17532
905.216	17421
905.334	17474
905.451	17570
905.569	17535
905.686	17532
905.803	17391
905.921	17220
906.038	17440
906.155	17364
906.272	17216
906.389	17216
906.506	17113
906.623	17067
906.74	16995
906.857	16911
906.974	16896
907.091	17086
907.208	17193
907.324	17048
907.441	16961
907.557	16763
907.674	16801
907.79	16771
907.907	16790
908.023	16801
908.139	16736
908.256	16767
908.372	16664
908.488	16626
908.604	16481
908.72	16497
908.836	16607
908.952	16417
909.068	16436
909.184	16538
909.3	16367
909.415	16554
909.531	16500
909.647	16166
909.762	16306
909.878	16120
909.993	16253
910.108	16181
910.224	16154
910.339	16223
910.454	15983
910.57	16010
910.685	15987
910.8	16150
910.915	16093
911.03	15934
911.145	15854
911.259	15797
911.374	15785
911.489	15762
911.604	15770
911.718	15572
911.833	15614
911.947	15507
912.062	15367
912.176	15576
912.291	15614
912.405	15629
912.519	15694
912.633	15823
912.748	15599
912.862	15454
912.976	15462
913.09	15294
913.204	15317
913.318	15382
913.431	15405
913.545	15389
913.659	15420
913.772	15355
913.886	15302
914	15214
914.113	15260
914.226	15222
914.34	15283
914.453	15020
914.566	15283
914.68	15066
914.793	15032
914.906	14861
915.019	14842
915.132	14708
915.245	14830
915.358	14777
915.47	14781
915.583	14765
915.696	14788
915.809	14921
915.921	14804
916.034	14769
916.146	14697
916.259	14636
916.371	14796
916.483	14632
916.595	14743
916.708	14697
916.82	14533
916.932	14530
917.044	14583
917.156	14575
917.268	14377
917.38	14484
917.491	14442
917.603	14454
917.715	14579
917.826	14526
917.938	14412
918.049	14172
918.161	14461
918.272	14579
918.384	14545
918.495	14370
918.606	14385
918.717	14183
918.828	14183
918.939	14286
919.05	14134
919.161	14157
919.272	14046
919.383	14069
919.494	14317
919.604	14404
919.715	14259
919.826	14161
919.936	14081
920.047	14298
920.157	14115
920.267	14351
920.378	14206
920.488	14153
920.598	14351
920.708	14473
920.818	14252
920.928	14343
921.038	14442
921.148	14438
921.258	14172
921.368	14001
921.477	13879
921.587	13944
921.697	13860
921.806	13909
921.916	13826
922.025	13708
922.134	13533
922.244	13537
922.353	13643
922.462	13384
922.571	13392
922.68	13384
922.789	13266
922.898	13228
923.007	13145
923.116	13312
923.224	13259
923.333	13244
923.442	13091
923.55	13034
923.659	13152
923.767	13084
923.876	13126
923.984	13122
924.092	12962
924.201	13076
924.309	13004
924.417	12985
924.525	12943
924.633	12875
924.741	13571
924.849	12741
924.956	12852
925.064	12642
925.172	12627
925.279	12616
925.387	12635
925.494	12730
925.602	12745
925.709	12741
925.816	12585
925.924	12570
926.031	12650
926.138	12616
926.245	12715
926.352	12536
926.459	12658
926.566	12669
926.673	12483
926.779	12467
926.886	12452
926.993	12308
927.099	12334
927.206	12315
927.312	12266
927.419	12296
927.525	12251
927.631	12251
927.737	12194
927.843	12110
927.95	12079
928.056	12163
928.162	12022
928.267	12072
928.373	12719
928.479	12114
928.585	11889
928.69	12060
928.796	12079
928.901	11946
929.007	11821
929.112	12045
929.218	11939
929.323	11863
929.428	11775
929.533	11950
929.638	11726
929.743	11718
929.848	11889
929.953	11840
930.058	11676
930.163	11543
930.267	11566
930.372	11646
930.477	11471
930.581	11756
930.685	11512
930.79	11478
930.894	11444
930.998	11395
931.103	11486
931.207	11151
931.311	11132
931.415	10999
931.519	10824
931.623	10752
