Data from test_V78500241_433.txt Node
Date: Fri Mar 25 15:44:48 CST 2022
User: usil
Spectrometer: V785-0024
Trigger mode: 0
Integration Time (sec): 4.000000E-1
Scans to average: 1
Nonlinearity correction enabled: false
Boxcar width: 0
Storing dark spectrum: false
XAxis mode: Wavelengths
Number of Pixels in Spectrum: 1024
>>>>>Begin Spectral Data<<<<<
801.071	28059
801.214	27968
801.356	27857
801.499	27751
801.641	27523
801.783	27488
801.926	27633
802.068	27637
802.211	27504
802.353	27549
802.496	27336
802.638	27344
802.78	27138
802.923	27161
803.065	27062
803.208	27355
803.35	27207
803.492	27214
803.635	27344
803.777	27279
803.919	27355
804.061	27637
804.204	27374
804.346	27294
804.488	27233
804.63	27401
804.773	27268
804.915	27382
805.057	27412
805.199	27397
805.341	27511
805.483	27488
805.626	27496
805.768	27420
805.91	27458
806.052	27572
806.194	27408
806.336	27720
806.478	27439
806.62	27389
806.762	27519
806.904	27774
807.046	28048
807.188	27972
807.33	27956
807.472	27914
807.614	27823
807.756	27854
807.898	27682
808.04	27606
808.182	27797
808.324	27732
808.465	27759
808.607	27914
808.749	28032
808.891	28093
809.033	28226
809.174	28131
809.316	28021
809.458	28268
809.6	28090
809.741	28116
809.883	28112
810.025	28310
810.166	28455
810.308	28329
810.45	28215
810.591	28314
810.733	28078
810.875	28131
811.016	27979
811.158	27975
811.299	28196
811.441	28177
811.582	28371
811.724	28131
811.865	27994
812.007	27819
812.148	27956
812.29	28040
812.431	28181
812.573	28352
812.714	28421
812.855	28542
812.997	28653
813.138	28710
813.279	28668
813.421	28675
813.562	28470
813.703	28379
813.845	28185
813.986	27987
814.127	27701
814.268	27641
814.41	27660
814.551	27766
814.692	27762
814.833	27610
814.974	27599
815.115	27549
815.256	27549
815.397	27519
815.539	27629
815.68	27488
815.821	27287
815.962	27435
816.103	27454
816.244	27378
816.385	27310
816.526	27108
816.666	27074
816.807	26944
816.948	26986
817.089	27017
817.23	26861
817.371	26823
817.512	26899
817.653	26887
817.793	26800
817.934	26929
818.075	26830
818.216	26963
818.356	26792
818.497	26720
818.638	26739
818.778	26674
818.919	26651
819.06	26651
819.2	26724
819.341	26804
819.481	26754
819.622	27028
819.762	27325
819.903	27116
820.043	26975
820.184	27032
820.324	26914
820.465	27157
820.605	27005
820.746	26994
820.886	26845
821.026	26960
821.167	26948
821.307	26906
821.447	26838
821.588	26792
821.728	26609
821.868	26469
822.008	26317
822.149	26248
822.289	26282
822.429	25978
822.569	25989
822.709	26050
822.849	25803
822.99	25845
823.13	25780
823.27	25708
823.41	25689
823.55	25479
823.69	25628
823.83	25662
823.97	25525
824.11	25354
824.25	25445
824.389	25472
824.529	25343
824.669	25438
824.809	25506
824.949	25476
825.089	25411
825.228	25403
825.368	25225
825.508	25362
825.648	25209
825.787	25274
825.927	25422
826.067	25259
826.206	25266
826.346	25266
826.485	25274
826.625	25221
826.765	25175
826.904	25312
827.044	25107
827.183	24958
827.323	24806
827.462	25034
827.601	24905
827.741	24901
827.88	24935
828.02	24783
828.159	25004
828.298	24894
828.437	25000
828.577	24825
828.716	24970
828.855	24863
828.994	24749
829.134	24509
829.273	24555
829.412	24513
829.551	24760
829.69	24532
829.829	24544
829.968	24741
830.107	24570
830.246	24681
830.385	24578
830.524	24330
830.663	24445
830.802	24243
830.941	24072
831.08	24216
831.219	24216
831.357	24254
831.496	24418
831.635	24216
831.774	24083
831.913	24049
832.051	23904
832.19	23878
832.329	24072
832.467	23882
832.606	23863
832.744	23874
832.883	23840
833.022	23828
833.16	23726
833.299	23958
833.437	23790
833.576	23931
833.714	23923
833.852	23889
833.991	23935
834.129	23977
834.267	23942
834.406	23813
834.544	23927
834.682	23878
834.821	23870
834.959	24003
835.097	23665
835.235	24022
835.373	23897
835.511	23790
835.65	23684
835.788	23707
835.926	23634
836.064	23467
836.202	23520
836.34	23737
836.478	23779
836.615	23657
836.753	23726
836.891	23661
837.029	23665
837.167	23524
837.305	23611
837.443	23672
837.58	23585
837.718	23627
837.856	23524
837.993	23539
838.131	23592
838.269	23368
838.406	23383
838.544	23398
838.681	23220
838.819	23041
838.956	22911
839.094	23048
839.231	23037
839.369	23246
839.506	23463
839.643	23288
839.781	22927
839.918	22889
840.055	22957
840.193	22919
840.33	22923
840.467	22869
840.604	22984
840.742	23098
840.879	22797
841.016	22858
841.153	22805
841.29	22927
841.427	22915
841.564	22915
841.701	22793
841.838	22839
841.975	22873
842.112	22839
842.249	22691
842.385	22580
842.522	22877
842.659	22702
842.796	22466
842.933	22527
843.069	22588
843.206	22421
843.343	22565
843.479	22523
843.616	22588
843.752	22363
843.889	22417
844.025	22569
844.162	22360
844.298	22447
844.435	22314
844.571	22223
844.708	22367
844.844	22462
844.98	22493
845.117	22470
845.253	22318
845.389	22249
845.525	22226
845.661	22341
845.798	21960
845.934	22169
846.07	22154
846.206	22162
846.342	22234
846.478	22051
846.614	21854
846.75	21823
846.886	21724
847.022	21899
847.158	21937
847.294	21876
847.429	21793
847.565	21785
847.701	22006
847.837	21587
847.972	21534
848.108	21724
848.244	21545
848.379	21302
848.515	21420
848.65	21344
848.786	21393
848.921	21408
849.057	21580
849.192	21401
849.328	21492
849.463	21348
849.598	21321
849.734	21252
849.869	21336
850.004	21108
850.14	21100
850.275	21062
850.41	21093
850.545	21154
850.68	21119
850.815	21272
850.95	21138
851.085	21298
851.22	21070
851.355	21195
851.49	21127
851.625	20982
851.76	21138
851.895	21047
852.03	21062
852.165	21085
852.299	21203
852.434	21237
852.569	21207
852.703	21154
852.838	21157
852.973	21226
853.107	21184
853.242	21009
853.376	21089
853.511	20857
853.645	20975
853.78	20952
853.914	21024
854.048	20857
854.183	20994
854.317	20990
854.451	21036
854.585	20933
854.72	20902
854.854	21024
854.988	20891
855.122	20963
855.256	20963
855.39	20872
855.524	20914
855.658	20887
855.792	20872
855.926	21154
856.06	20952
856.194	21112
856.327	20895
856.461	20868
856.595	20929
856.729	20971
856.862	21165
856.996	20925
857.13	20937
857.263	21161
857.397	21127
857.53	20990
857.664	20979
857.797	20986
857.931	21119
858.064	20849
858.197	20975
858.331	20788
858.464	20785
858.597	20746
858.731	20914
858.864	20868
858.997	20872
859.13	20887
859.263	20807
859.396	20910
859.529	20834
859.662	20944
859.795	20804
859.928	20914
860.061	21093
860.194	21051
860.327	20925
860.46	20842
860.592	20998
860.725	21100
860.858	21058
860.99	20956
861.123	20853
861.256	20914
861.388	20963
861.521	21564
861.653	20754
861.786	20708
861.918	20781
862.05	20716
862.183	20899
862.315	20944
862.447	20921
862.58	20807
862.712	20674
862.844	20648
862.976	20674
863.108	20716
863.24	21157
863.372	20545
863.504	20587
863.636	20682
863.768	20670
863.9	20663
864.032	20454
864.164	20629
864.296	20564
864.428	20659
864.559	20507
864.691	20701
864.823	20712
864.954	20644
865.086	20640
865.217	20503
865.349	20450
865.48	20530
865.612	20533
865.743	20541
865.875	20533
866.006	20412
866.137	20507
866.269	20522
866.4	20473
866.531	20461
866.662	20530
866.793	20461
866.924	20564
867.055	20511
867.186	20465
867.317	20393
867.448	20309
867.579	20332
867.71	20385
867.841	20404
867.972	20461
868.103	20408
868.233	20400
868.364	20442
868.495	20400
868.625	20583
868.756	20758
868.886	20606
869.017	20697
869.147	20880
869.278	20716
869.408	20674
869.539	20754
869.669	20769
869.799	20625
869.929	20864
870.06	20754
870.19	21077
870.32	20941
870.45	21043
870.58	21119
870.71	21230
870.84	21226
870.97	21104
871.1	21096
871.23	21306
871.36	21237
871.489	21245
871.619	21329
871.749	21272
871.879	21378
872.008	21458
872.138	21275
872.267	21245
872.397	21116
872.526	21070
872.656	21119
872.785	21176
872.915	21268
873.044	21275
873.173	21241
873.303	21317
873.432	21287
873.561	21367
873.69	21336
873.819	21291
873.948	21355
874.077	21329
874.206	21336
874.335	21298
874.464	21401
874.593	21587
874.722	21534
874.851	21625
874.979	21580
875.108	21500
875.237	21587
875.365	21583
875.494	21557
875.623	21523
875.751	21481
875.88	21538
876.008	21648
876.136	21785
876.265	22116
876.393	21987
876.521	22112
876.65	21945
876.778	21937
876.906	21838
877.034	21945
877.162	21968
877.29	21842
877.418	21956
877.546	21892
877.674	21835
877.802	21972
877.93	21876
878.058	21835
878.185	21720
878.313	21892
878.441	21770
878.568	21694
878.696	21812
878.824	21899
878.951	21880
879.079	22040
879.206	22135
879.333	22154
879.461	21911
879.588	22021
879.715	22044
879.842	22211
879.97	21861
880.097	21781
880.224	21663
880.351	21724
880.478	21629
880.605	21576
880.732	21705
880.859	21888
880.986	21660
881.112	21819
881.239	21652
881.366	21561
881.493	21416
881.619	21272
881.746	21473
881.872	21188
881.999	21291
882.125	21264
882.252	21405
882.378	21313
882.505	21332
882.631	21127
882.757	21070
882.883	21062
883.01	21058
883.136	20990
883.262	20876
883.388	20902
883.514	21112
883.64	21005
883.766	20891
883.892	20743
884.018	20838
884.143	20952
884.269	21142
884.395	20765
884.52	20556
884.646	20609
884.772	20632
884.897	20526
885.023	20625
885.148	20727
885.274	20792
885.399	20746
885.524	20750
885.65	20659
885.775	20674
885.9	20686
886.025	20727
886.15	20708
886.275	20598
886.4	20602
886.525	20454
886.65	20568
886.775	20564
886.9	20655
887.025	20887
887.149	20667
887.274	20442
887.399	20339
887.523	20442
887.648	20377
887.773	20259
887.897	20370
888.021	20351
888.146	20381
888.27	20522
888.395	20465
888.519	20415
888.643	20431
888.767	20488
888.891	20358
889.015	20294
889.139	20298
889.263	20176
889.387	20248
889.511	20282
889.635	20393
889.759	20096
889.883	20168
890.006	20237
890.13	20278
890.254	20164
890.377	20195
890.501	19993
890.624	19959
890.748	20012
890.871	19890
890.995	19784
891.118	19780
891.241	19909
891.364	19811
891.488	19936
891.611	19738
891.734	19826
891.857	19936
891.98	19822
892.103	19860
892.226	19894
892.349	19757
892.471	19567
892.594	19727
892.717	19647
892.839	19571
892.962	19746
893.085	19883
893.207	19818
893.33	19586
893.452	19571
893.575	19769
893.697	19784
893.819	19890
893.941	19788
894.064	19868
894.186	19544
894.308	19651
894.43	19750
894.552	19959
894.674	19803
894.796	19643
894.918	19723
895.04	19681
895.161	19780
895.283	19757
895.405	19632
895.526	19811
895.648	19624
895.769	19818
895.891	19757
896.012	19761
896.134	19757
896.255	19746
896.376	19635
896.498	19647
896.619	19875
896.74	19731
896.861	19902
896.982	20008
897.103	20244
897.224	20126
897.345	20096
897.466	19852
897.587	19951
897.708	20187
897.828	20039
897.949	19936
898.07	19738
898.19	20065
898.311	20172
898.431	19894
898.552	20008
898.672	20024
898.792	20107
898.913	20020
899.033	19875
899.153	19818
899.273	19632
899.393	19601
899.513	19700
899.633	19734
899.753	19799
899.873	19685
899.993	19830
900.113	19632
900.232	19708
900.352	19712
900.472	19662
900.591	19495
900.711	19430
900.83	19480
900.95	19639
901.069	19639
901.189	19270
901.308	19194
901.427	19133
901.546	19194
901.665	19042
901.784	19266
901.904	19012
902.023	18863
902.141	18722
902.26	18532
902.379	18749
902.498	18502
902.617	18582
902.735	18620
902.854	18536
902.973	18399
903.091	18281
903.21	18346
903.328	18216
903.446	18209
903.565	18079
903.683	18095
903.801	18003
903.919	18045
904.038	17980
904.156	17965
904.274	17885
904.392	17752
904.51	17832
904.627	17775
904.745	17954
904.863	17843
904.981	17562
905.098	17482
905.216	17661
905.334	17490
905.451	17490
905.569	17486
905.686	17505
905.803	17604
905.921	17258
906.038	17395
906.155	17315
906.272	17235
906.389	17227
906.506	16972
906.623	17124
906.74	17018
906.857	17056
906.974	16866
907.091	17121
907.208	17178
907.324	17022
907.441	17014
907.557	16778
907.674	16744
907.79	16580
907.907	16664
908.023	16771
908.139	16805
908.256	16664
908.372	16653
908.488	16577
908.604	16489
908.72	16421
908.836	16417
908.952	16436
909.068	16413
909.184	16432
909.3	16348
909.415	16527
909.531	16417
909.647	16230
909.762	16101
909.878	16097
909.993	16200
910.108	16204
910.224	16086
910.339	16093
910.454	16010
910.57	15880
910.685	16002
910.8	16238
910.915	16086
911.03	15956
911.145	15876
911.259	15770
911.374	15739
911.489	15709
911.604	15557
911.718	15443
911.833	15496
911.947	15462
912.062	15332
912.176	15496
912.291	15523
912.405	15618
912.519	15686
912.633	15701
912.748	15595
912.862	15412
912.976	15287
913.09	15291
913.204	15256
913.318	15302
913.431	15374
913.545	15310
913.659	15374
913.772	15207
913.886	15142
914	15066
914.113	15249
914.226	15374
914.34	15123
914.453	15070
914.566	15062
914.68	15066
914.793	15032
914.906	14758
915.019	14777
915.132	14674
915.245	14708
915.358	14842
915.47	14735
915.583	14716
915.696	14765
915.809	14849
915.921	14891
916.034	14655
916.146	14579
916.259	14629
916.371	14743
916.483	14651
916.595	14598
916.708	14587
916.82	14571
916.932	14556
917.044	14583
917.156	14476
917.268	14355
917.38	14461
917.491	14431
917.603	14358
917.715	14503
917.826	14434
917.938	14355
918.049	14233
918.161	14377
918.272	14522
918.384	14465
918.495	14317
918.606	14153
918.717	14115
918.828	14088
918.939	14240
919.05	14149
919.161	14119
919.272	13978
919.383	14103
919.494	14134
919.604	14328
919.715	14119
919.826	14043
919.936	14092
920.047	14084
920.157	14271
920.267	14351
920.378	14161
920.488	14107
920.598	14320
920.708	14499
920.818	14290
920.928	14248
921.038	14454
921.148	14396
921.258	14100
921.368	14012
921.477	13868
921.587	13864
921.697	13784
921.806	13917
921.916	13723
922.025	13544
922.134	13628
922.244	13548
922.353	13559
922.462	13422
922.571	13324
922.68	13293
922.789	13141
922.898	13278
923.007	13179
923.116	13171
923.224	13137
923.333	13095
923.442	13095
923.55	12977
923.659	12977
923.767	13019
923.876	13015
923.984	13050
924.092	12871
924.201	12958
924.309	12920
924.417	12890
924.525	12791
924.633	12863
924.741	13647
924.849	12719
924.956	12730
925.064	12639
925.172	12467
925.279	12662
925.387	12616
925.494	12604
925.602	12635
925.709	12665
925.816	12513
925.924	12627
926.031	12696
926.138	12486
926.245	12578
926.352	12445
926.459	12483
926.566	12646
926.673	12388
926.779	12350
926.886	12433
926.993	12209
927.099	12247
927.206	12133
927.312	12136
927.419	12205
927.525	12159
927.631	12163
927.737	12117
927.843	11931
927.95	11840
928.056	11969
928.162	11931
928.267	12064
928.373	12669
928.479	12129
928.585	11863
928.69	11961
928.796	11999
928.901	11878
929.007	11813
929.112	11843
929.218	11893
929.323	11771
929.428	11718
929.533	11851
929.638	11577
929.743	11707
929.848	11718
929.953	11649
930.058	11661
930.163	11448
930.267	11448
930.372	11505
930.477	11368
930.581	11733
930.685	11528
930.79	11364
930.894	11299
930.998	11204
931.103	11379
931.207	11041
931.311	10942
931.415	10915
931.519	10752
931.623	10763
