Data from test_V78500241_1199.txt Node
Date: Fri Mar 25 15:50:06 CST 2022
User: usil
Spectrometer: V785-0024
Trigger mode: 0
Integration Time (sec): 4.000000E-1
Scans to average: 1
Nonlinearity correction enabled: false
Boxcar width: 0
Storing dark spectrum: false
XAxis mode: Wavelengths
Number of Pixels in Spectrum: 1024
>>>>>Begin Spectral Data<<<<<
801.071	28664
801.214	28637
801.356	28451
801.499	28348
801.641	28150
801.783	28272
801.926	28265
802.068	28242
802.211	28097
802.353	28044
802.496	27934
802.638	27960
802.78	27861
802.923	27914
803.065	27846
803.208	27854
803.35	27960
803.492	28059
803.635	28150
803.777	28021
803.919	28204
804.061	28257
804.204	28246
804.346	28086
804.488	28143
804.63	28276
804.773	28086
804.915	28188
805.057	28249
805.199	28185
805.341	28246
805.483	28291
805.626	28341
805.768	28200
805.91	28265
806.052	28200
806.194	28246
806.336	28634
806.478	28341
806.62	28318
806.762	28474
806.904	28622
807.046	28755
807.188	28755
807.33	28854
807.472	28831
807.614	28831
807.756	28778
807.898	28645
808.04	28660
808.182	28573
808.324	28615
808.465	28611
808.607	28984
808.749	29151
808.891	29121
809.033	29197
809.174	29132
809.316	28980
809.458	29052
809.6	29022
809.741	29151
809.883	29193
810.025	29246
810.166	29501
810.308	29402
810.45	29368
810.591	29334
810.733	29124
810.875	29071
811.016	28991
811.158	28911
811.299	29060
811.441	29117
811.582	29189
811.724	29071
811.865	29033
812.007	29033
812.148	29048
812.29	29075
812.431	29258
812.573	29474
812.714	29543
812.855	29600
812.997	29691
813.138	29805
813.279	29566
813.421	29596
813.562	29611
813.703	29402
813.845	29197
813.986	28999
814.127	28946
814.268	28793
814.41	28790
814.551	28767
814.692	28824
814.833	28653
814.974	28740
815.115	28740
815.256	28561
815.397	28736
815.539	28691
815.68	28645
815.821	28516
815.962	28637
816.103	28569
816.244	28489
816.385	28333
816.526	28287
816.666	28303
816.807	28029
816.948	28181
817.089	28249
817.23	28124
817.371	28166
817.512	28029
817.653	28128
817.793	28010
817.934	28059
818.075	28017
818.216	28112
818.356	27899
818.497	27949
818.638	27880
818.778	27709
818.919	27804
819.06	27975
819.2	28006
819.341	27987
819.481	27945
819.622	28192
819.762	28485
819.903	28356
820.043	28226
820.184	28223
820.324	28147
820.465	28322
820.605	28226
820.746	28150
820.886	28242
821.026	28200
821.167	28124
821.307	28276
821.447	28204
821.588	28025
821.728	27876
821.868	27686
822.008	27534
822.149	27420
822.289	27633
822.429	27363
822.569	27222
822.709	27207
822.849	27173
822.99	27036
823.13	27089
823.27	27161
823.41	26834
823.55	26792
823.69	26834
823.83	26815
823.97	26849
824.11	26632
824.25	26533
824.389	26621
824.529	26845
824.669	26758
824.809	27009
824.949	26921
825.089	26868
825.228	26895
825.368	26663
825.508	26636
825.648	26575
825.787	26667
825.927	26724
826.067	26636
826.206	26621
826.346	26727
826.485	26667
826.625	26545
826.765	26609
826.904	26560
827.044	26408
827.183	26377
827.323	26343
827.462	26492
827.601	26332
827.741	26339
827.88	26252
828.02	26328
828.159	26366
828.298	26240
828.437	26355
828.577	26301
828.716	26514
828.855	26385
828.994	26031
829.134	26020
829.273	26157
829.412	25932
829.551	26050
829.69	26016
829.829	25947
829.968	26164
830.107	26142
830.246	26088
830.385	25966
830.524	25989
830.663	25830
830.802	25696
830.941	25635
831.08	25483
831.219	25845
831.357	25647
831.496	25898
831.635	25620
831.774	25620
831.913	25430
832.051	25445
832.19	25411
832.329	25426
832.467	25179
832.606	25198
832.744	25255
832.883	25373
833.022	25259
833.16	25316
833.299	25285
833.437	25346
833.576	25259
833.714	25354
833.852	25354
833.991	25430
834.129	25609
834.267	25552
834.406	25354
834.544	25415
834.682	25434
834.821	25301
834.959	25479
835.097	25263
835.235	25426
835.373	25358
835.511	25373
835.65	25183
835.788	25240
835.926	25061
836.064	24992
836.202	25095
836.34	25217
836.478	25274
836.615	25091
836.753	25324
836.891	25266
837.029	25137
837.167	25053
837.305	25095
837.443	24973
837.58	24928
837.718	25069
837.856	25118
837.993	24920
838.131	24932
838.269	25042
838.406	24875
838.544	24840
838.681	24741
838.819	24661
838.956	24426
839.094	24525
839.231	24627
839.369	24589
839.506	24848
839.643	24833
839.781	24677
839.918	24410
840.055	24441
840.193	24498
840.33	24353
840.467	24414
840.604	24410
840.742	24642
840.879	24315
841.016	24213
841.153	24148
841.29	24441
841.427	24414
841.564	24460
841.701	24281
841.838	24342
841.975	24319
842.112	24369
842.249	24152
842.385	24152
842.522	24342
842.659	24289
842.796	24133
842.933	24178
843.069	24087
843.206	24152
843.343	24174
843.479	24129
843.616	24076
843.752	23828
843.889	23843
844.025	24034
844.162	23767
844.298	23942
844.435	23939
844.571	23950
844.708	23942
844.844	24117
844.98	24068
845.117	24011
845.253	23733
845.389	23882
845.525	23779
845.661	23809
845.798	23604
845.934	23802
846.07	23634
846.206	23665
846.342	23843
846.478	23619
846.614	23440
846.75	23296
846.886	23417
847.022	23421
847.158	23330
847.294	23410
847.429	23459
847.565	23326
847.701	23653
847.837	23022
847.972	22961
848.108	23079
848.244	23105
848.379	22942
848.515	22866
848.65	22927
848.786	23083
848.921	22927
849.057	22946
849.192	23113
849.328	22987
849.463	22915
849.598	22881
849.734	22805
849.869	22786
850.004	22847
850.14	22698
850.275	22694
850.41	22637
850.545	22717
850.68	22630
850.815	22694
850.95	22710
851.085	22866
851.22	22710
851.355	22774
851.49	22717
851.625	22736
851.76	22618
851.895	22561
852.03	22706
852.165	22641
852.299	22729
852.434	22774
852.569	22634
852.703	22630
852.838	22698
852.973	22843
853.107	22763
853.242	22637
853.376	22573
853.511	22466
853.645	22504
853.78	22687
853.914	22599
854.048	22390
854.183	22409
854.317	22512
854.451	22733
854.585	22565
854.72	22561
854.854	22660
854.988	22485
855.122	22497
855.256	22379
855.39	22512
855.524	22466
855.658	22527
855.792	22466
855.926	22538
856.06	22569
856.194	22588
856.327	22459
856.461	22462
856.595	22466
856.729	22508
856.862	22538
856.996	22481
857.13	22599
857.263	22656
857.397	22717
857.53	22443
857.664	22557
857.797	22470
857.931	22588
858.064	22497
858.197	22561
858.331	22565
858.464	22459
858.597	22375
858.731	22504
858.864	22527
858.997	22459
859.13	22451
859.263	22519
859.396	22550
859.529	22538
859.662	22440
859.795	22375
859.928	22554
860.061	22542
860.194	22733
860.327	22618
860.46	22386
860.592	22656
860.725	22710
860.858	22641
860.99	22497
861.123	22535
861.256	22409
861.388	22580
861.521	23288
861.653	22512
861.786	22287
861.918	22318
862.05	22348
862.183	22432
862.315	22519
862.447	22451
862.58	22466
862.712	22246
862.844	22166
862.976	22329
863.108	22341
863.24	22725
863.372	22166
863.504	22204
863.636	22238
863.768	22265
863.9	22196
864.032	22082
864.164	22196
864.296	22276
864.428	22413
864.559	22230
864.691	22382
864.823	22230
864.954	22067
865.086	22158
865.217	22211
865.349	21975
865.48	21941
865.612	22032
865.743	22215
865.875	22090
866.006	22128
866.137	22032
866.269	22048
866.4	22105
866.531	22051
866.662	22082
866.793	21945
866.924	22112
867.055	22070
867.186	22059
867.317	22097
867.448	21918
867.579	21922
867.71	21937
867.841	21854
867.972	21983
868.103	21949
868.233	21983
868.364	21918
868.495	22029
868.625	22188
868.756	22310
868.886	22181
869.017	22200
869.147	22306
869.278	22405
869.408	22272
869.539	22280
869.669	22325
869.799	22409
869.929	22462
870.06	22432
870.19	22481
870.32	22455
870.45	22615
870.58	22653
870.71	22763
870.84	22839
870.97	22801
871.1	22717
871.23	22866
871.36	22733
871.489	22816
871.619	22877
871.749	22881
871.879	22961
872.008	22858
872.138	22927
872.267	22900
872.397	22717
872.526	22672
872.656	22717
872.785	22729
872.915	22987
873.044	22938
873.173	22892
873.303	22896
873.432	22942
873.561	22896
873.69	22843
873.819	22771
873.948	22957
874.077	22934
874.206	22774
874.335	22854
874.464	22873
874.593	23064
874.722	23010
874.851	23258
874.979	23083
875.108	23162
875.237	22961
875.365	22957
875.494	23102
875.623	23181
875.751	23181
875.88	23143
876.008	23166
876.136	23162
876.265	23425
876.393	23573
876.521	23562
876.65	23459
876.778	23501
876.906	23463
877.034	23474
877.162	23410
877.29	23425
877.418	23440
877.546	23474
877.674	23463
877.802	23395
877.93	23448
878.058	23387
878.185	23315
878.313	23353
878.441	23455
878.568	23269
878.696	23296
878.824	23459
878.951	23486
879.079	23509
879.206	23680
879.333	23581
879.461	23535
879.588	23501
879.715	23551
879.842	23912
879.97	23410
880.097	23246
880.224	23231
880.351	23258
880.478	23303
880.605	23067
880.732	23284
880.859	23474
880.986	23200
881.112	23307
881.239	23014
881.366	22900
881.493	22900
881.619	22763
881.746	22873
881.872	22835
881.999	22733
882.125	22653
882.252	22911
882.378	22809
882.505	22957
882.631	22615
882.757	22538
882.883	22603
883.01	22554
883.136	22569
883.262	22459
883.388	22451
883.514	22481
883.64	22535
883.766	22402
883.892	22223
884.018	22306
884.143	22402
884.269	22481
884.395	22219
884.52	22120
884.646	22169
884.772	22154
884.897	22086
885.023	22158
885.148	22226
885.274	22230
885.399	22196
885.524	22131
885.65	22158
885.775	22162
885.9	21915
886.025	22230
886.15	22177
886.275	22166
886.4	22078
886.525	21994
886.65	22082
886.775	22105
886.9	22226
887.025	22261
887.149	22070
887.274	22074
887.399	21831
887.523	21930
887.648	21800
887.773	21831
887.897	22044
888.021	21949
888.146	21854
888.27	21899
888.395	22021
888.519	21873
888.643	21892
888.767	22082
888.891	21789
889.015	21789
889.139	21698
889.263	21705
889.387	21800
889.511	21873
889.635	21930
889.759	21625
889.883	21622
890.006	21671
890.13	21728
890.254	21656
890.377	21473
890.501	21538
890.624	21401
890.748	21428
890.871	21393
890.995	21127
891.118	21241
891.241	21355
891.364	21252
891.488	21321
891.611	21241
891.734	21199
891.857	21291
891.98	21214
892.103	21252
892.226	21180
892.349	21100
892.471	21017
892.594	21188
892.717	21180
892.839	21051
892.962	21051
893.085	21020
893.207	21104
893.33	21062
893.452	21005
893.575	21081
893.697	21085
893.819	21279
893.941	21241
894.064	21268
894.186	20990
894.308	20944
894.43	21268
894.552	21226
894.674	21245
894.796	20910
894.918	21135
895.04	21062
895.161	21157
895.283	21100
895.405	21104
895.526	21096
895.648	21131
895.769	21211
895.891	21207
896.012	21142
896.134	21093
896.255	21093
896.376	21066
896.498	20998
896.619	21017
896.74	21135
896.861	21142
896.982	21428
897.103	21534
897.224	21321
897.345	21237
897.466	21207
897.587	21306
897.708	21450
897.828	21363
897.949	21199
898.07	21199
898.19	21260
898.311	21317
898.431	21252
898.552	21283
898.672	21405
898.792	21272
898.913	21264
899.033	21287
899.153	21127
899.273	21005
899.393	20994
899.513	20998
899.633	20956
899.753	20956
899.873	20956
899.993	21047
900.113	20975
900.232	20982
900.352	20944
900.472	20777
900.591	20792
900.711	20868
900.83	20785
900.95	20845
901.069	20857
901.189	20716
901.308	20347
901.427	20358
901.546	20355
901.665	20377
901.784	20275
901.904	20161
902.023	20233
902.141	19906
902.26	19883
902.379	19959
902.498	19944
902.617	19887
902.735	19822
902.854	19917
902.973	19628
903.091	19605
903.21	19525
903.328	19552
903.446	19487
903.565	19278
903.683	19304
903.801	19240
903.919	19324
904.038	19164
904.156	19133
904.274	19190
904.392	19046
904.51	19110
904.627	19065
904.745	19069
904.863	19107
904.981	18871
905.098	18757
905.216	18787
905.334	18856
905.451	18802
905.569	18722
905.686	18783
905.803	18627
905.921	18490
906.038	18593
906.155	18517
906.272	18475
906.389	18486
906.506	18369
906.623	18251
906.74	18289
906.857	18178
906.974	18182
907.091	18353
907.208	18353
907.324	18388
907.441	18243
907.557	18015
907.674	18007
907.79	17904
907.907	18057
908.023	17901
908.139	18076
908.256	17874
908.372	17893
908.488	17859
908.604	17703
908.72	17630
908.836	17760
908.952	17619
909.068	17691
909.184	17707
909.3	17691
909.415	17726
909.531	17623
909.647	17421
909.762	17356
909.878	17353
909.993	17444
910.108	17383
910.224	17341
910.339	17391
910.454	17261
910.57	17239
910.685	17102
910.8	17459
910.915	17337
911.03	17239
911.145	17037
911.259	17003
911.374	16942
911.489	16885
911.604	16816
911.718	16641
911.833	16744
911.947	16607
912.062	16504
912.176	16729
912.291	16752
912.405	16767
912.519	16839
912.633	16869
912.748	16759
912.862	16592
912.976	16580
913.09	16375
913.204	16523
913.318	16569
913.431	16664
913.545	16561
913.659	16592
913.772	16409
913.886	16367
914	16242
914.113	16360
914.226	16356
914.34	16348
914.453	16265
914.566	16329
914.68	16291
914.793	16162
914.906	16071
915.019	15907
915.132	15793
915.245	15846
915.358	15926
915.47	15918
915.583	15842
915.696	15937
915.809	15983
915.921	16029
916.034	15831
916.146	15785
916.259	15869
916.371	15797
916.483	15717
916.595	15663
916.708	15728
916.82	15663
916.932	15667
917.044	15663
917.156	15709
917.268	15614
917.38	15519
917.491	15454
917.603	15526
917.715	15545
917.826	15694
917.938	15397
918.049	15424
918.161	15458
918.272	15652
918.384	15568
918.495	15473
918.606	15351
918.717	15207
918.828	15283
918.939	15306
919.05	15207
919.161	15252
919.272	15077
919.383	15013
919.494	15237
919.604	15401
919.715	15207
919.826	15165
919.936	15131
920.047	15237
920.157	15226
920.267	15317
920.378	15173
920.488	15184
920.598	15317
920.708	15469
920.818	15298
920.928	15367
921.038	15462
921.148	15492
921.258	15203
921.368	14971
921.477	14925
921.587	14883
921.697	14849
921.806	14883
921.916	14792
922.025	14621
922.134	14579
922.244	14583
922.353	14674
922.462	14377
922.571	14332
922.68	14248
922.789	14286
922.898	14157
923.007	14138
923.116	14183
923.224	14161
923.333	14065
923.442	13963
923.55	14050
923.659	13959
923.767	14153
923.876	13917
923.984	13951
924.092	13871
924.201	13955
924.309	13978
924.417	13856
924.525	13795
924.633	13753
924.741	14568
924.849	13613
924.956	13727
925.064	13590
925.172	13529
925.279	13567
925.387	13655
925.494	13609
925.602	13776
925.709	13636
925.816	13476
925.924	13525
926.031	13518
926.138	13430
926.245	13506
926.352	13403
926.459	13563
926.566	13480
926.673	13453
926.779	13270
926.886	13396
926.993	13202
927.099	13160
927.206	13095
927.312	13069
927.419	13114
927.525	13221
927.631	13175
927.737	12977
927.843	12829
927.95	12814
928.056	12863
928.162	12905
928.267	13110
928.373	13567
928.479	13027
928.585	12745
928.69	12916
928.796	12878
928.901	12764
929.007	12612
929.112	12779
929.218	12738
929.323	12707
929.428	12536
929.533	12757
929.638	12437
929.743	12627
929.848	12677
929.953	12528
930.058	12513
930.163	12346
930.267	12353
930.372	12414
930.477	12285
930.581	12494
930.685	12342
930.79	12209
930.894	12300
930.998	12216
931.103	12311
931.207	11916
931.311	11817
931.415	11817
931.519	11573
931.623	11600
