Data from test_V78500241_1729.txt Node
Date: Fri Mar 25 15:53:46 CST 2022
User: usil
Spectrometer: V785-0024
Trigger mode: 0
Integration Time (sec): 4.000000E-1
Scans to average: 1
Nonlinearity correction enabled: false
Boxcar width: 0
Storing dark spectrum: false
XAxis mode: Wavelengths
Number of Pixels in Spectrum: 1024
>>>>>Begin Spectral Data<<<<<
801.071	28428
801.214	28523
801.356	28215
801.499	28223
801.641	28021
801.783	28215
801.926	28067
802.068	28013
802.211	28105
802.353	28010
802.496	27918
802.638	27759
802.78	27709
802.923	27694
803.065	27660
803.208	27610
803.35	27751
803.492	27876
803.635	28013
803.777	27903
803.919	27998
804.061	28409
804.204	28051
804.346	27964
804.488	27880
804.63	27911
804.773	27808
804.915	28105
805.057	28051
805.199	27934
805.341	28135
805.483	28219
805.626	28097
805.768	28002
805.91	28158
806.052	28158
806.194	28097
806.336	28188
806.478	28177
806.62	28242
806.762	28367
806.904	28459
807.046	28653
807.188	28630
807.33	28694
807.472	28580
807.614	28538
807.756	28592
807.898	28455
808.04	28527
808.182	28474
808.324	28637
808.465	28519
808.607	28618
808.749	28755
808.891	28896
809.033	29056
809.174	28923
809.316	28900
809.458	28850
809.6	28869
809.741	28957
809.883	28995
810.025	29117
810.166	29242
810.308	29166
810.45	29102
810.591	28984
810.733	28976
810.875	28771
811.016	28835
811.158	28858
811.299	28946
811.441	28881
811.582	28991
811.724	28873
811.865	28816
812.007	28881
812.148	28820
812.29	28881
812.431	29086
812.573	29136
812.714	29368
812.855	29455
812.997	29512
813.138	29627
813.279	29589
813.421	29425
813.562	29353
813.703	29143
813.845	28953
813.986	28930
814.127	28569
814.268	28519
814.41	28694
814.551	28459
814.692	28637
814.833	28573
814.974	28542
815.115	28615
815.256	28466
815.397	28352
815.539	28466
815.68	28246
815.821	28280
815.962	28185
816.103	28401
816.244	28325
816.385	28253
816.526	28150
816.666	28040
816.807	27732
816.948	27945
817.089	27983
817.23	27899
817.371	27903
817.512	27713
817.653	27899
817.793	27812
817.934	27781
818.075	27888
818.216	27888
818.356	27759
818.497	27724
818.638	27492
818.778	27644
818.919	27606
819.06	27591
819.2	27694
819.341	27846
819.481	27827
819.622	28063
819.762	28177
819.903	28124
820.043	28063
820.184	27987
820.324	28090
820.465	28090
820.605	28147
820.746	27930
820.886	27835
821.026	27884
821.167	27884
821.307	28063
821.447	27926
821.588	27934
821.728	27675
821.868	27408
822.008	27351
822.149	27386
822.289	27382
822.429	27058
822.569	26979
822.709	27036
822.849	26872
822.99	26921
823.13	26883
823.27	26758
823.41	26575
823.55	26495
823.69	26655
823.83	26663
823.97	26571
824.11	26526
824.25	26415
824.389	26492
824.529	26537
824.669	26526
824.809	26571
824.949	26697
825.089	26621
825.228	26480
825.368	26434
825.508	26423
825.648	26408
825.787	26522
825.927	26393
826.067	26351
826.206	26423
826.346	26362
826.485	26442
826.625	26294
826.765	26522
826.904	26419
827.044	26107
827.183	26103
827.323	26050
827.462	26195
827.601	26138
827.741	26058
827.88	26153
828.02	26073
828.159	26046
828.298	26126
828.437	26176
828.577	25936
828.716	26119
828.855	25833
828.994	25841
829.134	25708
829.273	25875
829.412	25704
829.551	25674
829.69	25761
829.829	25902
829.968	25928
830.107	25860
830.246	25864
830.385	25658
830.524	25677
830.663	25655
830.802	25548
830.941	25388
831.08	25324
831.219	25495
831.357	25339
831.496	25525
831.635	25354
831.774	25206
831.913	25274
832.051	25114
832.19	25156
832.329	25278
832.467	25183
832.606	24970
832.744	25027
832.883	25114
833.022	24962
833.16	25050
833.299	25034
833.437	24985
833.576	25126
833.714	25168
833.852	25152
833.991	25126
834.129	25156
834.267	25228
834.406	25266
834.544	25133
834.682	25152
834.821	25095
834.959	25282
835.097	25137
835.235	25053
835.373	25183
835.511	25107
835.65	24935
835.788	24916
835.926	24703
836.064	24741
836.202	24776
836.34	25046
836.478	25156
836.615	24924
836.753	25027
836.891	25072
837.029	24875
837.167	24890
837.305	24795
837.443	24859
837.58	24665
837.718	24741
837.856	24684
837.993	24757
838.131	24783
838.269	24559
838.406	24696
838.544	24616
838.681	24479
838.819	24460
838.956	24308
839.094	24251
839.231	24281
839.369	24467
839.506	24593
839.643	24475
839.781	24186
839.918	24194
840.055	24247
840.193	24197
840.33	24117
840.467	24197
840.604	24155
840.742	24350
840.879	24209
841.016	24186
841.153	24121
841.29	24247
841.427	24064
841.564	24220
841.701	24015
841.838	24041
841.975	23999
842.112	24091
842.249	23950
842.385	23874
842.522	24095
842.659	23965
842.796	23805
842.933	23908
843.069	23927
843.206	23752
843.343	23912
843.479	23821
843.616	23859
843.752	23802
843.889	23604
844.025	23832
844.162	23775
844.298	23847
844.435	23649
844.571	23646
844.708	23729
844.844	23821
844.98	23714
845.117	23790
845.253	23684
845.389	23524
845.525	23509
845.661	23596
845.798	23379
845.934	23543
846.07	23368
846.206	23433
846.342	23570
846.478	23402
846.614	23204
846.75	23098
846.886	23037
847.022	23113
847.158	23124
847.294	23181
847.429	23128
847.565	23124
847.701	23322
847.837	22820
847.972	22812
848.108	22889
848.244	22843
848.379	22744
848.515	22675
848.65	22664
848.786	22729
848.921	22774
849.057	22812
849.192	22831
849.328	22721
849.463	22713
849.598	22634
849.734	22493
849.869	22504
850.004	22542
850.14	22538
850.275	22470
850.41	22405
850.545	22382
850.68	22405
850.815	22531
850.95	22516
851.085	22622
851.22	22554
851.355	22561
851.49	22398
851.625	22337
851.76	22546
851.895	22481
852.03	22451
852.165	22478
852.299	22622
852.434	22424
852.569	22478
852.703	22348
852.838	22580
852.973	22557
853.107	22500
853.242	22363
853.376	22394
853.511	22200
853.645	22200
853.78	22489
853.914	22188
854.048	22329
854.183	22253
854.317	22238
854.451	22653
854.585	22265
854.72	22234
854.854	22451
854.988	22211
855.122	22223
855.256	22272
855.39	22306
855.524	22314
855.658	22341
855.792	22249
855.926	22306
856.06	22280
856.194	22322
856.327	22238
856.461	22196
856.595	22257
856.729	22169
856.862	22466
856.996	22325
857.13	22295
857.263	22531
857.397	22462
857.53	22253
857.664	22428
857.797	22333
857.931	22367
858.064	22348
858.197	22531
858.331	22287
858.464	22219
858.597	22207
858.731	22116
858.864	22139
858.997	22223
859.13	22291
859.263	22333
859.396	22367
859.529	22310
859.662	22272
859.795	22314
859.928	22257
860.061	22379
860.194	22402
860.327	22379
860.46	22474
860.592	22318
860.725	22470
860.858	22481
860.99	22249
861.123	22192
861.256	22207
861.388	22356
861.521	23143
861.653	22192
861.786	22109
861.918	21983
862.05	22169
862.183	22070
862.315	22162
862.447	22246
862.58	22325
862.712	22120
862.844	22025
862.976	22032
863.108	22055
863.24	22375
863.372	22143
863.504	21926
863.636	21972
863.768	22017
863.9	21953
864.032	21880
864.164	21895
864.296	22135
864.428	21964
864.559	21983
864.691	22017
864.823	21987
864.954	21972
865.086	22067
865.217	21838
865.349	21842
865.48	21819
865.612	21812
865.743	22017
865.875	21876
866.006	21804
866.137	21804
866.269	21903
866.4	21835
866.531	21770
866.662	21648
866.793	21694
866.924	21743
867.055	21873
867.186	21884
867.317	21831
867.448	21637
867.579	21732
867.71	21614
867.841	21686
867.972	21865
868.103	21682
868.233	21781
868.364	21964
868.495	21819
868.625	22109
868.756	22116
868.886	21949
869.017	22173
869.147	22223
869.278	22082
869.408	22013
869.539	22070
869.669	22093
869.799	21949
869.929	22158
870.06	22173
870.19	22211
870.32	22352
870.45	22382
870.58	22432
870.71	22538
870.84	22508
870.97	22409
871.1	22394
871.23	22554
871.36	22615
871.489	22489
871.619	22500
871.749	22683
871.879	22683
872.008	22679
872.138	22599
872.267	22607
872.397	22531
872.526	22417
872.656	22485
872.785	22565
872.915	22736
873.044	22717
873.173	22656
873.303	22778
873.432	22668
873.561	22752
873.69	22622
873.819	22649
873.948	22782
874.077	22755
874.206	22580
874.335	22702
874.464	22721
874.593	22953
874.722	22911
874.851	22843
874.979	22854
875.108	22908
875.237	22809
875.365	22698
875.494	22805
875.623	23003
875.751	22847
875.88	22942
876.008	22911
876.136	23010
876.265	23143
876.393	23311
876.521	23277
876.65	23250
876.778	23280
876.906	23113
877.034	23231
877.162	23193
877.29	23037
877.418	23284
877.546	23269
877.674	23124
877.802	23147
877.93	23242
878.058	23277
878.185	23037
878.313	23086
878.441	23223
878.568	22980
878.696	23113
878.824	23288
878.951	23341
879.079	23318
879.206	23634
879.333	23436
879.461	23235
879.588	23193
879.715	23398
879.842	23478
879.97	23223
880.097	22980
880.224	23140
880.351	23010
880.478	23025
880.605	22949
880.732	23037
880.859	23162
880.986	23064
881.112	22980
881.239	22908
881.366	22691
881.493	22717
881.619	22675
881.746	22630
881.872	22630
881.999	22637
882.125	22588
882.252	22645
882.378	22519
882.505	22687
882.631	22421
882.757	22257
882.883	22325
883.01	22344
883.136	22143
883.262	22143
883.388	22154
883.514	22375
883.64	22181
883.766	22242
883.892	22021
884.018	21991
884.143	22200
884.269	22249
884.395	21903
884.52	21785
884.646	21865
884.772	21838
884.897	21762
885.023	21903
885.148	21979
885.274	22185
885.399	21857
885.524	21922
885.65	21930
885.775	21979
885.9	21835
886.025	21975
886.15	21983
886.275	21797
886.4	21869
886.525	21789
886.65	21816
886.775	21854
886.9	21968
887.025	22040
887.149	21827
887.274	21789
887.399	21629
887.523	21660
887.648	21641
887.773	21637
887.897	21698
888.021	21770
888.146	21656
888.27	21705
888.395	21797
888.519	21739
888.643	21667
888.767	21629
888.891	21488
889.015	21492
889.139	21603
889.263	21416
889.387	21568
889.511	21690
889.635	21557
889.759	21336
889.883	21367
890.006	21473
890.13	21625
890.254	21317
890.377	21416
890.501	21302
890.624	21173
890.748	21321
890.871	21180
890.995	21009
891.118	20952
891.241	21066
891.364	21051
891.488	21180
891.611	20960
891.734	20967
891.857	21055
891.98	21085
892.103	21070
892.226	21039
892.349	20842
892.471	20819
892.594	20914
892.717	20960
892.839	20937
892.962	20971
893.085	20952
893.207	20887
893.33	20838
893.452	20826
893.575	20975
893.697	20910
893.819	21119
893.941	21173
894.064	21032
894.186	20838
894.308	20682
894.43	21024
894.552	21112
894.674	20906
894.796	20727
894.918	20823
895.04	20895
895.161	20998
895.283	20891
895.405	20739
895.526	20998
895.648	20902
895.769	20975
895.891	20902
896.012	21036
896.134	20845
896.255	20781
896.376	20765
896.498	20887
896.619	20956
896.74	20914
896.861	20861
896.982	21131
897.103	21428
897.224	21089
897.345	21070
897.466	21119
897.587	21013
897.708	21268
897.828	21214
897.949	21081
898.07	20921
898.19	21055
898.311	21233
898.431	21047
898.552	21150
898.672	21055
898.792	21188
898.913	21005
899.033	20960
899.153	20910
899.273	20743
899.393	20906
899.513	20826
899.633	20815
899.753	20804
899.873	20842
899.993	20830
900.113	20701
900.232	20834
900.352	20644
900.472	20602
900.591	20609
900.711	20686
900.83	20575
900.95	20686
901.069	20648
901.189	20503
901.308	20252
901.427	20153
901.546	20149
901.665	20111
901.784	20115
901.904	20096
902.023	19868
902.141	19750
902.26	19769
902.379	19715
902.498	19700
902.617	19670
902.735	19738
902.854	19548
902.973	19537
903.091	19343
903.21	19335
903.328	19365
903.446	19187
903.565	19141
903.683	19297
903.801	19114
903.919	18996
904.038	19046
904.156	18962
904.274	18977
904.392	18848
904.51	18875
904.627	18833
904.745	18882
904.863	18920
904.981	18703
905.098	18646
905.216	18688
905.334	18578
905.451	18604
905.569	18585
905.686	18547
905.803	18547
905.921	18422
906.038	18353
906.155	18426
906.272	18281
906.389	18159
906.506	18057
906.623	18087
906.74	18114
906.857	17992
906.974	17935
907.091	18136
907.208	18277
907.324	18182
907.441	17984
907.557	17798
907.674	17813
907.79	17714
907.907	17710
908.023	17798
908.139	17832
908.256	17707
908.372	17733
908.488	17687
908.604	17543
908.72	17452
908.836	17558
908.952	17501
909.068	17596
909.184	17611
909.3	17490
909.415	17695
909.531	17383
909.647	17185
909.762	17277
909.878	17212
909.993	17223
910.108	17162
910.224	17094
910.339	17064
910.454	17018
910.57	17052
910.685	16980
910.8	17299
910.915	17162
911.03	16938
911.145	16896
911.259	16721
911.374	16740
911.489	16611
911.604	16573
911.718	16558
911.833	16580
911.947	16462
912.062	16344
912.176	16523
912.291	16580
912.405	16523
912.519	16588
912.633	16755
912.748	16485
912.862	16390
912.976	16299
913.09	16253
913.204	16280
913.318	16234
913.431	16462
913.545	16371
913.659	16443
913.772	16238
913.886	16109
914	16173
914.113	16226
914.226	16261
914.34	16276
914.453	15953
914.566	16154
914.68	16032
914.793	16010
914.906	15770
915.019	15686
915.132	15633
915.245	15736
915.358	15701
915.47	15682
915.583	15667
915.696	15766
915.809	15800
915.921	15907
916.034	15572
916.146	15606
916.259	15576
916.371	15736
916.483	15686
916.595	15542
916.708	15488
916.82	15424
916.932	15412
917.044	15481
917.156	15431
917.268	15249
917.38	15397
917.491	15306
917.603	15351
917.715	15370
917.826	15485
917.938	15176
918.049	15237
918.161	15264
918.272	15424
918.384	15412
918.495	15275
918.606	15138
918.717	14982
918.828	15188
918.939	15119
919.05	15036
919.161	15138
919.272	14914
919.383	14868
919.494	15195
919.604	15294
919.715	15062
919.826	14910
919.936	15070
920.047	15119
920.157	15039
920.267	15135
920.378	15028
920.488	14982
920.598	15077
920.708	15313
920.818	15195
920.928	15157
921.038	15275
921.148	15176
921.258	14910
921.368	14895
921.477	14781
921.587	14845
921.697	14640
921.806	14724
921.916	14648
922.025	14492
922.134	14404
922.244	14286
922.353	14370
922.462	14225
922.571	14103
922.68	14126
922.789	14008
922.898	14103
923.007	13932
923.116	14123
923.224	14103
923.333	13978
923.442	13875
923.55	13890
923.659	13837
923.767	13993
923.876	13734
923.984	13864
924.092	13693
924.201	13883
924.309	13693
924.417	13803
924.525	13658
924.633	13662
924.741	14400
924.849	13445
924.956	13704
925.064	13540
925.172	13365
925.279	13453
925.387	13502
925.494	13430
925.602	13464
925.709	13502
925.816	13304
925.924	13343
926.031	13430
926.138	13373
926.245	13434
926.352	13240
926.459	13388
926.566	13506
926.673	13251
926.779	13282
926.886	13190
926.993	12996
927.099	12943
927.206	12924
927.312	12935
927.419	13019
927.525	12924
927.631	12951
927.737	12852
927.843	12776
927.95	12677
928.056	12821
928.162	12810
928.267	12817
928.373	13449
928.479	12962
928.585	12532
928.69	12749
928.796	12703
928.901	12730
929.007	12464
929.112	12635
929.218	12677
929.323	12532
929.428	12483
929.533	12521
929.638	12479
929.743	12441
929.848	12540
929.953	12429
930.058	12289
930.163	12159
930.267	12152
930.372	12327
930.477	12148
930.581	12448
930.685	12205
930.79	12019
930.894	12106
930.998	11969
931.103	12098
931.207	11866
931.311	11710
931.415	11619
931.519	11429
931.623	11444
