Data from test_V78500241_1397.txt Node
Date: Fri Mar 25 15:51:28 CST 2022
User: usil
Spectrometer: V785-0024
Trigger mode: 0
Integration Time (sec): 4.000000E-1
Scans to average: 1
Nonlinearity correction enabled: false
Boxcar width: 0
Storing dark spectrum: false
XAxis mode: Wavelengths
Number of Pixels in Spectrum: 1024
>>>>>Begin Spectral Data<<<<<
801.071	27789
801.214	27641
801.356	27447
801.499	27397
801.641	27161
801.783	27222
801.926	27230
802.068	27218
802.211	27245
802.353	27070
802.496	27005
802.638	26842
802.78	26689
802.923	26773
803.065	26804
803.208	26857
803.35	26925
803.492	26956
803.635	27192
803.777	27051
803.919	27062
804.061	27313
804.204	27184
804.346	27070
804.488	26914
804.63	27036
804.773	26921
804.915	27058
805.057	27378
805.199	26937
805.341	27131
805.483	27207
805.626	27108
805.768	27070
805.91	27230
806.052	27199
806.194	27116
806.336	27310
806.478	27123
806.62	27275
806.762	27367
806.904	27561
807.046	27568
807.188	27511
807.33	27614
807.472	27823
807.614	27591
807.756	27614
807.898	27606
808.04	27408
808.182	27431
808.324	27591
808.465	27427
808.607	27743
808.749	27778
808.891	27918
809.033	27926
809.174	27953
809.316	27884
809.458	27838
809.6	27888
809.741	27869
809.883	27960
810.025	28128
810.166	28013
810.308	28021
810.45	28048
810.591	28032
810.733	27827
810.875	27785
811.016	27641
811.158	27599
811.299	27865
811.441	27949
811.582	27983
811.724	27637
811.865	27785
812.007	27835
812.148	27808
812.29	27914
812.431	28032
812.573	28116
812.714	28242
812.855	28230
812.997	28459
813.138	28478
813.279	28535
813.421	28306
813.562	28280
813.703	28223
813.845	28040
813.986	27842
814.127	27481
814.268	27454
814.41	27515
814.551	27447
814.692	27568
814.833	27370
814.974	27397
815.115	27424
815.256	27302
815.397	27412
815.539	27203
815.68	27397
815.821	27058
815.962	27291
816.103	27298
816.244	27173
816.385	27127
816.526	27051
816.666	26990
816.807	26727
816.948	26857
817.089	26990
817.23	26830
817.371	26807
817.512	26716
817.653	26727
817.793	26735
817.934	26823
818.075	26769
818.216	26754
818.356	26689
818.497	26644
818.638	26412
818.778	26552
818.919	26453
819.06	26594
819.2	26701
819.341	26743
819.481	26758
819.622	26845
819.762	27066
819.903	26940
820.043	26940
820.184	26948
820.324	26940
820.465	26880
820.605	26868
820.746	26819
820.886	26720
821.026	26781
821.167	26838
821.307	26948
821.447	26727
821.588	26746
821.728	26629
821.868	26545
822.008	26199
822.149	26377
822.289	26278
822.429	25997
822.569	25917
822.709	25898
822.849	25712
822.99	25799
823.13	25635
823.27	25708
823.41	25613
823.55	25381
823.69	25483
823.83	25578
823.97	25453
824.11	25449
824.25	25388
824.389	25403
824.529	25533
824.669	25441
824.809	25525
824.949	25373
825.089	25514
825.228	25445
825.368	25148
825.508	25091
825.648	25289
825.787	25263
825.927	25316
826.067	25324
826.206	25293
826.346	25244
826.485	25274
826.625	25190
826.765	25289
826.904	25312
827.044	25141
827.183	24989
827.323	24935
827.462	24989
827.601	25008
827.741	25012
827.88	25023
828.02	24772
828.159	24973
828.298	24992
828.437	25110
828.577	24886
828.716	25084
828.855	24954
828.994	24551
829.134	24635
829.273	24688
829.412	24639
829.551	24452
829.69	24688
829.829	24677
829.968	24608
830.107	24734
830.246	24692
830.385	24479
830.524	24574
830.663	24460
830.802	24338
830.941	24205
831.08	24140
831.219	24342
831.357	24292
831.496	24426
831.635	24258
831.774	24254
831.913	24220
832.051	24015
832.19	24083
832.329	24129
832.467	23961
832.606	23870
832.744	23984
832.883	24030
833.022	23870
833.16	23977
833.299	24136
833.437	23973
833.576	24106
833.714	23996
833.852	23969
833.991	24049
834.129	24022
834.267	24053
834.406	23931
834.544	23939
834.682	23912
834.821	23969
834.959	24125
835.097	23893
835.235	23977
835.373	23965
835.511	24007
835.65	23855
835.788	23942
835.926	23668
836.064	23589
836.202	23726
836.34	23714
836.478	23828
836.615	23802
836.753	23703
836.891	23912
837.029	23752
837.167	23699
837.305	23771
837.443	23592
837.58	23676
837.718	23756
837.856	23596
837.993	23474
838.131	23687
838.269	23547
838.406	23596
838.544	23455
838.681	23417
838.819	23345
838.956	23094
839.094	23212
839.231	23151
839.369	23261
839.506	23505
839.643	23265
839.781	23147
839.918	23029
840.055	23147
840.193	23147
840.33	23079
840.467	23136
840.604	23098
840.742	23315
840.879	22953
841.016	22869
841.153	22904
841.29	23105
841.427	23098
841.564	23094
841.701	23064
841.838	23071
841.975	22961
842.112	23006
842.249	22972
842.385	22713
842.522	22949
842.659	22866
842.796	22725
842.933	22847
843.069	22797
843.206	22729
843.343	22919
843.479	22778
843.616	22896
843.752	22428
843.889	22584
844.025	22797
844.162	22603
844.298	22573
844.435	22561
844.571	22561
844.708	22634
844.844	22771
844.98	22790
845.117	22744
845.253	22474
845.389	22478
845.525	22577
845.661	22398
845.798	22386
845.934	22390
846.07	22333
846.206	22371
846.342	22500
846.478	22299
846.614	22211
846.75	22048
846.886	22204
847.022	22124
847.158	22124
847.294	22154
847.429	21998
847.565	22059
847.701	22284
847.837	21785
847.972	21781
848.108	21827
848.244	21979
848.379	21701
848.515	21622
848.65	21618
848.786	21663
848.921	21720
849.057	21705
849.192	21838
849.328	21690
849.463	21583
849.598	21599
849.734	21610
849.869	21564
850.004	21416
850.14	21473
850.275	21431
850.41	21397
850.545	21378
850.68	21344
850.815	21393
850.95	21408
851.085	21595
851.22	21466
851.355	21447
851.49	21310
851.625	21378
851.76	21363
851.895	21325
852.03	21401
852.165	21439
852.299	21564
852.434	21466
852.569	21473
852.703	21420
852.838	21462
852.973	21504
853.107	21477
853.242	21359
853.376	21226
853.511	21329
853.645	21283
853.78	21344
853.914	21287
854.048	21218
854.183	21207
854.317	21268
854.451	21443
854.585	21256
854.72	21135
854.854	21260
854.988	21119
855.122	21329
855.256	21161
855.39	21184
855.524	21306
855.658	21317
855.792	21279
855.926	21332
856.06	21291
856.194	21389
856.327	21252
856.461	21119
856.595	21169
856.729	21226
856.862	21397
856.996	21199
857.13	21313
857.263	21355
857.397	21302
857.53	21226
857.664	21351
857.797	21275
857.931	21298
858.064	21313
858.197	21291
858.331	21226
858.464	21146
858.597	21096
858.731	21317
858.864	21161
858.997	21154
859.13	21226
859.263	21241
859.396	21393
859.529	21226
859.662	21173
859.795	21203
859.928	21173
860.061	21310
860.194	21374
860.327	21283
860.46	21222
860.592	21367
860.725	21386
860.858	21401
860.99	21233
861.123	21096
861.256	21332
861.388	21233
861.521	21846
861.653	21005
861.786	21131
861.918	21150
862.05	21066
862.183	21184
862.315	21218
862.447	21203
862.58	21192
862.712	21051
862.844	20952
862.976	21138
863.108	20971
863.24	21397
863.372	20998
863.504	20815
863.636	21020
863.768	21020
863.9	20929
864.032	20921
864.164	20914
864.296	21074
864.428	21051
864.559	21066
864.691	20910
864.823	20929
864.954	20849
865.086	20933
865.217	20796
865.349	20815
865.48	20967
865.612	20785
865.743	20990
865.875	20910
866.006	20773
866.137	20941
866.269	20925
866.4	20830
866.531	20883
866.662	20712
866.793	20743
866.924	20857
867.055	20914
867.186	20845
867.317	20750
867.448	20754
867.579	20769
867.71	20697
867.841	20762
867.972	20788
868.103	20716
868.233	20838
868.364	20758
868.495	20857
868.625	21013
868.756	21184
868.886	20963
869.017	21081
869.147	21169
869.278	21066
869.408	21013
869.539	20979
869.669	21131
869.799	21066
869.929	21161
870.06	21252
870.19	21348
870.32	21310
870.45	21329
870.58	21378
870.71	21591
870.84	21473
870.97	21469
871.1	21408
871.23	21538
871.36	21644
871.489	21447
871.619	21572
871.749	21618
871.879	21660
872.008	21724
872.138	21625
872.267	21561
872.397	21572
872.526	21523
872.656	21435
872.785	21500
872.915	21652
873.044	21823
873.173	21660
873.303	21762
873.432	21739
873.561	21717
873.69	21667
873.819	21625
873.948	21667
874.077	21637
874.206	21603
874.335	21633
874.464	21778
874.593	21869
874.722	21785
874.851	21846
874.979	21911
875.108	21861
875.237	21907
875.365	21819
875.494	21819
875.623	21922
875.751	21934
875.88	21819
876.008	22036
876.136	21987
876.265	22344
876.393	22306
876.521	22306
876.65	22504
876.778	22223
876.906	22272
877.034	22215
877.162	22261
877.29	22200
877.418	22280
877.546	22230
877.674	22143
877.802	22143
877.93	22150
878.058	22200
878.185	22135
878.313	22185
878.441	22200
878.568	22135
878.696	22234
878.824	22314
878.951	22291
879.079	22379
879.206	22451
879.333	22348
879.461	22341
879.588	22314
879.715	22276
879.842	22546
879.97	22356
880.097	21941
880.224	21956
880.351	22116
880.478	22090
880.605	22067
880.732	21945
880.859	22181
880.986	22010
881.112	22059
881.239	21892
881.366	21785
881.493	21785
881.619	21633
881.746	21652
881.872	21629
881.999	21622
882.125	21530
882.252	21652
882.378	21561
882.505	21633
882.631	21504
882.757	21363
882.883	21344
883.01	21310
883.136	21268
883.262	21154
883.388	21089
883.514	21313
883.64	21310
883.766	21249
883.892	21093
884.018	21104
884.143	21214
884.269	21397
884.395	21036
884.52	20982
884.646	21013
884.772	20792
884.897	20883
885.023	20944
885.148	20986
885.274	21188
885.399	21032
885.524	20933
885.65	20952
885.775	20994
885.9	21017
886.025	21146
886.15	21036
886.275	21020
886.4	20883
886.525	21047
886.65	20853
886.775	20708
886.9	21047
887.025	21150
887.149	20986
887.274	20739
887.399	20590
887.523	20682
887.648	20568
887.773	20705
887.897	20807
888.021	20765
888.146	20705
888.27	20834
888.395	20739
888.519	20785
888.643	20792
888.767	20807
888.891	20648
889.015	20476
889.139	20613
889.263	20552
889.387	20617
889.511	20686
889.635	20632
889.759	20507
889.883	20526
890.006	20632
890.13	20568
890.254	20488
890.377	20533
890.501	20271
890.624	20199
890.748	20332
890.871	20218
890.995	20054
891.118	19947
891.241	20092
891.364	20149
891.488	20282
891.611	20168
891.734	20054
891.857	20240
891.98	20157
892.103	20142
892.226	20115
892.349	20092
892.471	19845
892.594	20043
892.717	20046
892.839	20005
892.962	20001
893.085	20088
893.207	20008
893.33	19879
893.452	20012
893.575	20024
893.697	19986
893.819	20138
893.941	20263
894.064	20164
894.186	20024
894.308	19887
894.43	20126
894.552	20183
894.674	20081
894.796	20001
894.918	19925
895.04	20020
895.161	20031
895.283	20119
895.405	19944
895.526	20005
895.648	19974
895.769	20122
895.891	19974
896.012	20153
896.134	20107
896.255	20054
896.376	19940
896.498	20084
896.619	20088
896.74	20187
896.861	20161
896.982	20339
897.103	20549
897.224	20256
897.345	20130
897.466	20252
897.587	20244
897.708	20362
897.828	20252
897.949	20233
898.07	20100
898.19	20172
898.311	20275
898.431	20187
898.552	20153
898.672	20355
898.792	20396
898.913	20263
899.033	20115
899.153	20107
899.273	19868
899.393	20008
899.513	20050
899.633	20050
899.753	20016
899.873	19982
899.993	20012
900.113	19879
900.232	19944
900.352	19909
900.472	19845
900.591	19696
900.711	19864
900.83	19818
900.95	19921
901.069	19856
901.189	19666
901.308	19514
901.427	19293
901.546	19403
901.665	19445
901.784	19282
901.904	19304
902.023	19080
902.141	18928
902.26	18901
902.379	18954
902.498	18989
902.617	18768
902.735	18920
902.854	18795
902.973	18829
903.091	18540
903.21	18517
903.328	18502
903.446	18403
903.565	18410
903.683	18308
903.801	18144
903.919	18315
904.038	18346
904.156	18019
904.274	18209
904.392	18174
904.51	18106
904.627	18129
904.745	18155
904.863	18178
904.981	18045
905.098	17668
905.216	17722
905.334	17783
905.451	17790
905.569	17722
905.686	17718
905.803	17802
905.921	17497
906.038	17646
906.155	17615
906.272	17520
906.389	17551
906.506	17326
906.623	17356
906.74	17341
906.857	17223
906.974	17121
907.091	17372
907.208	17505
907.324	17326
907.441	17174
907.557	16946
907.674	17132
907.79	17014
907.907	17060
908.023	17128
908.139	17098
908.256	17098
908.372	16942
908.488	16866
908.604	16885
908.72	16713
908.836	16675
908.952	16736
909.068	16790
909.184	16816
909.3	16679
909.415	16790
909.531	16790
909.647	16405
909.762	16493
909.878	16436
909.993	16402
910.108	16440
910.224	16443
910.339	16500
910.454	16314
910.57	16234
910.685	16314
910.8	16493
910.915	16451
911.03	16257
911.145	16078
911.259	16029
911.374	16017
911.489	16074
911.604	15930
911.718	15732
911.833	15705
911.947	15800
912.062	15648
912.176	15789
912.291	15838
912.405	15724
912.519	16021
912.633	16044
912.748	15865
912.862	15789
912.976	15625
913.09	15481
913.204	15549
913.318	15648
913.431	15720
913.545	15705
913.659	15774
913.772	15561
913.886	15454
914	15359
914.113	15443
914.226	15473
914.34	15370
914.453	15344
914.566	15389
914.68	15241
914.793	15211
914.906	15055
915.019	15074
915.132	14941
915.245	14956
915.358	15013
915.47	15108
915.583	14952
915.696	15062
915.809	15157
915.921	15211
916.034	15135
916.146	14883
916.259	14906
916.371	14944
916.483	15001
916.595	14838
916.708	14861
916.82	14830
916.932	14857
917.044	14868
917.156	14876
917.268	14735
917.38	14689
917.491	14594
917.603	14625
917.715	14686
917.826	14777
917.938	14670
918.049	14560
918.161	14644
918.272	14750
918.384	14804
918.495	14724
918.606	14541
918.717	14412
918.828	14469
918.939	14488
919.05	14385
919.161	14461
919.272	14172
919.383	14298
919.494	14499
919.604	14629
919.715	14446
919.826	14320
919.936	14412
920.047	14545
920.157	14339
920.267	14617
920.378	14427
920.488	14457
920.598	14537
920.708	14701
920.818	14434
920.928	14541
921.038	14727
921.148	14613
921.258	14461
921.368	14210
921.477	14225
921.587	14119
921.697	14062
921.806	14180
921.916	13986
922.025	13879
922.134	13769
922.244	13791
922.353	13814
922.462	13742
922.571	13639
922.68	13430
922.789	13502
922.898	13514
923.007	13434
923.116	13457
923.224	13476
923.333	13346
923.442	13285
923.55	13324
923.659	13251
923.767	13438
923.876	13232
923.984	13331
924.092	13099
924.201	13156
924.309	13118
924.417	13198
924.525	13164
924.633	13221
924.741	13864
924.849	12985
924.956	13095
925.064	12886
925.172	12833
925.279	12875
925.387	12928
925.494	12901
925.602	13019
925.709	12924
925.816	12802
925.924	12817
926.031	12951
926.138	12837
926.245	12852
926.352	12703
926.459	12806
926.566	12890
926.673	12734
926.779	12658
926.886	12696
926.993	12521
927.099	12460
927.206	12365
927.312	12357
927.419	12563
927.525	12357
927.631	12353
927.737	12418
927.843	12262
927.95	12201
928.056	12171
928.162	12334
928.267	12361
928.373	12939
928.479	12334
928.585	12060
928.69	12163
928.796	12258
928.901	12148
929.007	11935
929.112	12064
929.218	12190
929.323	12003
929.428	12019
929.533	12038
929.638	11927
929.743	11973
929.848	12022
929.953	11927
930.058	11935
930.163	11703
930.267	11642
930.372	11908
930.477	11638
930.581	11821
930.685	11684
930.79	11592
930.894	11592
930.998	11532
931.103	11638
931.207	11303
931.311	11166
931.415	11201
931.519	10991
931.623	10942
