Data from test_V78500241_2871.txt Node
Date: Fri Mar 25 16:01:41 CST 2022
User: usil
Spectrometer: V785-0024
Trigger mode: 0
Integration Time (sec): 4.000000E-1
Scans to average: 1
Nonlinearity correction enabled: false
Boxcar width: 0
Storing dark spectrum: false
XAxis mode: Wavelengths
Number of Pixels in Spectrum: 1024
>>>>>Begin Spectral Data<<<<<
801.071	29204
801.214	29220
801.356	29064
801.499	29044
801.641	28839
801.783	28763
801.926	28736
802.068	28748
802.211	28839
802.353	28702
802.496	28573
802.638	28569
802.78	28440
802.923	28512
803.065	28409
803.208	28394
803.35	28478
803.492	28637
803.635	28801
803.777	28729
803.919	28774
804.061	29022
804.204	28942
804.346	28748
804.488	28660
804.63	28919
804.773	28717
804.915	28915
805.057	28946
805.199	28717
805.341	29022
805.483	28968
805.626	28908
805.768	28755
805.91	28869
806.052	28987
806.194	28824
806.336	29239
806.478	28961
806.62	28908
806.762	29132
806.904	29143
807.046	29493
807.188	29345
807.33	29318
807.472	29459
807.614	29444
807.756	29368
807.898	29288
808.04	29143
808.182	29181
808.324	29345
808.465	29220
808.607	29520
808.749	29691
808.891	29783
809.033	29805
809.174	29794
809.316	29611
809.458	29733
809.6	29714
809.741	29874
809.883	29672
810.025	29977
810.166	29927
810.308	29939
810.45	29874
810.591	29882
810.733	29817
810.875	29707
811.016	29562
811.158	29558
811.299	29608
811.441	29946
811.582	29851
811.724	29684
811.865	29543
812.007	29691
812.148	29790
812.29	29699
812.431	29764
812.573	30064
812.714	30121
812.855	30213
812.997	30296
813.138	30494
813.279	30384
813.421	30330
813.562	29999
813.703	30083
813.845	29901
813.986	29790
814.127	29668
814.268	29490
814.41	29459
814.551	29258
814.692	29486
814.833	29337
814.974	29421
815.115	29505
815.256	29242
815.397	29436
815.539	29246
815.68	29189
815.821	29151
815.962	29372
816.103	29254
816.244	29060
816.385	28999
816.526	29090
816.666	28786
816.807	28679
816.948	28793
817.089	28824
817.23	28801
817.371	28725
817.512	28725
817.653	28831
817.793	28797
817.934	28706
818.075	28637
818.216	28599
818.356	28740
818.497	28546
818.638	28519
818.778	28691
818.919	28573
819.06	28535
819.2	28664
819.341	28698
819.481	28637
819.622	28908
819.762	29109
819.903	29010
820.043	29022
820.184	29003
820.324	28835
820.465	28923
820.605	28843
820.746	28953
820.886	28809
821.026	28843
821.167	28984
821.307	28923
821.447	28748
821.588	28771
821.728	28611
821.868	28409
822.008	28382
822.149	28219
822.289	28284
822.429	28055
822.569	27930
822.709	27960
822.849	27755
822.99	27743
823.13	27728
823.27	27694
823.41	27599
823.55	27447
823.69	27576
823.83	27625
823.97	27720
824.11	27427
824.25	27298
824.389	27382
824.529	27450
824.669	27450
824.809	27538
824.949	27485
825.089	27462
825.228	27568
825.368	27203
825.508	27367
825.648	27291
825.787	27272
825.927	27454
826.067	27291
826.206	27287
826.346	27401
826.485	27325
826.625	27176
826.765	27408
826.904	27443
827.044	27199
827.183	27199
827.323	26990
827.462	27131
827.601	27077
827.741	26933
827.88	27112
828.02	26823
828.159	26982
828.298	27017
828.437	27085
828.577	26948
828.716	27028
828.855	26872
828.994	26777
829.134	26708
829.273	26708
829.412	26644
829.551	26617
829.69	26644
829.829	26693
829.968	26587
830.107	26811
830.246	26712
830.385	26712
830.524	26571
830.663	26442
830.802	26446
830.941	26275
831.08	26404
831.219	26305
831.357	26431
831.496	26507
831.635	26290
831.774	26263
831.913	26202
832.051	26054
832.19	26062
832.329	26115
832.467	25940
832.606	25989
832.744	25871
832.883	26005
833.022	25951
833.16	25986
833.299	25932
833.437	26039
833.576	26043
833.714	26012
833.852	26054
833.991	26122
834.129	26153
834.267	26081
834.406	26065
834.544	25963
834.682	25966
834.821	26149
834.959	26172
835.097	25887
835.235	26081
835.373	26005
835.511	26050
835.65	25818
835.788	25791
835.926	25727
836.064	25662
836.202	25818
836.34	25750
836.478	25860
836.615	25780
836.753	25784
836.891	25788
837.029	25795
837.167	25803
837.305	25871
837.443	25689
837.58	25506
837.718	25647
837.856	25746
837.993	25586
838.131	25670
838.269	25537
838.406	25609
838.544	25514
838.681	25301
838.819	25183
838.956	25091
839.094	25194
839.231	25251
839.369	25285
839.506	25632
839.643	25331
839.781	25194
839.918	25118
840.055	25110
840.193	25042
840.33	24977
840.467	25107
840.604	25061
840.742	25259
840.879	24897
841.016	24939
841.153	24913
841.29	25217
841.427	25012
841.564	24977
841.701	25095
841.838	25031
841.975	25034
842.112	24817
842.249	24837
842.385	24764
842.522	24985
842.659	24875
842.796	24859
842.933	24612
843.069	24741
843.206	24730
843.343	24894
843.479	24734
843.616	24848
843.752	24620
843.889	24483
844.025	24802
844.162	24574
844.298	24665
844.435	24608
844.571	24448
844.708	24696
844.844	24623
844.98	24669
845.117	24627
845.253	24353
845.389	24467
845.525	24475
845.661	24433
845.798	24194
845.934	24220
846.07	24174
846.206	24243
846.342	24475
846.478	24174
846.614	24045
846.75	23897
846.886	24026
847.022	24171
847.158	24022
847.294	23996
847.429	23931
847.565	23988
847.701	24232
847.837	23707
847.972	23608
848.108	23790
848.244	23718
848.379	23649
848.515	23562
848.65	23687
848.786	23512
848.921	23554
849.057	23710
849.192	23528
849.328	23649
849.463	23661
849.598	23539
849.734	23547
849.869	23395
850.004	23391
850.14	23356
850.275	23353
850.41	23326
850.545	23307
850.68	23307
850.815	23455
850.95	23360
851.085	23452
851.22	23379
851.355	23398
851.49	23383
851.625	23398
851.76	23376
851.895	23288
852.03	23433
852.165	23216
852.299	23376
852.434	23334
852.569	23501
852.703	23387
852.838	23330
852.973	23379
853.107	23444
853.242	23105
853.376	23273
853.511	22953
853.645	23094
853.78	23231
853.914	23227
854.048	23181
854.183	23147
854.317	23143
854.451	23414
854.585	23121
854.72	23200
854.854	23254
854.988	23246
855.122	23121
855.256	23075
855.39	23212
855.524	23288
855.658	23147
855.792	23162
855.926	23128
856.06	23071
856.194	23258
856.327	23128
856.461	23193
856.595	23162
856.729	23102
856.862	23197
856.996	23265
857.13	23235
857.263	23326
857.397	23235
857.53	23075
857.664	23265
857.797	23280
857.931	23277
858.064	23284
858.197	23277
858.331	23216
858.464	23166
858.597	23006
858.731	23113
858.864	23071
858.997	23056
859.13	23094
859.263	23162
859.396	23143
859.529	23124
859.662	23117
859.795	23162
859.928	23098
860.061	23277
860.194	23402
860.327	23239
860.46	23170
860.592	23315
860.725	23326
860.858	23356
860.99	23200
861.123	23048
861.256	23124
861.388	23193
861.521	23859
861.653	23018
861.786	23056
861.918	23033
862.05	23064
862.183	23037
862.315	23105
862.447	23075
862.58	23083
862.712	22911
862.844	22854
862.976	23018
863.108	22900
863.24	23353
863.372	22831
863.504	22801
863.636	22877
863.768	22915
863.9	22923
864.032	22831
864.164	22927
864.296	22824
864.428	23029
864.559	22892
864.691	22995
864.823	22923
864.954	22896
865.086	22812
865.217	22782
865.349	22771
865.48	22691
865.612	22858
865.743	22873
865.875	22812
866.006	22809
866.137	22873
866.269	22668
866.4	22618
866.531	22664
866.662	22683
866.793	22679
866.924	22656
867.055	22713
867.186	22645
867.317	22717
867.448	22497
867.579	22668
867.71	22736
867.841	22493
867.972	22641
868.103	22618
868.233	22668
868.364	22641
868.495	22717
868.625	22847
868.756	22999
868.886	22831
869.017	22801
869.147	22930
869.278	23048
869.408	22881
869.539	22835
869.669	22961
869.799	22938
869.929	23033
870.06	22980
870.19	23117
870.32	23181
870.45	23204
870.58	23231
870.71	23322
870.84	23387
870.97	23288
871.1	23414
871.23	23474
871.36	23467
871.489	23368
871.619	23337
871.749	23410
871.879	23558
872.008	23665
872.138	23452
872.267	23455
872.397	23402
872.526	23311
872.656	23368
872.785	23417
872.915	23512
873.044	23657
873.173	23554
873.303	23490
873.432	23581
873.561	23707
873.69	23444
873.819	23562
873.948	23661
874.077	23467
874.206	23482
874.335	23455
874.464	23638
874.593	23676
874.722	23596
874.851	23817
874.979	23691
875.108	23775
875.237	23566
875.365	23528
875.494	23608
875.623	23904
875.751	23668
875.88	23802
876.008	23874
876.136	23855
876.265	24251
876.393	24201
876.521	24213
876.65	24251
876.778	24026
876.906	24102
877.034	23889
877.162	24057
877.29	23904
877.418	24053
877.546	24144
877.674	24060
877.802	24224
877.93	24011
878.058	24007
878.185	23935
878.313	23927
878.441	24102
878.568	23889
878.696	23946
878.824	24026
878.951	24178
879.079	24266
879.206	24433
879.333	24178
879.461	24110
879.588	24053
879.715	24136
879.842	24292
879.97	24091
880.097	23942
880.224	23958
880.351	23847
880.478	23885
880.605	23897
880.732	23863
880.859	24171
880.986	23882
881.112	23737
881.239	23691
881.366	23615
881.493	23471
881.619	23486
881.746	23368
881.872	23387
881.999	23356
882.125	23364
882.252	23425
882.378	23318
882.505	23501
882.631	23239
882.757	23174
882.883	23208
883.01	23006
883.136	23060
883.262	22927
883.388	22980
883.514	23147
883.64	22980
883.766	22976
883.892	22892
884.018	22892
884.143	23010
884.269	23155
884.395	22782
884.52	22660
884.646	22721
884.772	22645
884.897	22660
885.023	22782
885.148	22812
885.274	22873
885.399	22812
885.524	22694
885.65	22713
885.775	22691
885.9	22588
886.025	22752
886.15	22721
886.275	22618
886.4	22603
886.525	22664
886.65	22622
886.775	22523
886.9	22820
887.025	22934
887.149	22664
887.274	22527
887.399	22535
887.523	22421
887.648	22443
887.773	22394
887.897	22485
888.021	22489
888.146	22417
888.27	22542
888.395	22508
888.519	22512
888.643	22538
888.767	22516
888.891	22169
889.015	22306
889.139	22413
889.263	22276
889.387	22360
889.511	22421
889.635	22306
889.759	22291
889.883	22299
890.006	22090
890.13	22280
890.254	22112
890.377	22192
890.501	21922
890.624	22010
890.748	22025
890.871	21823
890.995	21762
891.118	21781
891.241	21846
891.364	21850
891.488	21968
891.611	21759
891.734	21838
891.857	21865
891.98	21869
892.103	21762
892.226	21762
892.349	21789
892.471	21447
892.594	21705
892.717	21709
892.839	21595
892.962	21671
893.085	21800
893.207	21618
893.33	21488
893.452	21599
893.575	21641
893.697	21701
893.819	21941
893.941	21850
894.064	21876
894.186	21622
894.308	21610
894.43	21785
894.552	21873
894.674	21842
894.796	21485
894.918	21663
895.04	21542
895.161	21652
895.283	21625
895.405	21443
895.526	21679
895.648	21603
895.769	21682
895.891	21610
896.012	21724
896.134	21713
896.255	21774
896.376	21500
896.498	21614
896.619	21576
896.74	21743
896.861	21614
896.982	21934
897.103	22090
897.224	21854
897.345	21873
897.466	21793
897.587	21812
897.708	21945
897.828	21937
897.949	21770
898.07	21603
898.19	21675
898.311	21968
898.431	21774
898.552	21724
898.672	21804
898.792	21926
898.913	21793
899.033	21644
899.153	21580
899.273	21561
899.393	21549
899.513	21568
899.633	21564
899.753	21534
899.873	21408
899.993	21511
900.113	21401
900.232	21641
900.352	21397
900.472	21462
900.591	21302
900.711	21291
900.83	21226
900.95	21348
901.069	21294
901.189	21230
901.308	21017
901.427	20792
901.546	20857
901.665	20826
901.784	20785
901.904	20667
902.023	20644
902.141	20343
902.26	20438
902.379	20419
902.498	20522
902.617	20267
902.735	20282
902.854	20309
902.973	20317
903.091	20126
903.21	20062
903.328	19951
903.446	19944
903.565	19772
903.683	19761
903.801	19704
903.919	19700
904.038	19784
904.156	19567
904.274	19628
904.392	19438
904.51	19571
904.627	19533
904.745	19582
904.863	19662
904.981	19392
905.098	19175
905.216	19175
905.334	19164
905.451	19255
905.569	19110
905.686	19194
905.803	19217
905.921	19023
906.038	19107
906.155	18962
906.272	18905
906.389	18924
906.506	18696
906.623	18753
906.74	18776
906.857	18707
906.974	18696
907.091	18829
907.208	18848
907.324	18787
907.441	18642
907.557	18509
907.674	18464
907.79	18369
907.907	18407
908.023	18490
908.139	18604
908.256	18289
908.372	18289
908.488	18243
908.604	18163
908.72	18182
908.836	18110
908.952	18129
909.068	18174
909.184	18254
909.3	18129
909.415	18144
909.531	18163
909.647	17996
909.762	17851
909.878	17901
909.993	17756
910.108	17741
910.224	17771
910.339	17779
910.454	17707
910.57	17634
910.685	17592
910.8	17882
910.915	17767
911.03	17649
911.145	17509
911.259	17372
911.374	17436
911.489	17341
911.604	17227
911.718	17178
911.833	17178
911.947	16980
912.062	17029
912.176	17155
912.291	17166
912.405	17181
912.519	17421
912.633	17269
912.748	17170
912.862	17128
912.976	17086
913.09	16892
913.204	16915
913.318	16995
913.431	17048
913.545	17056
913.659	17109
913.772	16923
913.886	16835
914	16698
914.113	16847
914.226	16877
914.34	16843
914.453	16721
914.566	16706
914.68	16630
914.793	16687
914.906	16413
915.019	16371
915.132	16314
915.245	16295
915.358	16284
915.47	16318
915.583	16325
915.696	16386
915.809	16363
915.921	16481
916.034	16265
916.146	16257
916.259	16211
916.371	16333
916.483	16238
916.595	16078
916.708	16071
916.82	16109
916.932	16055
917.044	16036
917.156	15968
917.268	15907
917.38	15964
917.491	15945
917.603	15926
917.715	15987
917.826	15979
917.938	15812
918.049	15766
918.161	15903
918.272	15964
918.384	15892
918.495	15831
918.606	15641
918.717	15637
918.828	15739
918.939	15675
919.05	15549
919.161	15641
919.272	15420
919.383	15511
919.494	15572
919.604	15873
919.715	15690
919.826	15469
919.936	15511
920.047	15690
920.157	15599
920.267	15766
920.378	15591
920.488	15622
920.598	15618
920.708	15956
920.818	15717
920.928	15770
921.038	15842
921.148	15793
921.258	15606
921.368	15462
921.477	15336
921.587	15252
921.697	15188
921.806	15237
921.916	15093
922.025	14948
922.134	14914
922.244	14921
922.353	14918
922.462	14815
922.571	14701
922.68	14575
922.789	14606
922.898	14613
923.007	14476
923.116	14598
923.224	14514
923.333	14457
923.442	14427
923.55	14339
923.659	14412
923.767	14412
923.876	14313
923.984	14301
924.092	14225
924.201	14282
924.309	14290
924.417	14324
924.525	14233
924.633	14225
924.741	15112
924.849	14050
924.956	14123
925.064	13940
925.172	13814
925.279	13849
925.387	13947
925.494	13902
925.602	13989
925.709	13917
925.816	13871
925.924	13769
926.031	13955
926.138	13841
926.245	13906
926.352	13750
926.459	13883
926.566	13913
926.673	13818
926.779	13643
926.886	13651
926.993	13540
927.099	13521
927.206	13400
927.312	13396
927.419	13441
927.525	13419
927.631	13476
927.737	13297
927.843	13312
927.95	13183
928.056	13244
928.162	13301
928.267	13316
928.373	13921
928.479	13350
928.585	13110
928.69	13217
928.796	13198
928.901	13080
929.007	12859
929.112	13168
929.218	13053
929.323	13061
929.428	12928
929.533	13061
929.638	12935
929.743	12852
929.848	12954
929.953	12890
930.058	12764
930.163	12650
930.267	12692
930.372	12665
930.477	12681
930.581	12726
930.685	12635
930.79	12494
930.894	12593
930.998	12464
931.103	12528
931.207	12266
931.311	12159
931.415	11996
931.519	11870
931.623	11855
