Data from test_V78500241_2664.txt Node
Date: Fri Mar 25 16:00:15 CST 2022
User: usil
Spectrometer: V785-0024
Trigger mode: 0
Integration Time (sec): 4.000000E-1
Scans to average: 1
Nonlinearity correction enabled: false
Boxcar width: 0
Storing dark spectrum: false
XAxis mode: Wavelengths
Number of Pixels in Spectrum: 1024
>>>>>Begin Spectral Data<<<<<
801.071	28984
801.214	28801
801.356	28630
801.499	28630
801.641	28401
801.783	28535
801.926	28485
802.068	28497
802.211	28314
802.353	28394
802.496	28363
802.638	28131
802.78	28135
802.923	28112
803.065	28013
803.208	28204
803.35	28188
803.492	28314
803.635	28462
803.777	28360
803.919	28459
804.061	28816
804.204	28443
804.346	28409
804.488	28303
804.63	28272
804.773	28523
804.915	28557
805.057	28649
805.199	28478
805.341	28637
805.483	28531
805.626	28649
805.768	28451
805.91	28691
806.052	28634
806.194	28459
806.336	28588
806.478	28675
806.62	28569
806.762	28782
806.904	28809
807.046	28949
807.188	29033
807.33	29098
807.472	28999
807.614	29090
807.756	29079
807.898	28961
808.04	28858
808.182	28877
808.324	28771
808.465	28923
808.607	29147
808.749	29223
808.891	29414
809.033	29417
809.174	29326
809.316	29132
809.458	29254
809.6	29231
809.741	29341
809.883	29501
810.025	29680
810.166	29463
810.308	29585
810.45	29531
810.591	29440
810.733	29307
810.875	29277
811.016	29181
811.158	29193
811.299	29505
811.441	29478
811.582	29558
811.724	29223
811.865	29311
812.007	29280
812.148	29242
812.29	29303
812.431	29493
812.573	29573
812.714	29657
812.855	29836
812.997	29836
813.138	29965
813.279	29942
813.421	29927
813.562	29847
813.703	29600
813.845	29474
813.986	29223
814.127	29162
814.268	29121
814.41	28995
814.551	29041
814.692	29060
814.833	29003
814.974	28991
815.115	29044
815.256	28733
815.397	28972
815.539	28919
815.68	28847
815.821	28786
815.962	28885
816.103	28793
816.244	28767
816.385	28599
816.526	28664
816.666	28306
816.807	28272
816.948	28409
817.089	28592
817.23	28424
817.371	28196
817.512	28287
817.653	28322
817.793	28196
817.934	28371
818.075	28329
818.216	28405
818.356	28314
818.497	28226
818.638	27937
818.778	28013
818.919	28291
819.06	28257
819.2	28120
819.341	28360
819.481	28337
819.622	28474
819.762	28694
819.903	28679
820.043	28512
820.184	28538
820.324	28557
820.465	28538
820.605	28325
820.746	28500
820.886	28268
821.026	28535
821.167	28573
821.307	28466
821.447	28329
821.588	28360
821.728	28143
821.868	28010
822.008	27892
822.149	27819
822.289	27800
822.429	27477
822.569	27580
822.709	27561
822.849	27386
822.99	27332
823.13	27420
823.27	27306
823.41	27195
823.55	27116
823.69	27142
823.83	27131
823.97	27127
824.11	26982
824.25	26899
824.389	26925
824.529	27104
824.669	27017
824.809	27047
824.949	27154
825.089	27089
825.228	26971
825.368	26895
825.508	26823
825.648	26910
825.787	26918
825.927	26849
826.067	26834
826.206	26735
826.346	26944
826.485	26986
826.625	26845
826.765	26861
826.904	26967
827.044	26670
827.183	26602
827.323	26731
827.462	26621
827.601	26457
827.741	26564
827.88	26442
828.02	26442
828.159	26613
828.298	26545
828.437	26701
828.577	26552
828.716	26644
828.855	26518
828.994	26248
829.134	26199
829.273	26317
829.412	26157
829.551	26256
829.69	26286
829.829	26286
829.968	26336
830.107	26336
830.246	26271
830.385	26172
830.524	25986
830.663	26008
830.802	25955
830.941	25837
831.08	25947
831.219	25928
831.357	25925
831.496	26065
831.635	25841
831.774	25871
831.913	25769
832.051	25685
832.19	25712
832.329	25700
832.467	25753
832.606	25449
832.744	25506
832.883	25445
833.022	25400
833.16	25643
833.299	25544
833.437	25658
833.576	25616
833.714	25552
833.852	25708
833.991	25609
834.129	25628
834.267	25613
834.406	25578
834.544	25616
834.682	25552
834.821	25590
834.959	25833
835.097	25643
835.235	25559
835.373	25540
835.511	25613
835.65	25411
835.788	25506
835.926	25388
836.064	25304
836.202	25202
836.34	25438
836.478	25540
836.615	25369
836.753	25434
836.891	25514
837.029	25415
837.167	25415
837.305	25510
837.443	25293
837.58	25190
837.718	25392
837.856	25259
837.993	25327
838.131	25088
838.269	25156
838.406	25240
838.544	24939
838.681	24863
838.819	24939
838.956	24642
839.094	24684
839.231	24696
839.369	24806
839.506	25072
839.643	24966
839.781	24719
839.918	24635
840.055	24802
840.193	24684
840.33	24635
840.467	24696
840.604	24589
840.742	24844
840.879	24395
841.016	24521
841.153	24429
841.29	24677
841.427	24582
841.564	24623
841.701	24623
841.838	24544
841.975	24441
842.112	24429
842.249	24582
842.385	24296
842.522	24544
842.659	24388
842.796	24399
842.933	24338
843.069	24353
843.206	24205
843.343	24380
843.479	24391
843.616	24323
843.752	24121
843.889	24136
844.025	24323
844.162	24068
844.298	24384
844.435	24102
844.571	24030
844.708	24235
844.844	24380
844.98	24258
845.117	24232
845.253	24053
845.389	23988
845.525	24053
845.661	23961
845.798	23897
845.934	24007
846.07	23965
846.206	23863
846.342	24015
846.478	23920
846.614	23646
846.75	23554
846.886	23505
847.022	23699
847.158	23661
847.294	23661
847.429	23611
847.565	23619
847.701	23794
847.837	23376
847.972	23292
848.108	23372
848.244	23356
848.379	23273
848.515	23162
848.65	23227
848.786	23140
848.921	23117
849.057	23212
849.192	23269
849.328	23311
849.463	23185
849.598	23140
849.734	23067
849.869	23056
850.004	22923
850.14	22946
850.275	22911
850.41	22786
850.545	22987
850.68	22866
850.815	23022
850.95	23056
851.085	23147
851.22	23079
851.355	22949
851.49	22881
851.625	22915
851.76	22919
851.895	22767
852.03	22843
852.165	22965
852.299	23037
852.434	22949
852.569	23143
852.703	22919
852.838	23090
852.973	22957
853.107	22980
853.242	22942
853.376	22831
853.511	22603
853.645	22729
853.78	22896
853.914	22744
854.048	22702
854.183	22733
854.317	22820
854.451	22946
854.585	22850
854.72	22805
854.854	22786
854.988	22759
855.122	22869
855.256	22744
855.39	22736
855.524	22919
855.658	22812
855.792	22767
855.926	22786
856.06	22835
856.194	22816
856.327	22866
856.461	22786
856.595	22725
856.729	22771
856.862	22816
856.996	22771
857.13	22866
857.263	22801
857.397	22664
857.53	22839
857.664	22805
857.797	22759
857.931	22927
858.064	22706
858.197	22953
858.331	22710
858.464	22835
858.597	22713
858.731	22710
858.864	22649
858.997	22672
859.13	22763
859.263	22873
859.396	22786
859.529	22668
859.662	22725
859.795	22649
859.928	22854
860.061	22889
860.194	23029
860.327	22755
860.46	22752
860.592	22946
860.725	23041
860.858	22885
860.99	22759
861.123	22679
861.256	22812
861.388	22778
861.521	23490
861.653	22736
861.786	22493
861.918	22523
862.05	22592
862.183	22649
862.315	22694
862.447	22778
862.58	22717
862.712	22554
862.844	22432
862.976	22645
863.108	22592
863.24	22759
863.372	22360
863.504	22443
863.636	22443
863.768	22440
863.9	22516
864.032	22436
864.164	22352
864.296	22561
864.428	22577
864.559	22546
864.691	22736
864.823	22390
864.954	22341
865.086	22470
865.217	22459
865.349	22284
865.48	22424
865.612	22352
865.743	22500
865.875	22310
866.006	22348
866.137	22500
866.269	22230
866.4	22219
866.531	22230
866.662	22131
866.793	22329
866.924	22204
867.055	22276
867.186	22295
867.317	22276
867.448	22185
867.579	22162
867.71	22238
867.841	22166
867.972	22230
868.103	22249
868.233	22238
868.364	22268
868.495	22341
868.625	22447
868.756	22626
868.886	22436
869.017	22538
869.147	22634
869.278	22634
869.408	22580
869.539	22508
869.669	22550
869.799	22645
869.929	22512
870.06	22641
870.19	22755
870.32	22900
870.45	22854
870.58	22873
870.71	23006
870.84	23029
870.97	22782
871.1	22809
871.23	23033
871.36	23166
871.489	22999
871.619	23098
871.749	23094
871.879	23162
872.008	23159
872.138	23303
872.267	23117
872.397	23033
872.526	22938
872.656	22946
872.785	22908
872.915	23113
873.044	23098
873.173	22927
873.303	23356
873.432	23086
873.561	23075
873.69	23208
873.819	23227
873.948	23170
874.077	23132
874.206	23064
874.335	23155
874.464	23227
874.593	23414
874.722	23261
874.851	23455
874.979	23292
875.108	23566
875.237	23261
875.365	23174
875.494	23250
875.623	23436
875.751	23273
875.88	23345
876.008	23467
876.136	23589
876.265	23718
876.393	23748
876.521	23760
876.65	23809
876.778	23733
876.906	23596
877.034	23699
877.162	23604
877.29	23535
877.418	23779
877.546	23748
877.674	23687
877.802	23684
877.93	23756
878.058	23726
878.185	23627
878.313	23695
878.441	23592
878.568	23551
878.696	23478
878.824	23798
878.951	23657
879.079	23851
879.206	23977
879.333	23874
879.461	23714
879.588	23714
879.715	23779
879.842	23889
879.97	23745
880.097	23516
880.224	23486
880.351	23566
880.478	23543
880.605	23421
880.732	23619
880.859	23729
880.986	23638
881.112	23551
881.239	23292
881.366	23311
881.493	23299
881.619	23094
881.746	23109
881.872	23037
881.999	23018
882.125	23006
882.252	23056
882.378	22946
882.505	23223
882.631	22831
882.757	22809
882.883	22919
883.01	22729
883.136	22683
883.262	22512
883.388	22535
883.514	22630
883.64	22744
883.766	22641
883.892	22637
884.018	22622
884.143	22702
884.269	22774
884.395	22451
884.52	22367
884.646	22325
884.772	22188
884.897	22253
885.023	22325
885.148	22394
885.274	22523
885.399	22500
885.524	22333
885.65	22481
885.775	22367
885.9	22268
886.025	22535
886.15	22451
886.275	22398
886.4	22257
886.525	22322
886.65	22276
886.775	22413
886.9	22470
887.025	22557
887.149	22223
887.274	22166
887.399	22181
887.523	22086
887.648	22074
887.773	22074
887.897	22143
888.021	22051
888.146	22040
888.27	22169
888.395	22128
888.519	22078
888.643	22082
888.767	22257
888.891	21899
889.015	21972
889.139	21972
889.263	22032
889.387	21983
889.511	22078
889.635	22097
889.759	21850
889.883	21922
890.006	21884
890.13	21945
890.254	21975
890.377	21846
890.501	21660
890.624	21728
890.748	21648
890.871	21564
890.995	21526
891.118	21428
891.241	21416
891.364	21477
891.488	21557
891.611	21526
891.734	21496
891.857	21568
891.98	21321
892.103	21370
892.226	21492
892.349	21321
892.471	21241
892.594	21382
892.717	21428
892.839	21135
892.962	21485
893.085	21428
893.207	21405
893.33	21173
893.452	21268
893.575	21412
893.697	21275
893.819	21344
893.941	21515
894.064	21386
894.186	21241
894.308	21180
894.43	21374
894.552	21530
894.674	21329
894.796	21214
894.918	21329
895.04	21302
895.161	21348
895.283	21370
895.405	21291
895.526	21336
895.648	21252
895.769	21367
895.891	21359
896.012	21378
896.134	21439
896.255	21226
896.376	21241
896.498	21348
896.619	21378
896.74	21325
896.861	21302
896.982	21637
897.103	21747
897.224	21614
897.345	21622
897.466	21382
897.587	21572
897.708	21637
897.828	21504
897.949	21443
898.07	21332
898.19	21477
898.311	21454
898.431	21462
898.552	21492
898.672	21511
898.792	21694
898.913	21583
899.033	21454
899.153	21275
899.273	21207
899.393	21306
899.513	21416
899.633	21249
899.753	21283
899.873	21218
899.993	21287
900.113	21043
900.232	21127
900.352	21093
900.472	21077
900.591	20899
900.711	21089
900.83	20819
900.95	21150
901.069	21024
901.189	20883
901.308	20629
901.427	20454
901.546	20667
901.665	20511
901.784	20613
901.904	20533
902.023	20355
902.141	20103
902.26	20069
902.379	20199
902.498	20058
902.617	20073
902.735	20065
902.854	20043
902.973	19864
903.091	19753
903.21	19826
903.328	19719
903.446	19693
903.565	19499
903.683	19495
903.801	19365
903.919	19495
904.038	19449
904.156	19293
904.274	19381
904.392	19350
904.51	19304
904.627	19312
904.745	19384
904.863	19278
904.981	19126
905.098	18897
905.216	18985
905.334	19103
905.451	18939
905.569	18924
905.686	18977
905.803	18924
905.921	18840
906.038	18741
906.155	18719
906.272	18498
906.389	18623
906.506	18467
906.623	18536
906.74	18456
906.857	18426
906.974	18254
907.091	18490
907.208	18616
907.324	18486
907.441	18365
907.557	18243
907.674	18159
907.79	18095
907.907	18057
908.023	18129
908.139	18281
908.256	18182
908.372	18053
908.488	18049
908.604	17893
908.72	17821
908.836	17908
908.952	17954
909.068	17870
909.184	17973
909.3	17809
909.415	17927
909.531	17771
909.647	17505
909.762	17562
909.878	17554
909.993	17501
910.108	17573
910.224	17570
910.339	17501
910.454	17497
910.57	17307
910.685	17345
910.8	17543
910.915	17478
911.03	17429
911.145	17181
911.259	17208
911.374	17064
911.489	17071
911.604	16976
911.718	16881
911.833	16908
911.947	16854
912.062	16668
912.176	16820
912.291	16873
912.405	16869
912.519	17159
912.633	17025
912.748	16858
912.862	16862
912.976	16645
913.09	16565
913.204	16675
913.318	16721
913.431	16683
913.545	16759
913.659	16797
913.772	16550
913.886	16565
914	16451
914.113	16500
914.226	16603
914.34	16493
914.453	16314
914.566	16565
914.68	16371
914.793	16295
914.906	16162
915.019	16067
915.132	16036
915.245	16048
915.358	16154
915.47	16036
915.583	16124
915.696	16036
915.809	16211
915.921	16185
916.034	15979
916.146	15941
916.259	15918
916.371	16051
916.483	16036
916.595	15911
916.708	15808
916.82	15880
916.932	15808
917.044	15720
917.156	15709
917.268	15648
917.38	15644
917.491	15614
917.603	15663
917.715	15732
917.826	15717
917.938	15507
918.049	15553
918.161	15667
918.272	15698
918.384	15736
918.495	15519
918.606	15401
918.717	15332
918.828	15405
918.939	15382
919.05	15272
919.161	15496
919.272	15165
919.383	15184
919.494	15496
919.604	15591
919.715	15393
919.826	15260
919.936	15317
920.047	15344
920.157	15310
920.267	15557
920.378	15291
920.488	15260
920.598	15515
920.708	15591
920.818	15420
920.928	15526
921.038	15671
921.148	15660
921.258	15336
921.368	15176
921.477	15112
921.587	15024
921.697	15009
921.806	15020
921.916	14872
922.025	14902
922.134	14750
922.244	14625
922.353	14785
922.462	14644
922.571	14480
922.68	14358
922.789	14301
922.898	14412
923.007	14377
923.116	14423
923.224	14366
923.333	14415
923.442	14199
923.55	14187
923.659	14164
923.767	14191
923.876	14088
923.984	14145
924.092	14069
924.201	14065
924.309	14035
924.417	14039
924.525	14035
924.633	13993
924.741	14937
924.849	13746
924.956	13921
925.064	13750
925.172	13719
925.279	13734
925.387	13708
925.494	13674
925.602	13776
925.709	13799
925.816	13529
925.924	13597
926.031	13753
926.138	13696
926.245	13620
926.352	13525
926.459	13647
926.566	13708
926.673	13575
926.779	13495
926.886	13434
926.993	13304
927.099	13225
927.206	13190
927.312	13190
927.419	13285
927.525	13244
927.631	13274
927.737	13171
927.843	13034
927.95	13023
928.056	12977
928.162	13118
928.267	13107
928.373	13597
928.479	13091
928.585	12863
928.69	12993
928.796	13072
928.901	12901
929.007	12692
929.112	12859
929.218	12821
929.323	12791
929.428	12719
929.533	12973
929.638	12726
929.743	12779
929.848	12783
929.953	12787
930.058	12604
930.163	12452
930.267	12365
930.372	12570
930.477	12433
930.581	12669
930.685	12422
930.79	12258
930.894	12304
930.998	12247
931.103	12441
931.207	12007
931.311	12045
931.415	11923
931.519	11710
931.623	11722
