Data from test_V78500241_2406.txt Node
Date: Fri Mar 25 15:58:28 CST 2022
User: usil
Spectrometer: V785-0024
Trigger mode: 0
Integration Time (sec): 4.000000E-1
Scans to average: 1
Nonlinearity correction enabled: false
Boxcar width: 0
Storing dark spectrum: false
XAxis mode: Wavelengths
Number of Pixels in Spectrum: 1024
>>>>>Begin Spectral Data<<<<<
801.071	28211
801.214	28025
801.356	28086
801.499	27857
801.641	27854
801.783	27850
801.926	27762
802.068	27778
802.211	27720
802.353	27572
802.496	27526
802.638	27405
802.78	27416
802.923	27298
803.065	27329
803.208	27321
803.35	27542
803.492	27519
803.635	27572
803.777	27591
803.919	27663
804.061	27960
804.204	27572
804.346	27576
804.488	27504
804.63	27759
804.773	27599
804.915	27671
805.057	27762
805.199	27641
805.341	27644
805.483	27770
805.626	27911
805.768	27629
805.91	27728
806.052	27766
806.194	27545
806.336	27873
806.478	27797
806.62	27857
806.762	27945
806.904	28166
807.046	28421
807.188	28299
807.33	28207
807.472	28253
807.614	28131
807.756	28147
807.898	27987
808.04	28059
808.182	28029
808.324	28150
808.465	28276
808.607	28226
808.749	28348
808.891	28451
809.033	28599
809.174	28497
809.316	28367
809.458	28390
809.6	28394
809.741	28493
809.883	28656
810.025	28691
810.166	28843
810.308	28687
810.45	28710
810.591	28538
810.733	28493
810.875	28398
811.016	28478
811.158	28489
811.299	28451
811.441	28717
811.582	28466
811.724	28500
811.865	28337
812.007	28440
812.148	28554
812.29	28440
812.431	28607
812.573	28771
812.714	28763
812.855	28873
812.997	28972
813.138	29117
813.279	29075
813.421	28831
813.562	28782
813.703	28831
813.845	28755
813.986	28257
814.127	28246
814.268	28173
814.41	28097
814.551	28131
814.692	28196
814.833	28166
814.974	28143
815.115	28082
815.256	28051
815.397	27907
815.539	27953
815.68	27922
815.821	27854
815.962	27949
816.103	27968
816.244	27880
816.385	27736
816.526	27724
816.666	27496
816.807	27370
816.948	27545
817.089	27504
817.23	27431
817.371	27435
817.512	27545
817.653	27427
817.793	27431
817.934	27287
818.075	27355
818.216	27606
818.356	27405
818.497	27245
818.638	27085
818.778	27169
818.919	27131
819.06	27203
819.2	27397
819.341	27389
819.481	27397
819.622	27656
819.762	27831
819.903	27785
820.043	27500
820.184	27583
820.324	27580
820.465	27507
820.605	27564
820.746	27519
820.886	27340
821.026	27553
821.167	27507
821.307	27553
821.447	27454
821.588	27241
821.728	27169
821.868	27005
822.008	26940
822.149	26864
822.289	26929
822.429	26602
822.569	26648
822.709	26514
822.849	26503
822.99	26374
823.13	26389
823.27	26427
823.41	26168
823.55	26145
823.69	26317
823.83	26206
823.97	26073
824.11	26081
824.25	25993
824.389	26012
824.529	26092
824.669	26001
824.809	26149
824.949	26096
825.089	26088
825.228	26062
825.368	25868
825.508	25944
825.648	25928
825.787	25852
825.927	26035
826.067	25811
826.206	25864
826.346	25993
826.485	25932
826.625	25837
826.765	26027
826.904	25959
827.044	25643
827.183	25655
827.323	25510
827.462	25689
827.601	25666
827.741	25666
827.88	25620
828.02	25479
828.159	25556
828.298	25635
828.437	25639
828.577	25613
828.716	25662
828.855	25563
828.994	25472
829.134	25289
829.273	25381
829.412	25274
829.551	25346
829.69	25350
829.829	25365
829.968	25407
830.107	25320
830.246	25312
830.385	25259
830.524	25327
830.663	25129
830.802	24973
830.941	24837
831.08	24840
831.219	24992
831.357	24913
831.496	25183
831.635	24962
831.774	24863
831.913	24798
832.051	24707
832.19	24635
832.329	24764
832.467	24426
832.606	24593
832.744	24585
832.883	24654
833.022	24467
833.16	24616
833.299	24642
833.437	24665
833.576	24631
833.714	24661
833.852	24757
833.991	24722
834.129	24677
834.267	24787
834.406	24597
834.544	24616
834.682	24711
834.821	24700
834.959	24890
835.097	24547
835.235	24574
835.373	24544
835.511	24684
835.65	24479
835.788	24597
835.926	24456
836.064	24273
836.202	24323
836.34	24357
836.478	24563
836.615	24498
836.753	24399
836.891	24460
837.029	24403
837.167	24407
837.305	24422
837.443	24346
837.58	24254
837.718	24403
837.856	24266
837.993	24197
838.131	24273
838.269	24178
838.406	24114
838.544	24121
838.681	23969
838.819	23836
838.956	23722
839.094	23748
839.231	23752
839.369	24007
839.506	24235
839.643	24083
839.781	23889
839.918	23840
840.055	23828
840.193	23714
840.33	23718
840.467	23653
840.604	23783
840.742	23874
840.879	23668
841.016	23516
841.153	23539
841.29	23817
841.427	23771
841.564	23672
841.701	23764
841.838	23558
841.975	23627
842.112	23543
842.249	23402
842.385	23467
842.522	23691
842.659	23558
842.796	23417
842.933	23501
843.069	23414
843.206	23364
843.343	23440
843.479	23425
843.616	23406
843.752	23250
843.889	23356
844.025	23425
844.162	23261
844.298	23261
844.435	23200
844.571	23273
844.708	23326
844.844	23349
844.98	23379
845.117	23398
845.253	23318
845.389	23113
845.525	23094
845.661	23044
845.798	23014
845.934	23044
846.07	22873
846.206	22835
846.342	23208
846.478	22953
846.614	22778
846.75	22641
846.886	22637
847.022	22744
847.158	22752
847.294	22622
847.429	22653
847.565	22717
847.701	22790
847.837	22409
847.972	22318
848.108	22523
848.244	22519
848.379	22443
848.515	22207
848.65	22265
848.786	22234
848.921	22261
849.057	22314
849.192	22402
849.328	22272
849.463	22268
849.598	22124
849.734	22093
849.869	22124
850.004	22032
850.14	22204
850.275	22097
850.41	21926
850.545	21922
850.68	21945
850.815	22032
850.95	21934
851.085	22143
851.22	22158
851.355	22025
851.49	21998
851.625	21941
851.76	22010
851.895	22048
852.03	22097
852.165	22032
852.299	22169
852.434	21994
852.569	21983
852.703	22044
852.838	22158
852.973	22105
853.107	22116
853.242	21911
853.376	21835
853.511	21656
853.645	21907
853.78	21972
853.914	21823
854.048	21930
854.183	21884
854.317	21937
854.451	22093
854.585	21903
854.72	21751
854.854	21907
854.988	21751
855.122	21884
855.256	21698
855.39	21743
855.524	21975
855.658	22097
855.792	21759
855.926	21968
856.06	21907
856.194	22010
856.327	21854
856.461	21808
856.595	21895
856.729	21869
856.862	22032
856.996	21949
857.13	21922
857.263	22025
857.397	21911
857.53	21964
857.664	21964
857.797	21819
857.931	21953
858.064	21983
858.197	21953
858.331	21800
858.464	21781
858.597	21690
858.731	21812
858.864	21743
858.997	21717
859.13	21816
859.263	21903
859.396	21918
859.529	21903
859.662	21816
859.795	21793
859.928	21861
860.061	21941
860.194	21953
860.327	21911
860.46	21869
860.592	21945
860.725	21941
860.858	22013
860.99	21915
861.123	21755
861.256	21838
861.388	21804
861.521	22580
861.653	21724
861.786	21618
861.918	21652
862.05	21724
862.183	21846
862.315	21819
862.447	21895
862.58	21625
862.712	21507
862.844	21603
862.976	21660
863.108	21606
863.24	22116
863.372	21454
863.504	21633
863.636	21576
863.768	21622
863.9	21625
864.032	21496
864.164	21644
864.296	21526
864.428	21694
864.559	21603
864.691	21660
864.823	21500
864.954	21534
865.086	21485
865.217	21431
865.349	21389
865.48	21408
865.612	21359
865.743	21572
865.875	21504
866.006	21450
866.137	21561
866.269	21408
866.4	21408
866.531	21287
866.662	21294
866.793	21374
866.924	21367
867.055	21351
867.186	21458
867.317	21447
867.448	21306
867.579	21386
867.71	21340
867.841	21264
867.972	21397
868.103	21351
868.233	21389
868.364	21416
868.495	21561
868.625	21686
868.756	21595
868.886	21591
869.017	21633
869.147	21675
869.278	21701
869.408	21572
869.539	21576
869.669	21523
869.799	21785
869.929	21732
870.06	21633
870.19	21922
870.32	21846
870.45	22002
870.58	21857
870.71	22074
870.84	22131
870.97	22055
871.1	22021
871.23	22204
871.36	22162
871.489	22101
871.619	22067
871.749	22223
871.879	22272
872.008	22246
872.138	22314
872.267	22181
872.397	22166
872.526	22101
872.656	22013
872.785	22044
872.915	22238
873.044	22337
873.173	22257
873.303	22200
873.432	22352
873.561	22344
873.69	22188
873.819	22337
873.948	22322
874.077	22272
874.206	22166
874.335	22200
874.464	22299
874.593	22402
874.722	22462
874.851	22459
874.979	22596
875.108	22573
875.237	22371
875.365	22295
875.494	22409
875.623	22607
875.751	22363
875.88	22538
876.008	22557
876.136	22588
876.265	22805
876.393	22984
876.521	22900
876.65	22889
876.778	22877
876.906	22797
877.034	22790
877.162	22774
877.29	22687
877.418	22835
877.546	22790
877.674	22892
877.802	22881
877.93	22759
878.058	22694
878.185	22626
878.313	22771
878.441	22790
878.568	22698
878.696	22812
878.824	22896
878.951	23003
879.079	23117
879.206	23124
879.333	22987
879.461	22866
879.588	22946
879.715	23006
879.842	22991
879.97	22881
880.097	22653
880.224	22626
880.351	22713
880.478	22592
880.605	22512
880.732	22653
880.859	22866
880.986	22645
881.112	22592
881.239	22577
881.366	22390
881.493	22249
881.619	22188
881.746	22188
881.872	22207
881.999	22166
882.125	22169
882.252	22265
882.378	22177
882.505	22223
882.631	22040
882.757	21808
882.883	22074
883.01	21892
883.136	21819
883.262	21759
883.388	21633
883.514	21964
883.64	21903
883.766	21831
883.892	21762
884.018	21663
884.143	21873
884.269	21903
884.395	21583
884.52	21591
884.646	21603
884.772	21435
884.897	21287
885.023	21481
885.148	21614
885.274	21759
885.399	21576
885.524	21492
885.65	21633
885.775	21610
885.9	21572
886.025	21728
886.15	21652
886.275	21370
886.4	21389
886.525	21473
886.65	21477
886.775	21553
886.9	21614
887.025	21690
887.149	21534
887.274	21283
887.399	21298
887.523	21306
887.648	21283
887.773	21321
887.897	21462
888.021	21230
888.146	21207
888.27	21374
888.395	21317
888.519	21332
888.643	21458
888.767	21378
888.891	21127
889.015	21104
889.139	21226
889.263	20990
889.387	21195
889.511	21199
889.635	21180
889.759	21036
889.883	21146
890.006	21268
890.13	21207
890.254	20952
890.377	20975
890.501	20792
890.624	20842
890.748	20796
890.871	20758
890.995	20609
891.118	20613
891.241	20667
891.364	20682
891.488	20781
891.611	20727
891.734	20648
891.857	20720
891.98	20594
892.103	20678
892.226	20663
892.349	20465
892.471	20457
892.594	20552
892.717	20503
892.839	20438
892.962	20499
893.085	20621
893.207	20518
893.33	20434
893.452	20465
893.575	20667
893.697	20530
893.819	20678
893.941	20735
894.064	20552
894.186	20507
894.308	20511
894.43	20552
894.552	20667
894.674	20568
894.796	20412
894.918	20522
895.04	20480
895.161	20632
895.283	20556
895.405	20465
895.526	20602
895.648	20583
895.769	20613
895.891	20571
896.012	20602
896.134	20499
896.255	20526
896.376	20404
896.498	20503
896.619	20541
896.74	20587
896.861	20640
896.982	20857
897.103	20944
897.224	20849
897.345	20720
897.466	20750
897.587	20804
897.708	20910
897.828	20811
897.949	20724
898.07	20602
898.19	20651
898.311	20891
898.431	20693
898.552	20807
898.672	20720
898.792	20902
898.913	20811
899.033	20648
899.153	20571
899.273	20374
899.393	20412
899.513	20606
899.633	20484
899.753	20552
899.873	20313
899.993	20590
900.113	20343
900.232	20412
900.352	20408
900.472	20271
900.591	20298
900.711	20248
900.83	20305
900.95	20286
901.069	20343
901.189	20119
901.308	20043
901.427	19879
901.546	19871
901.665	19879
901.784	19814
901.904	19643
902.023	19643
902.141	19506
902.26	19464
902.379	19339
902.498	19407
902.617	19339
902.735	19369
902.854	19293
902.973	19308
903.091	19042
903.21	19053
903.328	19050
903.446	18951
903.565	18726
903.683	18833
903.801	18711
903.919	18791
904.038	18734
904.156	18703
904.274	18620
904.392	18536
904.51	18608
904.627	18604
904.745	18604
904.863	18658
904.981	18399
905.098	18338
905.216	18338
905.334	18251
905.451	18277
905.569	18243
905.686	18171
905.803	18251
905.921	17923
906.038	18114
906.155	18087
906.272	17920
906.389	17999
906.506	17786
906.623	17885
906.74	17752
906.857	17722
906.974	17741
907.091	17904
907.208	17916
907.324	17840
907.441	17786
907.557	17532
907.674	17554
907.79	17395
907.907	17505
908.023	17535
908.139	17532
908.256	17448
908.372	17356
908.488	17250
908.604	17360
908.72	17181
908.836	17132
908.952	17227
909.068	17204
909.184	17315
909.3	17147
909.415	17223
909.531	17200
909.647	16934
909.762	16911
909.878	16862
909.993	16866
910.108	16748
910.224	16885
910.339	16771
910.454	16611
910.57	16763
910.685	16706
910.8	16908
910.915	16889
911.03	16626
911.145	16497
911.259	16386
911.374	16577
911.489	16451
911.604	16314
911.718	16181
911.833	16200
911.947	16116
912.062	16071
912.176	16341
912.291	16166
912.405	16219
912.519	16478
912.633	16379
912.748	16379
912.862	16215
912.976	16112
913.09	15930
913.204	15964
913.318	16082
913.431	16185
913.545	16059
913.659	16219
913.772	15991
913.886	15926
914	15800
914.113	15915
914.226	16090
914.34	15953
914.453	15785
914.566	15835
914.68	15755
914.793	15766
914.906	15549
915.019	15306
915.132	15344
915.245	15405
915.358	15511
915.47	15401
915.583	15488
915.696	15485
915.809	15603
915.921	15534
916.034	15294
916.146	15405
916.259	15363
916.371	15405
916.483	15431
916.595	15294
916.708	15291
916.82	15192
916.932	15252
917.044	15283
917.156	15226
917.268	15112
917.38	15097
917.491	15036
917.603	15043
917.715	15104
917.826	15211
917.938	15077
918.049	15001
918.161	15051
918.272	15245
918.384	15150
918.495	15047
918.606	14815
918.717	14785
918.828	14811
918.939	14937
919.05	14705
919.161	14800
919.272	14648
919.383	14689
919.494	14815
919.604	15001
919.715	14762
919.826	14686
919.936	14864
920.047	14914
920.157	14712
920.267	14975
920.378	14800
920.488	14758
920.598	14960
920.708	15119
920.818	14895
920.928	14902
921.038	15081
921.148	15005
921.258	14819
921.368	14754
921.477	14526
921.587	14495
921.697	14328
921.806	14488
921.916	14461
922.025	14187
922.134	14172
922.244	14100
922.353	14237
922.462	14103
922.571	13997
922.68	13841
922.789	13765
922.898	13845
923.007	13769
923.116	13826
923.224	13738
923.333	13795
923.442	13670
923.55	13609
923.659	13658
923.767	13719
923.876	13514
923.984	13666
924.092	13609
924.201	13613
924.309	13616
924.417	13575
924.525	13548
924.633	13483
924.741	14202
924.849	13312
924.956	13335
925.064	13259
925.172	13198
925.279	13164
925.387	13137
925.494	13171
925.602	13373
925.709	13209
925.816	13088
925.924	13171
926.031	13225
926.138	13107
926.245	13217
926.352	13023
926.459	13129
926.566	13122
926.673	13050
926.779	12996
926.886	13031
926.993	12806
927.099	12768
927.206	12707
927.312	12730
927.419	12814
927.525	12783
927.631	12814
927.737	12646
927.843	12570
927.95	12532
928.056	12703
928.162	12566
928.267	12673
928.373	13213
928.479	12639
928.585	12467
928.69	12563
928.796	12547
928.901	12445
929.007	12334
929.112	12426
929.218	12395
929.323	12311
929.428	12376
929.533	12380
929.638	12270
929.743	12163
929.848	12315
929.953	12304
930.058	12117
930.163	11992
930.267	11988
930.372	12083
930.477	11878
930.581	12182
930.685	11961
930.79	11836
930.894	11901
930.998	11847
931.103	12003
931.207	11592
931.311	11596
931.415	11440
931.519	11216
931.623	11261
