Data from test_V78500241_3078.txt Node
Date: Fri Mar 25 16:03:07 CST 2022
User: usil
Spectrometer: V785-0024
Trigger mode: 0
Integration Time (sec): 4.000000E-1
Scans to average: 1
Nonlinearity correction enabled: false
Boxcar width: 0
Storing dark spectrum: false
XAxis mode: Wavelengths
Number of Pixels in Spectrum: 1024
>>>>>Begin Spectral Data<<<<<
801.071	28869
801.214	28805
801.356	28535
801.499	28481
801.641	28341
801.783	28443
801.926	28455
802.068	28280
802.211	28394
802.353	28226
802.496	28063
802.638	27918
802.78	28029
802.923	28010
803.065	27869
803.208	27991
803.35	28040
803.492	28265
803.635	28272
803.777	28135
803.919	28401
804.061	28683
804.204	28413
804.346	28204
804.488	28105
804.63	28371
804.773	28234
804.915	28375
805.057	28390
805.199	28310
805.341	28337
805.483	28508
805.626	28481
805.768	28424
805.91	28523
806.052	28550
806.194	28329
806.336	28668
806.478	28580
806.62	28557
806.762	28630
806.904	28831
807.046	29003
807.188	28953
807.33	29014
807.472	28991
807.614	28900
807.756	28942
807.898	28717
808.04	28748
808.182	28649
808.324	28664
808.465	28904
808.607	28957
808.749	29235
808.891	29193
809.033	29212
809.174	29250
809.316	29170
809.458	29242
809.6	29151
809.741	29296
809.883	29254
810.025	29528
810.166	29379
810.308	29455
810.45	29368
810.591	29315
810.733	29216
810.875	29109
811.016	28934
811.158	29109
811.299	29193
811.441	29345
811.582	29254
811.724	29178
811.865	29136
812.007	29140
812.148	29143
812.29	29208
812.431	29337
812.573	29524
812.714	29638
812.855	29642
812.997	29733
813.138	29973
813.279	29885
813.421	29668
813.562	29573
813.703	29509
813.845	29375
813.986	29204
814.127	28911
814.268	28797
814.41	28786
814.551	28987
814.692	28930
814.833	28805
814.974	28908
815.115	28892
815.256	28843
815.397	28725
815.539	28702
815.68	28710
815.821	28740
815.962	28653
816.103	28702
816.244	28656
816.385	28508
816.526	28466
816.666	28299
816.807	28268
816.948	28280
817.089	28207
817.23	28192
817.371	28207
817.512	28097
817.653	28246
817.793	28147
817.934	28173
818.075	28352
818.216	28086
818.356	28128
818.497	28010
818.638	27964
818.778	28006
818.919	27953
819.06	28097
819.2	28147
819.341	28344
819.481	28257
819.622	28417
819.762	28569
819.903	28440
820.043	28284
820.184	28333
820.324	28329
820.465	28318
820.605	28451
820.746	28272
820.886	28135
821.026	28238
821.167	28432
821.307	28200
821.447	28295
821.588	28124
821.728	28006
821.868	27907
822.008	27755
822.149	27557
822.289	27808
822.429	27359
822.569	27298
822.709	27298
822.849	27188
822.99	27093
823.13	27154
823.27	27085
823.41	27032
823.55	26971
823.69	27165
823.83	27043
823.97	27081
824.11	26933
824.25	26796
824.389	26880
824.529	26891
824.669	26895
824.809	26918
824.949	26937
825.089	26902
825.228	26933
825.368	26655
825.508	26754
825.648	26750
825.787	26754
825.927	26944
826.067	26689
826.206	26682
826.346	26727
826.485	26811
826.625	26686
826.765	26838
826.904	26769
827.044	26541
827.183	26400
827.323	26415
827.462	26423
827.601	26530
827.741	26438
827.88	26393
828.02	26374
828.159	26412
828.298	26484
828.437	26408
828.577	26336
828.716	26461
828.855	26412
828.994	26256
829.134	26187
829.273	26149
829.412	26161
829.551	26130
829.69	26199
829.829	26153
829.968	26282
830.107	26054
830.246	26111
830.385	26187
830.524	26035
830.663	25959
830.802	25883
830.941	25784
831.08	25719
831.219	25731
831.357	25750
831.496	25845
831.635	25677
831.774	25765
831.913	25643
832.051	25597
832.19	25559
832.329	25514
832.467	25529
832.606	25426
832.744	25278
832.883	25476
833.022	25285
833.16	25392
833.299	25525
833.437	25422
833.576	25571
833.714	25582
833.852	25525
833.991	25548
834.129	25506
834.267	25594
834.406	25495
834.544	25537
834.682	25563
834.821	25457
834.959	25696
835.097	25445
835.235	25487
835.373	25529
835.511	25422
835.65	25464
835.788	25343
835.926	25190
836.064	25213
836.202	25187
836.34	25168
836.478	25415
836.615	25244
836.753	25194
836.891	25308
837.029	25289
837.167	25266
837.305	25187
837.443	25148
837.58	25152
837.718	25160
837.856	25198
837.993	25164
838.131	25061
838.269	24916
838.406	25107
838.544	24928
838.681	24814
838.819	24757
838.956	24547
839.094	24502
839.231	24521
839.369	24791
839.506	24985
839.643	24817
839.781	24654
839.918	24517
840.055	24646
840.193	24650
840.33	24559
840.467	24513
840.604	24559
840.742	24852
840.879	24243
841.016	24490
841.153	24418
841.29	24521
841.427	24429
841.564	24422
841.701	24365
841.838	24467
841.975	24388
842.112	24498
842.249	24372
842.385	24353
842.522	24456
842.659	24296
842.796	24186
842.933	24292
843.069	24209
843.206	24243
843.343	24319
843.479	24346
843.616	24258
843.752	23950
843.889	24072
844.025	24114
844.162	24030
844.298	24022
844.435	23942
844.571	23920
844.708	24098
844.844	24174
844.98	24174
845.117	24205
845.253	23965
845.389	23866
845.525	23866
845.661	23821
845.798	23775
845.934	23824
846.07	23745
846.206	23707
846.342	23889
846.478	23680
846.614	23528
846.75	23448
846.886	23395
847.022	23570
847.158	23608
847.294	23471
847.429	23562
847.565	23372
847.701	23779
847.837	23227
847.972	23185
848.108	23326
848.244	23284
848.379	23003
848.515	23098
848.65	23029
848.786	23041
848.921	23090
849.057	23132
849.192	23151
849.328	23128
849.463	22984
849.598	23029
849.734	22968
849.869	22957
850.004	22915
850.14	22755
850.275	22877
850.41	22771
850.545	22900
850.68	22702
850.815	22858
850.95	22767
851.085	22892
851.22	22938
851.355	22862
851.49	22828
851.625	22759
851.76	22790
851.895	22664
852.03	22710
852.165	22927
852.299	22927
852.434	22953
852.569	22854
852.703	22854
852.838	22885
852.973	22923
853.107	22900
853.242	22843
853.376	22535
853.511	22538
853.645	22611
853.78	22729
853.914	22607
854.048	22542
854.183	22664
854.317	22702
854.451	22752
854.585	22656
854.72	22622
854.854	22717
854.988	22512
855.122	22782
855.256	22447
855.39	22603
855.524	22729
855.658	22706
855.792	22630
855.926	22675
856.06	22771
856.194	22721
856.327	22611
856.461	22580
856.595	22607
856.729	22675
856.862	22668
856.996	22672
857.13	22672
857.263	22675
857.397	22702
857.53	22717
857.664	22748
857.797	22668
857.931	22892
858.064	22660
858.197	22645
858.331	22607
858.464	22672
858.597	22500
858.731	22691
858.864	22653
858.997	22611
859.13	22565
859.263	22645
859.396	22755
859.529	22687
859.662	22645
859.795	22569
859.928	22713
860.061	22793
860.194	22908
860.327	22721
860.46	22672
860.592	22790
860.725	22812
860.858	22687
860.99	22710
861.123	22580
861.256	22596
861.388	22599
861.521	23292
861.653	22500
861.786	22512
861.918	22504
862.05	22649
862.183	22557
862.315	22500
862.447	22603
862.58	22481
862.712	22310
862.844	22341
862.976	22318
863.108	22356
863.24	22694
863.372	22382
863.504	22333
863.636	22257
863.768	22481
863.9	22462
864.032	22158
864.164	22344
864.296	22428
864.428	22500
864.559	22322
864.691	22405
864.823	22325
864.954	22333
865.086	22379
865.217	22306
865.349	22196
865.48	22291
865.612	22363
865.743	22386
865.875	22310
866.006	22211
866.137	22211
866.269	22135
866.4	22097
866.531	22238
866.662	22101
866.793	22112
866.924	22177
867.055	22181
867.186	22261
867.317	22124
867.448	22017
867.579	22280
867.71	22040
867.841	21968
867.972	22173
868.103	22112
868.233	22185
868.364	22185
868.495	22230
868.625	22390
868.756	22481
868.886	22341
869.017	22455
869.147	22523
869.278	22451
869.408	22466
869.539	22360
869.669	22344
869.799	22485
869.929	22485
870.06	22409
870.19	22691
870.32	22618
870.45	22698
870.58	22748
870.71	22835
870.84	23056
870.97	22828
871.1	22672
871.23	23010
871.36	22980
871.489	22953
871.619	23098
871.749	23029
871.879	23022
872.008	23041
872.138	23010
872.267	23102
872.397	22854
872.526	22881
872.656	22980
872.785	22858
872.915	23033
873.044	23056
873.173	23006
873.303	23056
873.432	23041
873.561	23132
873.69	23022
873.819	23075
873.948	23044
874.077	23037
874.206	22968
874.335	23090
874.464	23079
874.593	23197
874.722	23174
874.851	23250
874.979	23288
875.108	23341
875.237	23178
875.365	23239
875.494	23181
875.623	23311
875.751	23113
875.88	23269
876.008	23322
876.136	23448
876.265	23608
876.393	23722
876.521	23596
876.65	23573
876.778	23699
876.906	23585
877.034	23524
877.162	23600
877.29	23680
877.418	23684
877.546	23611
877.674	23589
877.802	23604
877.93	23524
878.058	23501
878.185	23353
878.313	23566
878.441	23531
878.568	23478
878.696	23478
878.824	23566
878.951	23623
879.079	23786
879.206	23851
879.333	23699
879.461	23665
879.588	23657
879.715	23889
879.842	23779
879.97	23577
880.097	23391
880.224	23322
880.351	23311
880.478	23402
880.605	23391
880.732	23414
880.859	23634
880.986	23448
881.112	23425
881.239	23269
881.366	23048
881.493	23010
881.619	22953
881.746	22984
881.872	22972
881.999	23147
882.125	22869
882.252	22976
882.378	22987
882.505	22999
882.631	22801
882.757	22664
882.883	22675
883.01	22733
883.136	22599
883.262	22432
883.388	22436
883.514	22577
883.64	22691
883.766	22615
883.892	22375
884.018	22386
884.143	22557
884.269	22683
884.395	22344
884.52	22219
884.646	22329
884.772	22344
884.897	22143
885.023	22242
885.148	22436
885.274	22299
885.399	22390
885.524	22272
885.65	22341
885.775	22318
885.9	22158
886.025	22306
886.15	22314
886.275	22257
886.4	22112
886.525	22211
886.65	22181
886.775	22185
886.9	22272
887.025	22512
887.149	22196
887.274	22082
887.399	22124
887.523	22010
887.648	21953
887.773	22070
887.897	22040
888.021	22025
888.146	21956
888.27	22162
888.395	22063
888.519	21949
888.643	21975
888.767	22070
888.891	21861
889.015	21759
889.139	21816
889.263	21751
889.387	21842
889.511	21941
889.635	21838
889.759	21770
889.883	21679
890.006	21835
890.13	21926
890.254	21660
890.377	21747
890.501	21443
890.624	21428
890.748	21610
890.871	21477
890.995	21302
891.118	21272
891.241	21298
891.364	21329
891.488	21458
891.611	21485
891.734	21344
891.857	21412
891.98	21405
892.103	21363
892.226	21336
892.349	21272
892.471	21081
892.594	21298
892.717	21180
892.839	21241
892.962	21211
893.085	21348
893.207	21317
893.33	21192
893.452	21245
893.575	21283
893.697	21256
893.819	21313
893.941	21401
894.064	21374
894.186	21230
894.308	21009
894.43	21207
894.552	21294
894.674	21363
894.796	21184
894.918	21214
895.04	21252
895.161	21340
895.283	21184
895.405	21184
895.526	21165
895.648	21157
895.769	21207
895.891	21370
896.012	21359
896.134	21230
896.255	21230
896.376	21157
896.498	21142
896.619	21169
896.74	21256
896.861	21245
896.982	21523
897.103	21591
897.224	21454
897.345	21344
897.466	21256
897.587	21397
897.708	21580
897.828	21428
897.949	21275
898.07	21272
898.19	21245
898.311	21450
898.431	21397
898.552	21504
898.672	21561
898.792	21370
898.913	21454
899.033	21279
899.153	21245
899.273	21157
899.393	21123
899.513	21180
899.633	21211
899.753	21150
899.873	21207
899.993	21039
900.113	21043
900.232	21043
900.352	21047
900.472	21074
900.591	20933
900.711	20815
900.83	20899
900.95	20838
901.069	21051
901.189	20705
901.308	20503
901.427	20450
901.546	20469
901.665	20499
901.784	20495
901.904	20256
902.023	20317
902.141	20077
902.26	19989
902.379	20088
902.498	20039
902.617	19993
902.735	20050
902.854	20046
902.973	19967
903.091	19662
903.21	19548
903.328	19597
903.446	19453
903.565	19373
903.683	19499
903.801	19308
903.919	19426
904.038	19282
904.156	19266
904.274	19232
904.392	19164
904.51	19168
904.627	19217
904.745	19152
904.863	19209
904.981	18939
905.098	18703
905.216	18829
905.334	18825
905.451	18897
905.569	18825
905.686	18859
905.803	18833
905.921	18593
906.038	18692
906.155	18684
906.272	18635
906.389	18506
906.506	18441
906.623	18365
906.74	18334
906.857	18197
906.974	18327
907.091	18357
907.208	18536
907.324	18289
907.441	18311
907.557	18114
907.674	18026
907.79	18076
907.907	17973
908.023	18186
908.139	18159
908.256	17977
908.372	17927
908.488	17958
908.604	17859
908.72	17817
908.836	17805
908.952	17737
909.068	17771
909.184	17878
909.3	17824
909.415	17809
909.531	17783
909.647	17528
909.762	17547
909.878	17455
909.993	17490
910.108	17486
910.224	17501
910.339	17474
910.454	17387
910.57	17353
910.685	17181
910.8	17558
910.915	17463
911.03	17299
911.145	17067
911.259	17086
911.374	17079
911.489	17045
911.604	16873
911.718	16862
911.833	16744
911.947	16736
912.062	16603
912.176	16862
912.291	16862
912.405	16778
912.519	16869
912.633	16919
912.748	16831
912.862	16748
912.976	16569
913.09	16584
913.204	16645
913.318	16656
913.431	16759
913.545	16702
913.659	16729
913.772	16409
913.886	16447
914	16367
914.113	16462
914.226	16569
914.34	16428
914.453	16299
914.566	16474
914.68	16303
914.793	16226
914.906	16109
915.019	15880
915.132	15850
915.245	16017
915.358	16002
915.47	15911
915.583	15911
915.696	15934
915.809	16093
915.921	16063
916.034	15819
916.146	15850
916.259	15785
916.371	15873
916.483	15918
916.595	15789
916.708	15759
916.82	15892
916.932	15694
917.044	15717
917.156	15652
917.268	15610
917.38	15633
917.491	15625
917.603	15675
917.715	15610
917.826	15641
917.938	15538
918.049	15359
918.161	15530
918.272	15625
918.384	15698
918.495	15511
918.606	15336
918.717	15332
918.828	15431
918.939	15336
919.05	15298
919.161	15252
919.272	15058
919.383	15203
919.494	15397
919.604	15526
919.715	15363
919.826	15237
919.936	15256
920.047	15306
920.157	15264
920.267	15549
920.378	15355
920.488	15298
920.598	15462
920.708	15671
920.818	15408
920.928	15424
921.038	15603
921.148	15534
921.258	15313
921.368	15097
921.477	14960
921.587	15001
921.697	14883
921.806	14956
921.916	14891
922.025	14739
922.134	14625
922.244	14590
922.353	14674
922.462	14610
922.571	14541
922.68	14267
922.789	14328
922.898	14362
923.007	14199
923.116	14347
923.224	14229
923.333	14225
923.442	14161
923.55	14115
923.659	14161
923.767	14206
923.876	14100
923.984	14058
924.092	13993
924.201	14035
924.309	13978
924.417	13963
924.525	13974
924.633	13875
924.741	14674
924.849	13791
924.956	13860
925.064	13647
925.172	13499
925.279	13715
925.387	13662
925.494	13681
925.602	13727
925.709	13742
925.816	13540
925.924	13605
926.031	13563
926.138	13533
926.245	13689
926.352	13529
926.459	13537
926.566	13632
926.673	13457
926.779	13392
926.886	13362
926.993	13190
927.099	13190
927.206	13122
927.312	13175
927.419	13274
927.525	13221
927.631	13156
927.737	13034
927.843	13046
927.95	12935
928.056	13008
928.162	12966
928.267	13038
928.373	13689
928.479	13042
928.585	12798
928.69	12916
928.796	12981
928.901	12878
929.007	12730
929.112	12779
929.218	12772
929.323	12741
929.428	12688
929.533	12817
929.638	12623
929.743	12745
929.848	12700
929.953	12719
930.058	12631
930.163	12422
930.267	12448
930.372	12441
930.477	12338
930.581	12654
930.685	12422
930.79	12296
930.894	12319
930.998	12323
931.103	12334
931.207	11984
931.311	11908
931.415	11790
931.519	11638
931.623	11642
