Data from test_V78500241_3503.txt Node
Date: Fri Mar 25 16:06:04 CST 2022
User: usil
Spectrometer: V785-0024
Trigger mode: 0
Integration Time (sec): 4.000000E-1
Scans to average: 1
Nonlinearity correction enabled: false
Boxcar width: 0
Storing dark spectrum: false
XAxis mode: Wavelengths
Number of Pixels in Spectrum: 1024
>>>>>Begin Spectral Data<<<<<
801.071	28949
801.214	28877
801.356	28713
801.499	28637
801.641	28588
801.783	28561
801.926	28538
802.068	28443
802.211	28508
802.353	28287
802.496	28299
802.638	28128
802.78	28177
802.923	28116
803.065	27972
803.208	28116
803.35	28120
803.492	28207
803.635	28341
803.777	28261
803.919	28508
804.061	28835
804.204	28375
804.346	28356
804.488	28382
804.63	28413
804.773	28348
804.915	28527
805.057	28599
805.199	28447
805.341	28500
805.483	28656
805.626	28531
805.768	28512
805.91	28527
806.052	28535
806.194	28508
806.336	28744
806.478	28523
806.62	28679
806.762	28767
806.904	28908
807.046	29166
807.188	29064
807.33	29037
807.472	29124
807.614	28991
807.756	29033
807.898	28881
808.04	28877
808.182	28847
808.324	28949
808.465	28942
808.607	29052
808.749	29235
808.891	29360
809.033	29311
809.174	29254
809.316	29303
809.458	29334
809.6	29189
809.741	29570
809.883	29391
810.025	29566
810.166	29714
810.308	29703
810.45	29611
810.591	29615
810.733	29406
810.875	29334
811.016	29166
811.158	29303
811.299	29414
811.441	29448
811.582	29486
811.724	29372
811.865	29341
812.007	29277
812.148	29398
812.29	29372
812.431	29596
812.573	29592
812.714	29733
812.855	29923
812.997	30015
813.138	30057
813.279	29973
813.421	29748
813.562	29851
813.703	29638
813.845	29604
813.986	29311
814.127	29102
814.268	29029
814.41	29041
814.551	29018
814.692	29124
814.833	29067
814.974	29018
815.115	28946
815.256	28862
815.397	28801
815.539	28957
815.68	28892
815.821	28687
815.962	28706
816.103	28854
816.244	28713
816.385	28569
816.526	28626
816.666	28310
816.807	28348
816.948	28306
817.089	28489
817.23	28417
817.371	28409
817.512	28325
817.653	28318
817.793	28318
817.934	28371
818.075	28421
818.216	28261
818.356	28265
818.497	28131
818.638	27994
818.778	28169
818.919	28093
819.06	28230
819.2	28306
819.341	28242
819.481	28497
819.622	28531
819.762	28755
819.903	28618
820.043	28592
820.184	28489
820.324	28504
820.465	28615
820.605	28405
820.746	28440
820.886	28352
821.026	28519
821.167	28360
821.307	28451
821.447	28249
821.588	28253
821.728	28131
821.868	28082
822.008	27846
822.149	27785
822.289	27781
822.429	27610
822.569	27481
822.709	27485
822.849	27389
822.99	27427
823.13	27355
823.27	27249
823.41	27112
823.55	27150
823.69	27142
823.83	27119
823.97	27085
824.11	26994
824.25	26925
824.389	27043
824.529	27066
824.669	27142
824.809	27104
824.949	27024
825.089	27146
825.228	27036
825.368	26864
825.508	26883
825.648	26876
825.787	27001
825.927	26891
826.067	26830
826.206	26880
826.346	26925
826.485	26921
826.625	26849
826.765	27096
826.904	26994
827.044	26678
827.183	26678
827.323	26594
827.462	26579
827.601	26716
827.741	26613
827.88	26693
828.02	26465
828.159	26663
828.298	26716
828.437	26575
828.577	26579
828.716	26750
828.855	26526
828.994	26434
829.134	26180
829.273	26473
829.412	26237
829.551	26305
829.69	26298
829.829	26419
829.968	26282
830.107	26385
830.246	26214
830.385	26187
830.524	26153
830.663	26088
830.802	26043
830.941	25944
831.08	25811
831.219	26031
831.357	25986
831.496	26050
831.635	25864
831.774	25860
831.913	25833
832.051	25814
832.19	25533
832.329	25674
832.467	25616
832.606	25559
832.744	25453
832.883	25567
833.022	25620
833.16	25563
833.299	25624
833.437	25643
833.576	25685
833.714	25655
833.852	25696
833.991	25761
834.129	25803
834.267	25719
834.406	25731
834.544	25742
834.682	25681
834.821	25689
834.959	25879
835.097	25643
835.235	25628
835.373	25651
835.511	25525
835.65	25537
835.788	25567
835.926	25419
836.064	25251
836.202	25460
836.34	25415
836.478	25548
836.615	25468
836.753	25441
836.891	25324
837.029	25502
837.167	25514
837.305	25312
837.443	25415
837.58	25327
837.718	25369
837.856	25335
837.993	25206
838.131	25400
838.269	25270
838.406	25194
838.544	25164
838.681	24981
838.819	24916
838.956	24924
839.094	24779
839.231	24802
839.369	25046
839.506	25141
839.643	25110
839.781	24798
839.918	24722
840.055	24726
840.193	24715
840.33	24738
840.467	24753
840.604	24665
840.742	24966
840.879	24486
841.016	24551
841.153	24669
841.29	24772
841.427	24627
841.564	24654
841.701	24654
841.838	24715
841.975	24494
842.112	24612
842.249	24544
842.385	24441
842.522	24635
842.659	24437
842.796	24429
842.933	24429
843.069	24460
843.206	24426
843.343	24471
843.479	24418
843.616	24414
843.752	24224
843.889	24216
844.025	24407
844.162	24308
844.298	24418
844.435	24247
844.571	24273
844.708	24152
844.844	24353
844.98	24403
845.117	24315
845.253	24152
845.389	24125
845.525	24091
845.661	24015
845.798	23832
845.934	23897
846.07	23939
846.206	23912
846.342	24053
846.478	23893
846.614	23779
846.75	23634
846.886	23649
847.022	23695
847.158	23619
847.294	23691
847.429	23733
847.565	23524
847.701	23992
847.837	23414
847.972	23429
848.108	23448
848.244	23486
848.379	23273
848.515	23284
848.65	23246
848.786	23193
848.921	23162
849.057	23402
849.192	23334
849.328	23212
849.463	23254
849.598	23174
849.734	23086
849.869	22991
850.004	22957
850.14	22953
850.275	22953
850.41	22892
850.545	23018
850.68	22900
850.815	23083
850.95	22847
851.085	23151
851.22	23105
851.355	22999
851.49	22938
851.625	22869
851.76	22991
851.895	22885
852.03	23037
852.165	22976
852.299	23014
852.434	23094
852.569	22999
852.703	22953
852.838	22949
852.973	23105
853.107	23132
853.242	22946
853.376	22839
853.511	22809
853.645	22839
853.78	22831
853.914	22896
854.048	22683
854.183	22725
854.317	22713
854.451	23060
854.585	22889
854.72	22881
854.854	22850
854.988	22725
855.122	22782
855.256	22622
855.39	22877
855.524	22828
855.658	22946
855.792	22877
855.926	22767
856.06	22908
856.194	22896
856.327	22755
856.461	22721
856.595	22679
856.729	22687
856.862	22923
856.996	22873
857.13	22847
857.263	22991
857.397	22976
857.53	22812
857.664	22866
857.797	22847
857.931	22938
858.064	22873
858.197	22930
858.331	22949
858.464	22752
858.597	22850
858.731	22733
858.864	22752
858.997	22729
859.13	22759
859.263	22805
859.396	23090
859.529	23010
859.662	22771
859.795	22771
859.928	22862
860.061	22995
860.194	22976
860.327	22953
860.46	22854
860.592	22919
860.725	22866
860.858	22927
860.99	22991
861.123	22843
861.256	22847
861.388	22679
861.521	23539
861.653	22653
861.786	22641
861.918	22573
862.05	22713
862.183	22774
862.315	22862
862.447	22843
862.58	22736
862.712	22561
862.844	22508
862.976	22717
863.108	22634
863.24	22976
863.372	22436
863.504	22398
863.636	22538
863.768	22611
863.9	22451
864.032	22386
864.164	22440
864.296	22538
864.428	22713
864.559	22516
864.691	22653
864.823	22436
864.954	22470
865.086	22402
865.217	22478
865.349	22394
865.48	22398
865.612	22314
865.743	22538
865.875	22379
866.006	22344
866.137	22432
866.269	22421
866.4	22287
866.531	22131
866.662	22291
866.793	22329
866.924	22360
867.055	22390
867.186	22443
867.317	22325
867.448	22284
867.579	22234
867.71	22173
867.841	22109
867.972	22421
868.103	22367
868.233	22314
868.364	22466
868.495	22402
868.625	22443
868.756	22691
868.886	22611
869.017	22523
869.147	22729
869.278	22691
869.408	22717
869.539	22580
869.669	22702
869.799	22599
869.929	22672
870.06	22744
870.19	22881
870.32	22763
870.45	22946
870.58	22908
870.71	22953
870.84	23044
870.97	22858
871.1	23014
871.23	23090
871.36	23037
871.489	23029
871.619	23132
871.749	23117
871.879	23269
872.008	23326
872.138	23299
872.267	23151
872.397	23075
872.526	22927
872.656	23136
872.785	23044
872.915	23223
873.044	23376
873.173	23181
873.303	23273
873.432	23261
873.561	23284
873.69	23223
873.819	23124
873.948	23212
874.077	23117
874.206	23083
874.335	23029
874.464	23151
874.593	23452
874.722	23311
874.851	23455
874.979	23421
875.108	23398
875.237	23318
875.365	23356
875.494	23429
875.623	23497
875.751	23334
875.88	23497
876.008	23482
876.136	23577
876.265	23752
876.393	23855
876.521	23813
876.65	23802
876.778	23920
876.906	23596
877.034	23668
877.162	23798
877.29	23771
877.418	23703
877.546	23737
877.674	23703
877.802	23703
877.93	23767
878.058	23665
878.185	23486
878.313	23615
878.441	23775
878.568	23821
878.696	23680
878.824	23722
878.951	23836
879.079	23870
879.206	24041
879.333	23931
879.461	23691
879.588	23863
879.715	23939
879.842	24064
879.97	23836
880.097	23638
880.224	23600
880.351	23520
880.478	23596
880.605	23482
880.732	23570
880.859	23805
880.986	23402
881.112	23562
881.239	23433
881.366	23212
881.493	23288
881.619	23098
881.746	23223
881.872	23155
881.999	23025
882.125	23025
882.252	23185
882.378	23166
882.505	23231
882.631	22984
882.757	22877
882.883	22778
883.01	22679
883.136	22923
883.262	22538
883.388	22516
883.514	22839
883.64	22858
883.766	22653
883.892	22523
884.018	22577
884.143	22702
884.269	22592
884.395	22557
884.52	22367
884.646	22413
884.772	22360
884.897	22299
885.023	22428
885.148	22474
885.274	22516
885.399	22519
885.524	22348
885.65	22443
885.775	22447
885.9	22318
886.025	22519
886.15	22459
886.275	22329
886.4	22223
886.525	22409
886.65	22299
886.775	22360
886.9	22447
887.025	22672
887.149	22318
887.274	22268
887.399	22120
887.523	22226
887.648	22188
887.773	22093
887.897	22185
888.021	22204
888.146	22036
888.27	22215
888.395	22158
888.519	22181
888.643	22150
888.767	22128
888.891	22124
889.015	21983
889.139	22086
889.263	21998
889.387	22036
889.511	22139
889.635	21956
889.759	21873
889.883	21838
890.006	21861
890.13	21956
890.254	21915
890.377	21937
890.501	21751
890.624	21686
890.748	21667
890.871	21591
890.995	21500
891.118	21401
891.241	21477
891.364	21504
891.488	21633
891.611	21572
891.734	21473
891.857	21545
891.98	21500
892.103	21534
892.226	21576
892.349	21348
892.471	21165
892.594	21450
892.717	21329
892.839	21378
892.962	21367
893.085	21336
893.207	21351
893.33	21279
893.452	21298
893.575	21424
893.697	21336
893.819	21515
893.941	21625
894.064	21431
894.186	21302
894.308	21237
894.43	21496
894.552	21538
894.674	21408
894.796	21264
894.918	21325
895.04	21256
895.161	21317
895.283	21397
895.405	21344
895.526	21412
895.648	21302
895.769	21370
895.891	21340
896.012	21306
896.134	21340
896.255	21363
896.376	21268
896.498	21351
896.619	21351
896.74	21203
896.861	21454
896.982	21720
897.103	21846
897.224	21564
897.345	21572
897.466	21492
897.587	21599
897.708	21534
897.828	21644
897.949	21439
898.07	21405
898.19	21523
898.311	21583
898.431	21473
898.552	21523
898.672	21660
898.792	21534
898.913	21591
899.033	21367
899.153	21245
899.273	21306
899.393	21302
899.513	21135
899.633	21256
899.753	21233
899.873	21157
899.993	21252
900.113	21146
900.232	21252
900.352	21169
900.472	21036
900.591	21089
900.711	20956
900.83	20982
900.95	21096
901.069	21157
901.189	20967
901.308	20621
901.427	20651
901.546	20514
901.665	20617
901.784	20560
901.904	20408
902.023	20389
902.141	20130
902.26	20088
902.379	20256
902.498	20126
902.617	20024
902.735	20180
902.854	19963
902.973	20050
903.091	19655
903.21	19738
903.328	19750
903.446	19727
903.565	19605
903.683	19518
903.801	19434
903.919	19464
904.038	19415
904.156	19403
904.274	19460
904.392	19282
904.51	19148
904.627	19247
904.745	19327
904.863	19289
904.981	19202
905.098	18920
905.216	18985
905.334	18981
905.451	19015
905.569	18867
905.686	19000
905.803	18859
905.921	18776
906.038	18840
906.155	18753
906.272	18688
906.389	18703
906.506	18551
906.623	18494
906.74	18506
906.857	18327
906.974	18441
907.091	18486
907.208	18536
907.324	18601
907.441	18357
907.557	18174
907.674	18270
907.79	18186
907.907	18110
908.023	18220
908.139	18258
908.256	18072
908.372	18003
908.488	18155
908.604	17882
908.72	17904
908.836	18049
908.952	17965
909.068	17859
909.184	18026
909.3	17889
909.415	17863
909.531	17927
909.647	17573
909.762	17615
909.878	17543
909.993	17668
910.108	17581
910.224	17577
910.339	17573
910.454	17490
910.57	17364
910.685	17383
910.8	17680
910.915	17619
911.03	17364
911.145	17155
911.259	17124
911.374	17227
911.489	17143
911.604	17075
911.718	16965
911.833	16957
911.947	16767
912.062	16691
912.176	16911
912.291	16824
912.405	16885
912.519	17064
912.633	17105
912.748	16949
912.862	16869
912.976	16672
913.09	16675
913.204	16710
913.318	16649
913.431	16809
913.545	16774
913.659	16858
913.772	16672
913.886	16607
914	16436
914.113	16565
914.226	16611
914.34	16493
914.453	16436
914.566	16478
914.68	16344
914.793	16348
914.906	16177
915.019	16097
915.132	15930
915.245	16143
915.358	16013
915.47	16150
915.583	16067
915.696	16147
915.809	16261
915.921	16204
916.034	16002
916.146	15972
916.259	15937
916.371	16105
916.483	16029
916.595	15854
916.708	15831
916.82	15911
916.932	15842
917.044	15922
917.156	15789
917.268	15728
917.38	15728
917.491	15629
917.603	15656
917.715	15766
917.826	15766
917.938	15698
918.049	15553
918.161	15701
918.272	15781
918.384	15827
918.495	15705
918.606	15481
918.717	15405
918.828	15439
918.939	15466
919.05	15321
919.161	15515
919.272	15321
919.383	15260
919.494	15355
919.604	15523
919.715	15408
919.826	15363
919.936	15321
920.047	15370
920.157	15405
920.267	15481
920.378	15351
920.488	15351
920.598	15542
920.708	15713
920.818	15511
920.928	15526
921.038	15739
921.148	15606
921.258	15370
921.368	15150
921.477	15192
921.587	15085
921.697	14952
921.806	15108
921.916	15017
922.025	14720
922.134	14792
922.244	14533
922.353	14743
922.462	14655
922.571	14606
922.68	14514
922.789	14408
922.898	14408
923.007	14244
923.116	14347
923.224	14396
923.333	14347
923.442	14240
923.55	14168
923.659	14218
923.767	14180
923.876	14172
923.984	14206
924.092	14096
924.201	14092
924.309	14115
924.417	13997
924.525	13986
924.633	13928
924.741	14921
924.849	13811
924.956	13917
925.064	13776
925.172	13746
925.279	13727
925.387	13765
925.494	13765
925.602	13883
925.709	13776
925.816	13620
925.924	13677
926.031	13791
926.138	13636
926.245	13677
926.352	13597
926.459	13727
926.566	13772
926.673	13575
926.779	13407
926.886	13480
926.993	13392
927.099	13282
927.206	13190
927.312	13240
927.419	13232
927.525	13343
927.631	13247
927.737	13072
927.843	13126
927.95	12993
928.056	13042
928.162	13072
928.267	13129
928.373	13681
928.479	13095
928.585	12909
928.69	13000
928.796	13015
928.901	12966
929.007	12806
929.112	12935
929.218	12871
929.323	12856
929.428	12764
929.533	13000
929.638	12673
929.743	12753
929.848	12791
929.953	12711
930.058	12665
930.163	12479
930.267	12506
930.372	12551
930.477	12445
930.581	12658
930.685	12536
930.79	12365
930.894	12376
930.998	12323
931.103	12494
931.207	12144
931.311	11996
931.415	11885
931.519	11638
931.623	11657
