Data from test_V78500241_1131.txt Node
Date: Fri Mar 25 15:49:38 CST 2022
User: usil
Spectrometer: V785-0024
Trigger mode: 0
Integration Time (sec): 4.000000E-1
Scans to average: 1
Nonlinearity correction enabled: false
Boxcar width: 0
Storing dark spectrum: false
XAxis mode: Wavelengths
Number of Pixels in Spectrum: 1024
>>>>>Begin Spectral Data<<<<<
801.071	28527
801.214	28470
801.356	28211
801.499	28067
801.641	27979
801.783	28025
801.926	28150
802.068	28032
802.211	28040
802.353	27998
802.496	27827
802.638	27751
802.78	27804
802.923	27724
803.065	27629
803.208	27781
803.35	27762
803.492	27751
803.635	27953
803.777	27861
803.919	27953
804.061	28226
804.204	28192
804.346	27922
804.488	27918
804.63	27884
804.773	27835
804.915	28051
805.057	28082
805.199	28112
805.341	27983
805.483	28162
805.626	28192
805.768	28112
805.91	28082
806.052	28124
806.194	28150
806.336	28363
806.478	28246
806.62	28059
806.762	28249
806.904	28310
807.046	28805
807.188	28607
807.33	28535
807.472	28637
807.614	28508
807.756	28546
807.898	28447
808.04	28466
808.182	28569
808.324	28367
808.465	28462
808.607	28675
808.749	28869
808.891	29022
809.033	28968
809.174	28869
809.316	28908
809.458	28927
809.6	28725
809.741	28984
809.883	28999
810.025	28927
810.166	29280
810.308	29181
810.45	28911
810.591	28987
810.733	28763
810.875	28923
811.016	28744
811.158	28828
811.299	28786
811.441	29010
811.582	29060
811.724	28915
811.865	28778
812.007	28835
812.148	28820
812.29	28881
812.431	28976
812.573	29105
812.714	29292
812.855	29269
812.997	29425
813.138	29512
813.279	29589
813.421	29459
813.562	29330
813.703	29242
813.845	29060
813.986	28809
814.127	28664
814.268	28451
814.41	28656
814.551	28485
814.692	28649
814.833	28508
814.974	28485
815.115	28580
815.256	28599
815.397	28314
815.539	28443
815.68	28303
815.821	28276
815.962	28333
816.103	28405
816.244	28272
816.385	28101
816.526	28188
816.666	27914
816.807	27926
816.948	28013
817.089	27930
817.23	27937
817.371	27816
817.512	27747
817.653	27827
817.793	27793
817.934	27846
818.075	27838
818.216	27835
818.356	27774
818.497	27736
818.638	27603
818.778	27724
818.919	27576
819.06	27732
819.2	27739
819.341	27823
819.481	27873
819.622	28097
819.762	28226
819.903	28219
820.043	28044
820.184	27979
820.324	27975
820.465	27960
820.605	27876
820.746	27987
820.886	27968
821.026	28059
821.167	27846
821.307	28002
821.447	28006
821.588	27789
821.728	27641
821.868	27469
822.008	27340
822.149	27420
822.289	27222
822.429	27119
822.569	26880
822.709	27096
822.849	26948
822.99	26990
823.13	26914
823.27	26731
823.41	26659
823.55	26476
823.69	26705
823.83	26632
823.97	26545
824.11	26590
824.25	26453
824.389	26480
824.529	26549
824.669	26571
824.809	26670
824.949	26552
825.089	26678
825.228	26495
825.368	26446
825.508	26343
825.648	26267
825.787	26377
825.927	26590
826.067	26278
826.206	26442
826.346	26617
826.485	26518
826.625	26461
826.765	26583
826.904	26396
827.044	26320
827.183	26084
827.323	26126
827.462	26237
827.601	26043
827.741	26111
827.88	26081
828.02	26073
828.159	26130
828.298	26130
828.437	26153
828.577	25997
828.716	26244
828.855	26050
828.994	25772
829.134	25723
829.273	25856
829.412	25807
829.551	25761
829.69	25780
829.829	25841
829.968	26035
830.107	25822
830.246	25909
830.385	25742
830.524	25704
830.663	25597
830.802	25643
830.941	25411
831.08	25343
831.219	25487
831.357	25430
831.496	25670
831.635	25419
831.774	25312
831.913	25263
832.051	25209
832.19	25183
832.329	25285
832.467	25228
832.606	25206
832.744	25065
832.883	25122
833.022	25008
833.16	25228
833.299	25160
833.437	25118
833.576	25194
833.714	25164
833.852	25232
833.991	25232
834.129	25228
834.267	25126
834.406	25259
834.544	25213
834.682	25145
834.821	25145
834.959	25373
835.097	25069
835.235	25194
835.373	25129
835.511	25209
835.65	24890
835.788	24985
835.926	24848
836.064	24757
836.202	24757
836.34	24962
836.478	25038
836.615	24924
836.753	24992
836.891	24958
837.029	24958
837.167	24973
837.305	24863
837.443	24837
837.58	24684
837.718	24840
837.856	24817
837.993	24776
838.131	24650
838.269	24566
838.406	24601
838.544	24650
838.681	24452
838.819	24441
838.956	24281
839.094	24224
839.231	24308
839.369	24410
839.506	24726
839.643	24388
839.781	24281
839.918	24232
840.055	24220
840.193	24243
840.33	24163
840.467	24292
840.604	24167
840.742	24547
840.879	24049
841.016	23954
841.153	23992
841.29	24281
841.427	24129
841.564	24186
841.701	24171
841.838	24091
841.975	23950
842.112	24015
842.249	23931
842.385	23935
842.522	24148
842.659	23954
842.796	23946
842.933	23874
843.069	23729
843.206	23882
843.343	23954
843.479	23863
843.616	23794
843.752	23733
843.889	23649
844.025	23687
844.162	23646
844.298	23809
844.435	23558
844.571	23592
844.708	23691
844.844	23840
844.98	23866
845.117	23885
845.253	23657
845.389	23653
845.525	23611
845.661	23330
845.798	23421
845.934	23356
846.07	23372
846.206	23512
846.342	23551
846.478	23471
846.614	23181
846.75	23128
846.886	23121
847.022	23273
847.158	23121
847.294	23147
847.429	23178
847.565	23231
847.701	23406
847.837	22790
847.972	22968
848.108	22968
848.244	23022
848.379	22748
848.515	22736
848.65	22778
848.786	22725
848.921	22733
849.057	22721
849.192	22831
849.328	22744
849.463	22744
849.598	22538
849.734	22653
849.869	22649
850.004	22538
850.14	22588
850.275	22573
850.41	22405
850.545	22462
850.68	22489
850.815	22443
850.95	22546
851.085	22554
851.22	22672
851.355	22516
851.49	22596
851.625	22443
851.76	22531
851.895	22432
852.03	22382
852.165	22519
852.299	22440
852.434	22634
852.569	22478
852.703	22565
852.838	22561
852.973	22653
853.107	22535
853.242	22474
853.376	22325
853.511	22207
853.645	22322
853.78	22466
853.914	22375
854.048	22246
854.183	22280
854.317	22219
854.451	22512
854.585	22219
854.72	22333
854.854	22481
854.988	22333
855.122	22295
855.256	22287
855.39	22348
855.524	22390
855.658	22367
855.792	22322
855.926	22318
856.06	22272
856.194	22428
856.327	22253
856.461	22116
856.595	22215
856.729	22246
856.862	22417
856.996	22386
857.13	22371
857.263	22363
857.397	22466
857.53	22295
857.664	22367
857.797	22371
857.931	22386
858.064	22299
858.197	22413
858.331	22322
858.464	22318
858.597	22021
858.731	22238
858.864	22310
858.997	22363
859.13	22276
859.263	22417
859.396	22356
859.529	22291
859.662	22265
859.795	22200
859.928	22329
860.061	22493
860.194	22580
860.327	22280
860.46	22211
860.592	22356
860.725	22459
860.858	22382
860.99	22360
861.123	22314
861.256	22318
861.388	22436
861.521	23102
861.653	22223
861.786	22147
861.918	22070
862.05	22147
862.183	22226
862.315	22215
862.447	22371
862.58	22105
862.712	21964
862.844	21953
862.976	22070
863.108	22070
863.24	22481
863.372	22029
863.504	21956
863.636	22101
863.768	22135
863.9	21953
864.032	21934
864.164	21918
864.296	21994
864.428	22097
864.559	21949
864.691	22093
864.823	21975
864.954	22048
865.086	21972
865.217	21937
865.349	21766
865.48	21892
865.612	21846
865.743	22135
865.875	21922
866.006	21934
866.137	21922
866.269	21865
866.4	21819
866.531	21911
866.662	21766
866.793	21808
866.924	21911
867.055	21835
867.186	21728
867.317	21774
867.448	21701
867.579	21789
867.71	21648
867.841	21854
867.972	21785
868.103	21797
868.233	21895
868.364	21842
868.495	22021
868.625	22128
868.756	22200
868.886	22025
869.017	22017
869.147	22067
869.278	22143
869.408	22078
869.539	22223
869.669	22188
869.799	22044
869.929	22131
870.06	22093
870.19	22409
870.32	22344
870.45	22516
870.58	22424
870.71	22573
870.84	22580
870.97	22405
871.1	22421
871.23	22554
871.36	22546
871.489	22489
871.619	22626
871.749	22694
871.879	22706
872.008	22721
872.138	22683
872.267	22634
872.397	22561
872.526	22493
872.656	22436
872.785	22481
872.915	22618
873.044	22847
873.173	22733
873.303	22618
873.432	22763
873.561	22801
873.69	22710
873.819	22675
873.948	22653
874.077	22797
874.206	22656
874.335	22706
874.464	22801
874.593	22854
874.722	22908
874.851	22847
874.979	22942
875.108	22900
875.237	22911
875.365	22816
875.494	22961
875.623	22976
875.751	22923
875.88	22812
876.008	23223
876.136	23136
876.265	23200
876.393	23444
876.521	23296
876.65	23395
876.778	23311
876.906	23254
877.034	23208
877.162	23231
877.29	23079
877.418	23159
877.546	23330
877.674	23159
877.802	23117
877.93	23269
878.058	23147
878.185	23147
878.313	23189
878.441	23216
878.568	23102
878.696	23098
878.824	23292
878.951	23250
879.079	23512
879.206	23642
879.333	23414
879.461	23227
879.588	23356
879.715	23330
879.842	23562
879.97	23231
880.097	23018
880.224	23003
880.351	23018
880.478	23041
880.605	23037
880.732	23060
880.859	23212
880.986	23140
881.112	23006
881.239	22850
881.366	22839
881.493	22740
881.619	22569
881.746	22611
881.872	22634
881.999	22516
882.125	22626
882.252	22615
882.378	22542
882.505	22744
882.631	22379
882.757	22299
882.883	22318
883.01	22310
883.136	22226
883.262	22074
883.388	22109
883.514	22367
883.64	22242
883.766	22234
883.892	22025
884.018	22074
884.143	22276
884.269	22356
884.395	22044
884.52	21915
884.646	22029
884.772	21743
884.897	21816
885.023	22051
885.148	22006
885.274	22051
885.399	21994
885.524	22063
885.65	21937
885.775	21918
885.9	21934
886.025	22017
886.15	21983
886.275	21895
886.4	21781
886.525	21937
886.65	21781
886.775	21850
886.9	21956
887.025	22055
887.149	21926
887.274	21884
887.399	21713
887.523	21728
887.648	21633
887.773	21656
887.897	21682
888.021	21633
888.146	21770
888.27	21743
888.395	21698
888.519	21618
888.643	21774
888.767	21720
888.891	21713
889.015	21545
889.139	21603
889.263	21462
889.387	21606
889.511	21663
889.635	21519
889.759	21488
889.883	21363
890.006	21526
890.13	21610
890.254	21397
890.377	21420
890.501	21264
890.624	21180
890.748	21207
890.871	21127
890.995	21028
891.118	20948
891.241	21150
891.364	20998
891.488	21203
891.611	21104
891.734	21135
891.857	21032
891.98	21055
892.103	21036
892.226	20948
892.349	20826
892.471	20785
892.594	20960
892.717	20941
892.839	20933
892.962	20864
893.085	20944
893.207	20914
893.33	20807
893.452	20880
893.575	20944
893.697	20910
893.819	21089
893.941	21138
894.064	20975
894.186	20933
894.308	20902
894.43	21039
894.552	21017
894.674	20956
894.796	20712
894.918	20883
895.04	20830
895.161	21028
895.283	20887
895.405	20788
895.526	20857
895.648	20925
895.769	20933
895.891	20975
896.012	20990
896.134	20990
896.255	20815
896.376	20811
896.498	20883
896.619	20872
896.74	20910
896.861	20918
896.982	21211
897.103	21283
897.224	21119
897.345	21142
897.466	21028
897.587	21272
897.708	21336
897.828	21055
897.949	21085
898.07	20914
898.19	20982
898.311	21211
898.431	20944
898.552	21104
898.672	21264
898.792	21093
898.913	21070
899.033	21055
899.153	20910
899.273	20731
899.393	20864
899.513	20868
899.633	20712
899.753	20830
899.873	20746
899.993	20880
900.113	20796
900.232	20792
900.352	20758
900.472	20678
900.591	20541
900.711	20689
900.83	20613
900.95	20644
901.069	20716
901.189	20621
901.308	20320
901.427	20199
901.546	20195
901.665	20168
901.784	20149
901.904	20005
902.023	19883
902.141	19814
902.26	19742
902.379	19746
902.498	19719
902.617	19719
902.735	19681
902.854	19715
902.973	19708
903.091	19407
903.21	19346
903.328	19297
903.446	19285
903.565	19133
903.683	19202
903.801	19084
903.919	19110
904.038	19027
904.156	18875
904.274	19038
904.392	18939
904.51	18890
904.627	18924
904.745	18989
904.863	18924
904.981	18665
905.098	18506
905.216	18677
905.334	18509
905.451	18620
905.569	18635
905.686	18639
905.803	18544
905.921	18311
906.038	18460
906.155	18388
906.272	18289
906.389	18133
906.506	18216
906.623	18098
906.74	18224
906.857	18030
906.974	18102
907.091	18167
907.208	18346
907.324	18087
907.441	17897
907.557	17863
907.674	17786
907.79	17684
907.907	17836
908.023	17794
908.139	17813
908.256	17714
908.372	17726
908.488	17619
908.604	17554
908.72	17543
908.836	17482
908.952	17505
909.068	17490
909.184	17543
909.3	17570
909.415	17501
909.531	17452
909.647	17273
909.762	17235
909.878	17140
909.993	17265
910.108	17185
910.224	17193
910.339	17242
910.454	16976
910.57	17166
910.685	16972
910.8	17292
910.915	17128
911.03	16976
911.145	16831
911.259	16713
911.374	16755
911.489	16733
911.604	16672
911.718	16531
911.833	16615
911.947	16538
912.062	16413
912.176	16626
912.291	16573
912.405	16516
912.519	16748
912.633	16740
912.748	16622
912.862	16462
912.976	16337
913.09	16246
913.204	16322
913.318	16432
913.431	16432
913.545	16436
913.659	16421
913.772	16295
913.886	16116
914	16192
914.113	16230
914.226	16261
914.34	16166
914.453	16013
914.566	16219
914.68	16017
914.793	16059
914.906	15789
915.019	15724
915.132	15694
915.245	15641
915.358	15778
915.47	15705
915.583	15751
915.696	15762
915.809	15854
915.921	15869
916.034	15625
916.146	15671
916.259	15633
916.371	15644
916.483	15732
916.595	15553
916.708	15500
916.82	15557
916.932	15443
917.044	15526
917.156	15538
917.268	15370
917.38	15386
917.491	15367
917.603	15374
917.715	15397
917.826	15367
917.938	15294
918.049	15283
918.161	15275
918.272	15424
918.384	15332
918.495	15275
918.606	15173
918.717	15043
918.828	15165
918.939	15062
919.05	15085
919.161	15055
919.272	14906
919.383	14899
919.494	15085
919.604	15359
919.715	15032
919.826	15032
919.936	15028
920.047	15127
920.157	15097
920.267	15275
920.378	15051
920.488	15074
920.598	15256
920.708	15408
920.818	15214
920.928	15203
921.038	15344
921.148	15313
921.258	14918
921.368	14918
921.477	14720
921.587	14872
921.697	14613
921.806	14773
921.916	14590
922.025	14480
922.134	14442
922.244	14412
922.353	14549
922.462	14298
922.571	14202
922.68	14157
922.789	14031
922.898	14084
923.007	13997
923.116	14081
923.224	14077
923.333	14058
923.442	13917
923.55	13803
923.659	13932
923.767	13909
923.876	13852
923.984	13811
924.092	13772
924.201	13811
924.309	13769
924.417	13791
924.525	13746
924.633	13689
924.741	14556
924.849	13540
924.956	13582
925.064	13525
925.172	13415
925.279	13460
925.387	13468
925.494	13445
925.602	13594
925.709	13502
925.816	13400
925.924	13381
926.031	13434
926.138	13362
926.245	13381
926.352	13251
926.459	13381
926.566	13422
926.673	13266
926.779	13293
926.886	13266
926.993	13053
927.099	12951
927.206	13015
927.312	12871
927.419	13038
927.525	12989
927.631	12993
927.737	12875
927.843	12764
927.95	12749
928.056	12825
928.162	12745
928.267	12840
928.373	13396
928.479	12886
928.585	12711
928.69	12753
928.796	12776
928.901	12700
929.007	12513
929.112	12631
929.218	12707
929.323	12593
929.428	12593
929.533	12662
929.638	12494
929.743	12555
929.848	12540
929.953	12513
930.058	12350
930.163	12201
930.267	12235
930.372	12376
930.477	12220
930.581	12380
930.685	12258
930.79	12041
930.894	12148
930.998	12102
931.103	12205
931.207	11859
931.311	11809
931.415	11756
931.519	11463
931.623	11448
