Data from test_V78500241_1141.txt Node
Date: Fri Mar 25 15:49:42 CST 2022
User: usil
Spectrometer: V785-0024
Trigger mode: 0
Integration Time (sec): 4.000000E-1
Scans to average: 1
Nonlinearity correction enabled: false
Boxcar width: 0
Storing dark spectrum: false
XAxis mode: Wavelengths
Number of Pixels in Spectrum: 1024
>>>>>Begin Spectral Data<<<<<
801.071	28196
801.214	28181
801.356	27983
801.499	27823
801.641	27846
801.783	27816
801.926	27785
802.068	27816
802.211	27793
802.353	27599
802.496	27515
802.638	27439
802.78	27507
802.923	27496
803.065	27473
803.208	27466
803.35	27439
803.492	27500
803.635	27713
803.777	27526
803.919	27644
804.061	27953
804.204	27736
804.346	27656
804.488	27595
804.63	27755
804.773	27667
804.915	27618
805.057	27751
805.199	27595
805.341	27694
805.483	27728
805.626	27854
805.768	27789
805.91	27724
806.052	27774
806.194	27781
806.336	28074
806.478	27865
806.62	27914
806.762	28051
806.904	28169
807.046	28379
807.188	28371
807.33	28337
807.472	28337
807.614	28082
807.756	28344
807.898	28223
808.04	28154
808.182	28109
808.324	28150
808.465	28344
808.607	28287
808.749	28615
808.891	28653
809.033	28664
809.174	28504
809.316	28565
809.458	28504
809.6	28421
809.741	28577
809.883	28679
810.025	28828
810.166	28873
810.308	28809
810.45	28797
810.591	28733
810.733	28645
810.875	28554
811.016	28443
811.158	28432
811.299	28596
811.441	28679
811.582	28679
811.724	28588
811.865	28527
812.007	28531
812.148	28611
812.29	28675
812.431	28790
812.573	28987
812.714	28919
812.855	29003
812.997	29151
813.138	29269
813.279	29200
813.421	29098
813.562	29113
813.703	28927
813.845	28771
813.986	28466
814.127	28329
814.268	28268
814.41	28322
814.551	28169
814.692	28204
814.833	28192
814.974	28162
815.115	28143
815.256	28124
815.397	28166
815.539	28147
815.68	28032
815.821	28093
815.962	28063
816.103	27983
816.244	27949
816.385	27770
816.526	27850
816.666	27572
816.807	27473
816.948	27656
817.089	27720
817.23	27534
817.371	27534
817.512	27599
817.653	27599
817.793	27519
817.934	27424
818.075	27481
818.216	27572
818.356	27454
818.497	27382
818.638	27279
818.778	27325
818.919	27287
819.06	27272
819.2	27367
819.341	27572
819.481	27519
819.622	27595
819.762	27781
819.903	27797
820.043	27709
820.184	27751
820.324	27663
820.465	27625
820.605	27720
820.746	27637
820.886	27538
821.026	27652
821.167	27530
821.307	27736
821.447	27583
821.588	27572
821.728	27363
821.868	27195
822.008	27055
822.149	27116
822.289	27024
822.429	26670
822.569	26670
822.709	26754
822.849	26556
822.99	26465
823.13	26457
823.27	26415
823.41	26431
823.55	26218
823.69	26305
823.83	26423
823.97	26153
824.11	26168
824.25	26164
824.389	26233
824.529	26199
824.669	26183
824.809	26286
824.949	26275
825.089	26298
825.228	26240
825.368	26130
825.508	26111
825.648	26214
825.787	26164
825.927	26058
826.067	26138
826.206	26180
826.346	26206
826.485	26107
826.625	26005
826.765	26164
826.904	26065
827.044	25738
827.183	25894
827.323	25776
827.462	25837
827.601	25959
827.741	25791
827.88	25944
828.02	25616
828.159	25765
828.298	25909
828.437	25811
828.577	25708
828.716	25883
828.855	25704
828.994	25438
829.134	25499
829.273	25521
829.412	25438
829.551	25373
829.69	25434
829.829	25518
829.968	25639
830.107	25453
830.246	25506
830.385	25468
830.524	25354
830.663	25407
830.802	25053
830.941	25072
831.08	25156
831.219	25278
831.357	25259
831.496	25308
831.635	25133
831.774	25000
831.913	24951
832.051	25038
832.19	24779
832.329	24913
832.467	24844
832.606	24795
832.744	24665
832.883	24703
833.022	24711
833.16	24817
833.299	24798
833.437	24734
833.576	24909
833.714	24871
833.852	24837
833.991	24954
834.129	24821
834.267	24954
834.406	24943
834.544	24791
834.682	24844
834.821	24890
834.959	24939
835.097	24665
835.235	24875
835.373	24779
835.511	24863
835.65	24677
835.788	24707
835.926	24540
836.064	24414
836.202	24456
836.34	24475
836.478	24806
836.615	24399
836.753	24867
836.891	24700
837.029	24764
837.167	24631
837.305	24631
837.443	24563
837.58	24536
837.718	24578
837.856	24570
837.993	24471
838.131	24319
838.269	24429
838.406	24342
838.544	24319
838.681	24220
838.819	24136
838.956	23996
839.094	23916
839.231	24022
839.369	24205
839.506	24350
839.643	24216
839.781	23950
839.918	23912
840.055	23946
840.193	23942
840.33	23916
840.467	24003
840.604	24003
840.742	24003
840.879	23783
841.016	23912
841.153	23809
841.29	23977
841.427	23942
841.564	23973
841.701	23912
841.838	23832
841.975	23824
842.112	23752
842.249	23710
842.385	23703
842.522	23889
842.659	23649
842.796	23585
842.933	23573
843.069	23554
843.206	23623
843.343	23649
843.479	23627
843.616	23714
843.752	23478
843.889	23383
844.025	23520
844.162	23421
844.298	23497
844.435	23349
844.571	23383
844.708	23410
844.844	23539
844.98	23680
845.117	23463
845.253	23284
845.389	23246
845.525	23345
845.661	23307
845.798	23121
845.934	23254
846.07	23098
846.206	23136
846.342	23299
846.478	23086
846.614	22927
846.75	22873
846.886	22835
847.022	23006
847.158	22991
847.294	22984
847.429	22946
847.565	22934
847.701	22991
847.837	22702
847.972	22493
848.108	22577
848.244	22786
848.379	22535
848.515	22303
848.65	22371
848.786	22481
848.921	22489
849.057	22523
849.192	22679
849.328	22386
849.463	22436
849.598	22375
849.734	22371
849.869	22318
850.004	22215
850.14	22154
850.275	22280
850.41	22196
850.545	22158
850.68	22268
850.815	22257
850.95	22147
851.085	22451
851.22	22348
851.355	22261
851.49	22112
851.625	22200
851.76	22242
851.895	22166
852.03	22143
852.165	22249
852.299	22341
852.434	22352
852.569	22242
852.703	22318
852.838	22306
852.973	22268
853.107	22432
853.242	22086
853.376	22093
853.511	21918
853.645	21949
853.78	22105
853.914	22166
854.048	22120
854.183	21991
854.317	22074
854.451	22223
854.585	22055
854.72	22010
854.854	22048
854.988	22082
855.122	22101
855.256	21884
855.39	21994
855.524	22048
855.658	22105
855.792	22048
855.926	22150
856.06	22131
856.194	22070
856.327	22086
856.461	21994
856.595	22074
856.729	22055
856.862	22196
856.996	21960
857.13	22162
857.263	22158
857.397	22086
857.53	22025
857.664	22109
857.797	22093
857.931	22101
858.064	22116
858.197	22158
858.331	22036
858.464	21903
858.597	21945
858.731	22044
858.864	22105
858.997	22044
859.13	21930
859.263	22051
859.396	22078
859.529	21972
859.662	21987
859.795	21949
859.928	21953
860.061	22078
860.194	22322
860.327	22116
860.46	22090
860.592	22109
860.725	22242
860.858	22166
860.99	22082
861.123	21941
861.256	21903
861.388	22070
861.521	22835
861.653	21945
861.786	21918
861.918	21922
862.05	21960
862.183	21899
862.315	21964
862.447	22017
862.58	21949
862.712	21755
862.844	21709
862.976	21793
863.108	21808
863.24	22135
863.372	21713
863.504	21682
863.636	21679
863.768	21720
863.9	21720
864.032	21515
864.164	21622
864.296	21690
864.428	21892
864.559	21739
864.691	21812
864.823	21686
864.954	21728
865.086	21622
865.217	21679
865.349	21504
865.48	21587
865.612	21778
865.743	21762
865.875	21648
866.006	21667
866.137	21561
866.269	21614
866.4	21667
866.531	21739
866.662	21534
866.793	21492
866.924	21694
867.055	21523
867.186	21557
867.317	21511
867.448	21462
867.579	21530
867.71	21523
867.841	21557
867.972	21614
868.103	21580
868.233	21473
868.364	21553
868.495	21652
868.625	21648
868.756	21880
868.886	21618
869.017	21770
869.147	21983
869.278	21892
869.408	21827
869.539	21751
869.669	21903
869.799	21838
869.929	21876
870.06	21869
870.19	22169
870.32	21899
870.45	22257
870.58	22147
870.71	22249
870.84	22272
870.97	21994
871.1	22093
871.23	22462
871.36	22405
871.489	22280
871.619	22417
871.749	22230
871.879	22489
872.008	22599
872.138	22344
872.267	22363
872.397	22356
872.526	22162
872.656	22200
872.785	22253
872.915	22527
873.044	22447
873.173	22379
873.303	22352
873.432	22432
873.561	22436
873.69	22394
873.819	22474
873.948	22402
874.077	22424
874.206	22291
874.335	22504
874.464	22546
874.593	22752
874.722	22390
874.851	22618
874.979	22535
875.108	22687
875.237	22497
875.365	22497
875.494	22622
875.623	22683
875.751	22550
875.88	22691
876.008	22850
876.136	22919
876.265	23193
876.393	23090
876.521	23056
876.65	23151
876.778	22949
876.906	22946
877.034	22927
877.162	23071
877.29	22877
877.418	22908
877.546	23033
877.674	22934
877.802	22987
877.93	22949
878.058	23010
878.185	22797
878.313	23052
878.441	22938
878.568	22839
878.696	22873
878.824	23025
878.951	22915
879.079	23216
879.206	23296
879.333	23109
879.461	22999
879.588	23064
879.715	23102
879.842	23242
879.97	23105
880.097	22793
880.224	22831
880.351	22885
880.478	22824
880.605	22668
880.732	22828
880.859	23098
880.986	22740
881.112	22869
881.239	22645
881.366	22466
881.493	22455
881.619	22276
881.746	22325
881.872	22424
881.999	22390
882.125	22204
882.252	22512
882.378	22360
882.505	22459
882.631	22211
882.757	21994
882.883	22116
883.01	22044
883.136	21934
883.262	21873
883.388	21850
883.514	22010
883.64	22120
883.766	21907
883.892	21880
884.018	21937
884.143	22067
884.269	21953
884.395	21690
884.52	21728
884.646	21698
884.772	21629
884.897	21622
885.023	21599
885.148	21812
885.274	21816
885.399	21720
885.524	21675
885.65	21629
885.775	21614
885.9	21538
886.025	21732
886.15	21785
886.275	21671
886.4	21625
886.525	21618
886.65	21580
886.775	21637
886.9	21846
887.025	21850
887.149	21660
887.274	21393
887.399	21511
887.523	21412
887.648	21439
887.773	21321
887.897	21492
888.021	21481
888.146	21439
888.27	21405
888.395	21549
888.519	21504
888.643	21443
888.767	21408
888.891	21313
889.015	21241
889.139	21226
889.263	21249
889.387	21401
889.511	21397
889.635	21397
889.759	21226
889.883	21192
890.006	21264
890.13	21325
890.254	21188
890.377	21176
890.501	21017
890.624	21032
890.748	20990
890.871	20804
890.995	20750
891.118	20705
891.241	20785
891.364	20792
891.488	20979
891.611	20712
891.734	20769
891.857	20792
891.98	20815
892.103	20712
892.226	20781
892.349	20800
892.471	20609
892.594	20674
892.717	20727
892.839	20678
892.962	20807
893.085	20796
893.207	20693
893.33	20602
893.452	20533
893.575	20758
893.697	20594
893.819	20861
893.941	20963
894.064	20670
894.186	20434
894.308	20507
894.43	20617
894.552	20796
894.674	20727
894.796	20556
894.918	20609
895.04	20590
895.161	20746
895.283	20773
895.405	20659
895.526	20667
895.648	20552
895.769	20705
895.891	20693
896.012	20708
896.134	20648
896.255	20773
896.376	20541
896.498	20625
896.619	20724
896.74	20724
896.861	20659
896.982	20952
897.103	21108
897.224	20868
897.345	20853
897.466	20857
897.587	20861
897.708	21024
897.828	20883
897.949	20712
898.07	20678
898.19	20720
898.311	20960
898.431	20826
898.552	20967
898.672	20967
898.792	21039
898.913	20899
899.033	20765
899.153	20651
899.273	20609
899.393	20602
899.513	20674
899.633	20674
899.753	20636
899.873	20636
899.993	20617
900.113	20556
900.232	20549
900.352	20530
900.472	20583
900.591	20301
900.711	20427
900.83	20248
900.95	20526
901.069	20328
901.189	20210
901.308	20020
901.427	20005
901.546	19932
901.665	20005
901.784	19970
901.904	19841
902.023	19727
902.141	19518
902.26	19480
902.379	19510
902.498	19510
902.617	19377
902.735	19457
902.854	19499
902.973	19430
903.091	19141
903.21	19133
903.328	19175
903.446	19107
903.565	19012
903.683	18920
903.801	18859
903.919	18875
904.038	18863
904.156	18787
904.274	18810
904.392	18715
904.51	18593
904.627	18642
904.745	18757
904.863	18745
904.981	18308
905.098	18372
905.216	18323
905.334	18437
905.451	18479
905.569	18369
905.686	18350
905.803	18285
905.921	18262
906.038	18311
906.155	18117
906.272	18053
906.389	18148
906.506	17920
906.623	17904
906.74	17809
906.857	17752
906.974	17733
907.091	17908
907.208	18049
907.324	17817
907.441	17885
907.557	17653
907.674	17573
907.79	17581
907.907	17520
908.023	17577
908.139	17627
908.256	17471
908.372	17570
908.488	17414
908.604	17315
908.72	17311
908.836	17318
908.952	17322
909.068	17356
909.184	17299
909.3	17193
909.415	17425
909.531	17284
909.647	17090
909.762	17060
909.878	16987
909.993	17052
910.108	17022
910.224	16908
910.339	16980
910.454	16949
910.57	16839
910.685	16721
910.8	16984
910.915	16889
911.03	16713
911.145	16660
911.259	16489
911.374	16634
911.489	16519
911.604	16432
911.718	16337
911.833	16299
911.947	16341
912.062	16173
912.176	16363
912.291	16318
912.405	16504
912.519	16512
912.633	16523
912.748	16356
912.862	16242
912.976	16105
913.09	16006
913.204	16086
913.318	16215
913.431	16226
913.545	16226
913.659	16333
913.772	16105
913.886	15979
914	15911
914.113	16086
914.226	16048
914.34	16032
914.453	15876
914.566	15907
914.68	15823
914.793	15804
914.906	15564
915.019	15519
915.132	15405
915.245	15545
915.358	15519
915.47	15557
915.583	15561
915.696	15614
915.809	15629
915.921	15736
916.034	15485
916.146	15424
916.259	15397
916.371	15500
916.483	15454
916.595	15329
916.708	15344
916.82	15397
916.932	15370
917.044	15363
917.156	15245
917.268	15230
917.38	15237
917.491	15184
917.603	15173
917.715	15142
917.826	15214
917.938	15161
918.049	15005
918.161	15150
918.272	15233
918.384	15180
918.495	15165
918.606	14933
918.717	14883
918.828	14845
918.939	14883
919.05	14937
919.161	14891
919.272	14689
919.383	14815
919.494	14960
919.604	15074
919.715	14918
919.826	14743
919.936	14887
920.047	14941
920.157	14815
920.267	15108
920.378	15036
920.488	14872
920.598	15127
920.708	15154
920.818	14998
920.928	15062
921.038	15249
921.148	15093
921.258	14800
921.368	14724
921.477	14590
921.587	14507
921.697	14617
921.806	14640
921.916	14469
922.025	14415
922.134	14301
922.244	14199
922.353	14324
922.462	14172
922.571	14092
922.68	13898
922.789	13913
922.898	13947
923.007	13734
923.116	13845
923.224	13868
923.333	13841
923.442	13795
923.55	13601
923.659	13807
923.767	13795
923.876	13651
923.984	13818
924.092	13616
924.201	13715
924.309	13670
924.417	13594
924.525	13636
924.633	13518
924.741	14252
924.849	13213
924.956	13480
925.064	13369
925.172	13209
925.279	13350
925.387	13301
925.494	13266
925.602	13460
925.709	13392
925.816	13194
925.924	13194
926.031	13270
926.138	13103
926.245	13297
926.352	13118
926.459	13316
926.566	13285
926.673	13065
926.779	13004
926.886	12985
926.993	12916
927.099	12901
927.206	12848
927.312	12768
927.419	12844
927.525	12840
927.631	12886
927.737	12783
927.843	12688
927.95	12544
928.056	12635
928.162	12631
928.267	12722
928.373	13343
928.479	12730
928.585	12536
928.69	12582
928.796	12639
928.901	12563
929.007	12296
929.112	12570
929.218	12521
929.323	12330
929.428	12384
929.533	12494
929.638	12300
929.743	12323
929.848	12399
929.953	12376
930.058	12178
930.163	12041
930.267	12057
930.372	12209
930.477	12019
930.581	12216
930.685	12129
930.79	11893
930.894	12007
930.998	11824
931.103	12019
931.207	11695
931.311	11604
931.415	11421
931.519	11303
931.623	11303
