Data from test_V78500241_5.txt Node
Date: Fri Mar 25 15:41:50 CST 2022
User: usil
Spectrometer: V785-0024
Trigger mode: 0
Integration Time (sec): 4.000000E-1
Scans to average: 1
Nonlinearity correction enabled: false
Boxcar width: 0
Storing dark spectrum: false
XAxis mode: Wavelengths
Number of Pixels in Spectrum: 1024
>>>>>Begin Spectral Data<<<<<
801.071	27169
801.214	27005
801.356	26724
801.499	26807
801.641	26568
801.783	26499
801.926	26457
802.068	26389
802.211	26377
802.353	26343
802.496	26172
802.638	26134
802.78	26062
802.923	25925
803.065	25932
803.208	25970
803.35	25947
803.492	26111
803.635	26191
803.777	25936
803.919	25989
804.061	26309
804.204	26084
804.346	25959
804.488	25902
804.63	25909
804.773	25982
804.915	25909
805.057	25955
805.199	25959
805.341	26077
805.483	26103
805.626	25936
805.768	25833
805.91	26157
806.052	26077
806.194	25955
806.336	26145
806.478	26027
806.62	25928
806.762	26187
806.904	26313
807.046	26511
807.188	26252
807.33	26286
807.472	26366
807.614	26381
807.756	26298
807.898	26206
808.04	26142
808.182	26214
808.324	26126
808.465	26157
808.607	26298
808.749	26427
808.891	26583
809.033	26659
809.174	26431
809.316	26473
809.458	26336
809.6	26377
809.741	26552
809.883	26549
810.025	26488
810.166	26693
810.308	26762
810.45	26632
810.591	26431
810.733	26305
810.875	26248
811.016	26134
811.158	26195
811.299	26347
811.441	26461
811.582	26446
811.724	26419
811.865	26199
812.007	26202
812.148	26183
812.29	26313
812.431	26343
812.573	26579
812.714	26686
812.855	26697
812.997	26994
813.138	26944
813.279	26929
813.421	26834
813.562	26617
813.703	26636
813.845	26423
813.986	26126
814.127	26016
814.268	26031
814.41	25814
814.551	25803
814.692	25769
814.833	25936
814.974	25723
815.115	25772
815.256	25674
815.397	25521
815.539	25597
815.68	25548
815.821	25571
815.962	25571
816.103	25445
816.244	25403
816.385	25270
816.526	25133
816.666	25110
816.807	24871
816.948	25076
817.089	24996
817.23	24863
817.371	24791
817.512	24897
817.653	24852
817.793	24688
817.934	24935
818.075	24802
818.216	24890
818.356	24806
818.497	24612
818.638	24445
818.778	24574
818.919	24540
819.06	24642
819.2	24612
819.341	24738
819.481	24798
819.622	24996
819.762	25000
819.903	25061
820.043	24901
820.184	24707
820.324	24859
820.465	24844
820.605	24856
820.746	24920
820.886	24696
821.026	24844
821.167	24817
821.307	24741
821.447	24837
821.588	24574
821.728	24585
821.868	24361
822.008	24243
822.149	24167
822.289	24186
822.429	23882
822.569	23847
822.709	23824
822.849	23733
822.99	23585
823.13	23615
823.27	23634
823.41	23440
823.55	23490
823.69	23452
823.83	23261
823.97	23330
824.11	23402
824.25	23170
824.389	23166
824.529	23143
824.669	23208
824.809	23235
824.949	23124
825.089	23185
825.228	23151
825.368	23022
825.508	22968
825.648	22976
825.787	22942
825.927	22923
826.067	22801
826.206	22805
826.346	22991
826.485	23014
826.625	22824
826.765	22965
826.904	22809
827.044	22687
827.183	22622
827.323	22546
827.462	22573
827.601	22592
827.741	22519
827.88	22519
828.02	22360
828.159	22371
828.298	22611
828.437	22618
828.577	22428
828.716	22759
828.855	22455
828.994	22325
829.134	22352
829.273	22219
829.412	22177
829.551	22196
829.69	22204
829.829	22238
829.968	22417
830.107	22318
830.246	22188
830.385	22166
830.524	22070
830.663	22040
830.802	21888
830.941	21774
831.08	21739
831.219	21781
831.357	21842
831.496	21934
831.635	21743
831.774	21717
831.913	21629
832.051	21614
832.19	21405
832.329	21572
832.467	21351
832.606	21332
832.744	21317
832.883	21367
833.022	21287
833.16	21405
833.299	21374
833.437	21340
833.576	21538
833.714	21450
833.852	21397
833.991	21408
834.129	21469
834.267	21313
834.406	21374
834.544	21382
834.682	21310
834.821	21302
834.959	21576
835.097	21340
835.235	21405
835.373	21268
835.511	21488
835.65	21260
835.788	21241
835.926	21142
836.064	20971
836.202	21013
836.34	21237
836.478	21332
836.615	21226
836.753	21313
836.891	21332
837.029	21100
837.167	21226
837.305	21161
837.443	21077
837.58	21017
837.718	21203
837.856	21154
837.993	21009
838.131	21005
838.269	20982
838.406	21047
838.544	20918
838.681	20765
838.819	20701
838.956	20533
839.094	20442
839.231	20579
839.369	20560
839.506	20864
839.643	20826
839.781	20533
839.918	20503
840.055	20469
840.193	20465
840.33	20374
840.467	20427
840.604	20476
840.742	20724
840.879	20305
841.016	20263
841.153	20358
841.29	20522
841.427	20484
841.564	20427
841.701	20454
841.838	20278
841.975	20248
842.112	20282
842.249	20195
842.385	20218
842.522	20336
842.659	20206
842.796	20103
842.933	20062
843.069	20081
843.206	20031
843.343	20065
843.479	20012
843.616	20202
843.752	19769
843.889	19837
844.025	19967
844.162	19868
844.298	19967
844.435	19837
844.571	19776
844.708	19830
844.844	19871
844.98	19982
845.117	19909
845.253	19712
845.389	19715
845.525	19852
845.661	19658
845.798	19544
845.934	19670
846.07	19586
846.206	19586
846.342	19666
846.478	19426
846.614	19297
846.75	19247
846.886	19301
847.022	19426
847.158	19369
847.294	19301
847.429	19381
847.565	19255
847.701	19613
847.837	19023
847.972	19080
848.108	19076
848.244	19015
848.379	18954
848.515	18856
848.65	18825
848.786	18768
848.921	18897
849.057	18939
849.192	18996
849.328	18878
849.463	18779
849.598	18700
849.734	18817
849.869	18745
850.004	18642
850.14	18665
850.275	18661
850.41	18475
850.545	18616
850.68	18547
850.815	18681
850.95	18479
851.085	18795
851.22	18669
851.355	18464
851.49	18547
851.625	18498
851.76	18509
851.895	18452
852.03	18372
852.165	18517
852.299	18551
852.434	18658
852.569	18498
852.703	18658
852.838	18578
852.973	18757
853.107	18570
853.242	18399
853.376	18342
853.511	18346
853.645	18308
853.78	18525
853.914	18350
854.048	18372
854.183	18372
854.317	18380
854.451	18506
854.585	18384
854.72	18334
854.854	18414
854.988	18277
855.122	18384
855.256	18224
855.39	18380
855.524	18384
855.658	18384
855.792	18456
855.926	18372
856.06	18388
856.194	18563
856.327	18346
856.461	18350
856.595	18296
856.729	18319
856.862	18483
856.996	18311
857.13	18346
857.263	18418
857.397	18467
857.53	18281
857.664	18407
857.797	18426
857.931	18464
858.064	18285
858.197	18395
858.331	18330
858.464	18254
858.597	18262
858.731	18273
858.864	18239
858.997	18247
859.13	18380
859.263	18334
859.396	18273
859.529	18277
859.662	18323
859.795	18266
859.928	18353
860.061	18365
860.194	18376
860.327	18296
860.46	18258
860.592	18369
860.725	18391
860.858	18361
860.99	18182
861.123	18258
861.256	18171
861.388	18247
861.521	18859
861.653	18201
861.786	18045
861.918	18201
862.05	18182
862.183	18258
862.315	18353
862.447	18509
862.58	18266
862.712	18068
862.844	17942
862.976	18148
863.108	18136
863.24	18369
863.372	17950
863.504	17996
863.636	18026
863.768	17999
863.9	18011
864.032	17920
864.164	17954
864.296	17939
864.428	18098
864.559	18041
864.691	18038
864.823	18003
864.954	17874
865.086	18057
865.217	17977
865.349	17828
865.48	18083
865.612	18015
865.743	18026
865.875	17984
866.006	17832
866.137	18007
866.269	17855
866.4	17969
866.531	17870
866.662	17843
866.793	17878
866.924	17817
867.055	17851
867.186	17832
867.317	17817
867.448	17870
867.579	17836
867.71	17779
867.841	17813
867.972	17813
868.103	17942
868.233	17904
868.364	17840
868.495	17973
868.625	18068
868.756	18171
868.886	18087
869.017	18060
869.147	18102
869.278	18197
869.408	18095
869.539	17984
869.669	18144
869.799	18106
869.929	18350
870.06	18148
870.19	18399
870.32	18445
870.45	18544
870.58	18460
870.71	18513
870.84	18658
870.97	18506
871.1	18597
871.23	18745
871.36	18707
871.489	18631
871.619	18669
871.749	18661
871.879	18745
872.008	18932
872.138	18745
872.267	18661
872.397	18707
872.526	18578
872.656	18498
872.785	18578
872.915	18707
873.044	18863
873.173	18692
873.303	18817
873.432	18711
873.561	18719
873.69	18764
873.819	18726
873.948	18871
874.077	18757
874.206	18700
874.335	18753
874.464	18901
874.593	19042
874.722	18993
874.851	18951
874.979	19107
875.108	19069
875.237	18939
875.365	18985
875.494	19012
875.623	19091
875.751	19027
875.88	19110
876.008	19118
876.136	19297
876.265	19430
876.393	19559
876.521	19381
876.65	19521
876.778	19521
876.906	19415
877.034	19350
877.162	19468
877.29	19396
877.418	19441
877.546	19358
877.674	19400
877.802	19438
877.93	19529
878.058	19438
878.185	19388
878.313	19495
878.441	19457
878.568	19331
878.696	19343
878.824	19411
878.951	19533
879.079	19651
879.206	19795
879.333	19696
879.461	19521
879.588	19552
879.715	19601
879.842	19666
879.97	19369
880.097	19274
880.224	19278
880.351	19171
880.478	19251
880.605	19179
880.732	19259
880.859	19468
880.986	19346
881.112	19403
881.239	19251
881.366	19023
881.493	18973
881.619	18772
881.746	18817
881.872	18856
881.999	18909
882.125	18802
882.252	18871
882.378	18901
882.505	18928
882.631	18795
882.757	18673
882.883	18795
883.01	18707
883.136	18639
883.262	18502
883.388	18433
883.514	18681
883.64	18642
883.766	18608
883.892	18513
884.018	18559
884.143	18658
884.269	18779
884.395	18350
884.52	18369
884.646	18315
884.772	18270
884.897	18239
885.023	18448
885.148	18418
885.274	18353
885.399	18361
885.524	18369
885.65	18429
885.775	18209
885.9	18342
886.025	18486
886.15	18353
886.275	18300
886.4	18186
886.525	18273
886.65	18216
886.775	18228
886.9	18407
887.025	18502
887.149	18338
887.274	18114
887.399	18155
887.523	18022
887.648	17973
887.773	17977
887.897	18057
888.021	18224
888.146	18041
888.27	18106
888.395	18148
888.519	18034
888.643	18117
888.767	18232
888.891	18003
889.015	17836
889.139	17863
889.263	17901
889.387	17965
889.511	18144
889.635	18098
889.759	17897
889.883	17821
890.006	17885
890.13	17908
890.254	17874
890.377	17821
890.501	17710
890.624	17592
890.748	17619
890.871	17604
890.995	17512
891.118	17486
891.241	17433
891.364	17558
891.488	17573
891.611	17547
891.734	17581
891.857	17524
891.98	17528
892.103	17486
892.226	17486
892.349	17459
892.471	17303
892.594	17379
892.717	17497
892.839	17448
892.962	17528
893.085	17649
893.207	17467
893.33	17395
893.452	17448
893.575	17558
893.697	17509
893.819	17554
893.941	17767
894.064	17600
894.186	17448
894.308	17471
894.43	17604
894.552	17634
894.674	17649
894.796	17558
894.918	17440
895.04	17490
895.161	17573
895.283	17611
895.405	17497
895.526	17452
895.648	17493
895.769	17585
895.891	17532
896.012	17554
896.134	17520
896.255	17661
896.376	17539
896.498	17558
896.619	17684
896.74	17634
896.861	17676
896.982	17958
897.103	18068
897.224	17931
897.345	17828
897.466	17767
897.587	17790
897.708	17984
897.828	17912
897.949	17676
898.07	17699
898.19	17760
898.311	17904
898.431	17737
898.552	17790
898.672	17859
898.792	17954
898.913	17863
899.033	17672
899.153	17497
899.273	17440
899.393	17570
899.513	17539
899.633	17543
899.753	17646
899.873	17547
899.993	17501
900.113	17501
900.232	17566
900.352	17543
900.472	17528
900.591	17322
900.711	17387
900.83	17341
900.95	17581
901.069	17596
901.189	17326
901.308	17113
901.427	17060
901.546	17113
901.665	17102
901.784	17048
901.904	16896
902.023	16736
902.141	16656
902.26	16622
902.379	16599
902.498	16565
902.617	16481
902.735	16611
902.854	16516
902.973	16436
903.091	16265
903.21	16158
903.328	16234
903.446	16147
903.565	16105
903.683	16032
903.801	16040
903.919	16048
904.038	16044
904.156	15869
904.274	15816
904.392	15781
904.51	15934
904.627	15816
904.745	15934
904.863	15945
904.981	15663
905.098	15534
905.216	15511
905.334	15564
905.451	15530
905.569	15363
905.686	15557
905.803	15397
905.921	15332
906.038	15443
906.155	15272
906.272	15275
906.389	15173
906.506	15142
906.623	15112
906.74	15119
906.857	14861
906.974	15017
907.091	15077
907.208	15283
907.324	15085
907.441	15036
907.557	14693
907.674	14804
907.79	14697
907.907	14777
908.023	14819
908.139	14777
908.256	14663
908.372	14720
908.488	14644
908.604	14419
908.72	14442
908.836	14431
908.952	14484
909.068	14396
909.184	14454
909.3	14408
909.415	14495
909.531	14415
909.647	14111
909.762	14119
909.878	14081
909.993	14134
910.108	14130
910.224	14096
910.339	14115
910.454	14123
910.57	14008
910.685	13963
910.8	14149
910.915	14206
911.03	13841
911.145	13849
911.259	13791
911.374	13791
911.489	13700
911.604	13693
911.718	13597
911.833	13632
911.947	13438
912.062	13373
912.176	13620
912.291	13624
912.405	13605
912.519	13753
912.633	13677
912.748	13632
912.862	13480
912.976	13396
913.09	13190
913.204	13285
913.318	13331
913.431	13449
913.545	13514
913.659	13499
913.772	13343
913.886	13297
914	13179
914.113	13285
914.226	13346
914.34	13240
914.453	13126
914.566	13350
914.68	13179
914.793	13213
914.906	13019
915.019	12882
915.132	12871
915.245	12840
915.358	12993
915.47	12840
915.583	12943
915.696	12924
915.809	13019
915.921	13091
916.034	12886
916.146	12772
916.259	12787
916.371	12913
916.483	12909
916.595	12753
916.708	12833
916.82	12730
916.932	12753
917.044	12749
917.156	12734
917.268	12597
917.38	12684
917.491	12635
917.603	12601
917.715	12722
917.826	12669
917.938	12623
918.049	12414
918.161	12616
918.272	12692
918.384	12684
918.495	12528
918.606	12429
918.717	12380
918.828	12410
918.939	12506
919.05	12422
919.161	12357
919.272	12152
919.383	12270
919.494	12479
919.604	12665
919.715	12395
919.826	12372
919.936	12410
920.047	12498
920.157	12452
920.267	12578
920.378	12441
920.488	12296
920.598	12528
920.708	12696
920.818	12494
920.928	12574
921.038	12753
921.148	12623
921.258	12384
921.368	12292
921.477	12213
921.587	12182
921.697	12015
921.806	12315
921.916	12022
922.025	11939
922.134	11790
922.244	11790
922.353	11901
922.462	11722
922.571	11566
922.68	11436
922.789	11520
922.898	11501
923.007	11360
923.116	11558
923.224	11448
923.333	11459
923.442	11414
923.55	11296
923.659	11368
923.767	11315
923.876	11318
923.984	11417
924.092	11246
924.201	11269
924.309	11201
924.417	11269
924.525	11204
924.633	11292
924.741	12304
924.849	11052
924.956	11212
925.064	10968
925.172	10923
925.279	10949
925.387	11018
925.494	11018
925.602	11246
925.709	11086
925.816	10972
925.924	11094
926.031	11147
926.138	11060
926.245	11048
926.352	10965
926.459	10999
926.566	11094
926.673	10946
926.779	10839
926.886	10843
926.993	10759
927.099	10607
927.206	10645
927.312	10554
927.419	10710
927.525	10714
927.631	10687
927.737	10500
927.843	10573
927.95	10379
928.056	10466
928.162	10546
928.267	10588
928.373	11235
928.479	10542
928.585	10451
928.69	10474
928.796	10523
928.901	10379
929.007	10234
929.112	10352
929.218	10322
929.323	10284
929.428	10215
929.533	10405
929.638	10200
929.743	10223
929.848	10272
929.953	10158
930.058	10238
930.163	10040
930.267	10067
930.372	10120
930.477	9960
930.581	10200
930.685	10071
930.79	9854
930.894	9930
930.998	9888
931.103	9983
931.207	9584
931.311	9622
931.415	9481
931.519	9294
931.623	9370
