Data from test_V78500241_3269.txt Node
Date: Fri Mar 25 16:04:26 CST 2022
User: usil
Spectrometer: V785-0024
Trigger mode: 0
Integration Time (sec): 4.000000E-1
Scans to average: 1
Nonlinearity correction enabled: false
Boxcar width: 0
Storing dark spectrum: false
XAxis mode: Wavelengths
Number of Pixels in Spectrum: 1024
>>>>>Begin Spectral Data<<<<<
801.071	27983
801.214	27774
801.356	27816
801.499	27538
801.641	27469
801.783	27401
801.926	27473
802.068	27431
802.211	27275
802.353	27481
802.496	27252
802.638	27108
802.78	27207
802.923	27081
803.065	26998
803.208	26929
803.35	27260
803.492	27283
803.635	27302
803.777	27188
803.919	27302
804.061	27759
804.204	27534
804.346	27123
804.488	27279
804.63	27344
804.773	27226
804.915	27389
805.057	27443
805.199	27336
805.341	27397
805.483	27469
805.626	27435
805.768	27439
805.91	27561
806.052	27557
806.194	27389
806.336	27633
806.478	27515
806.62	27332
806.762	27743
806.904	27732
807.046	27956
807.188	27903
807.33	27956
807.472	27991
807.614	27922
807.756	27827
807.898	27793
808.04	27660
808.182	27766
808.324	27812
808.465	27827
808.607	27949
808.749	28086
808.891	28295
809.033	28268
809.174	28337
809.316	28070
809.458	28204
809.6	28078
809.741	28322
809.883	28234
810.025	28462
810.166	28424
810.308	28421
810.45	28344
810.591	28226
810.733	28276
810.875	28063
811.016	28078
811.158	28067
811.299	28150
811.441	28329
811.582	28230
811.724	28124
811.865	28105
812.007	28067
812.148	28135
812.29	28188
812.431	28318
812.573	28379
812.714	28573
812.855	28694
812.997	28793
813.138	28820
813.279	28847
813.421	28797
813.562	28569
813.703	28421
813.845	28390
813.986	27949
814.127	27770
814.268	27876
814.41	27823
814.551	27720
814.692	27949
814.833	27663
814.974	27808
815.115	27789
815.256	27587
815.397	27739
815.539	27755
815.68	27580
815.821	27557
815.962	27652
816.103	27705
816.244	27389
816.385	27397
816.526	27332
816.666	27112
816.807	27081
816.948	27119
817.089	27245
817.23	27112
817.371	27047
817.512	27150
817.653	27093
817.793	26963
817.934	27032
818.075	27039
818.216	27161
818.356	27020
818.497	26906
818.638	26811
818.778	26929
818.919	26921
819.06	26986
819.2	26971
819.341	27028
819.481	27104
819.622	27230
819.762	27408
819.903	27435
820.043	27188
820.184	27192
820.324	27264
820.465	27161
820.605	27154
820.746	27108
820.886	26960
821.026	27104
821.167	27093
821.307	27329
821.447	27043
821.588	26948
821.728	26940
821.868	26659
822.008	26571
822.149	26655
822.289	26457
822.429	26370
822.569	26225
822.709	26229
822.849	26126
822.99	26187
823.13	25959
823.27	25986
823.41	25959
823.55	25738
823.69	25826
823.83	25978
823.97	25784
824.11	25723
824.25	25700
824.389	25616
824.529	25708
824.669	25708
824.809	25928
824.949	25845
825.089	25727
825.228	25731
825.368	25518
825.508	25586
825.648	25616
825.787	25578
825.927	25514
826.067	25567
826.206	25582
826.346	25590
826.485	25567
826.625	25491
826.765	25822
826.904	25635
827.044	25312
827.183	25392
827.323	25266
827.462	25430
827.601	25259
827.741	25270
827.88	25270
828.02	25190
828.159	25152
828.298	25308
828.437	25274
828.577	25171
828.716	25525
828.855	25038
828.994	24992
829.134	25019
829.273	25012
829.412	25015
829.551	24856
829.69	24852
829.829	25000
829.968	25065
830.107	24951
830.246	24920
830.385	24935
830.524	24768
830.663	24783
830.802	24650
830.941	24616
831.08	24559
831.219	24658
831.357	24726
831.496	24738
831.635	24505
831.774	24540
831.913	24517
832.051	24486
832.19	24330
832.329	24372
832.467	24281
832.606	24330
832.744	24281
832.883	24190
833.022	24152
833.16	24235
833.299	24296
833.437	24323
833.576	24262
833.714	24342
833.852	24205
833.991	24426
834.129	24391
834.267	24414
834.406	24292
834.544	24376
834.682	24292
834.821	24136
834.959	24475
835.097	24285
835.235	24327
835.373	24315
835.511	24224
835.65	24152
835.788	24171
835.926	24144
836.064	24003
836.202	23954
836.34	24057
836.478	24197
836.615	24190
836.753	24106
836.891	24178
837.029	24144
837.167	24015
837.305	24072
837.443	24072
837.58	24011
837.718	23992
837.856	23916
837.993	23916
838.131	23923
838.269	23832
838.406	23859
838.544	23752
838.681	23577
838.819	23585
838.956	23376
839.094	23391
839.231	23596
839.369	23627
839.506	23828
839.643	23672
839.781	23531
839.918	23402
840.055	23265
840.193	23383
840.33	23410
840.467	23402
840.604	23421
840.742	23604
840.879	23162
841.016	23307
841.153	23315
841.29	23398
841.427	23261
841.564	23448
841.701	23318
841.838	23326
841.975	23174
842.112	23246
842.249	23254
842.385	23132
842.522	23372
842.659	23132
842.796	23143
842.933	23212
843.069	23052
843.206	22995
843.343	23109
843.479	23109
843.616	23056
843.752	22908
843.889	22965
844.025	22949
844.162	22896
844.298	23014
844.435	22911
844.571	22976
844.708	23056
844.844	23132
844.98	22942
845.117	22930
845.253	22843
845.389	22668
845.525	22721
845.661	22725
845.798	22683
845.934	22752
846.07	22580
846.206	22733
846.342	22778
846.478	22557
846.614	22443
846.75	22360
846.886	22272
847.022	22405
847.158	22284
847.294	22268
847.429	22356
847.565	22413
847.701	22607
847.837	22036
847.972	21998
848.108	22158
848.244	22166
848.379	22013
848.515	21850
848.65	22002
848.786	21937
848.921	21953
849.057	22074
849.192	22090
849.328	22013
849.463	21987
849.598	21846
849.734	21956
849.869	21854
850.004	21781
850.14	21747
850.275	21842
850.41	21633
850.545	21633
850.68	21762
850.815	21759
850.95	21705
851.085	21918
851.22	21751
851.355	21663
851.49	21717
851.625	21675
851.76	21713
851.895	21580
852.03	21595
852.165	21854
852.299	21606
852.434	21671
852.569	21789
852.703	21652
852.838	21675
852.973	21926
853.107	21876
853.242	21591
853.376	21469
853.511	21496
853.645	21587
853.78	21603
853.914	21568
854.048	21534
854.183	21515
854.317	21580
854.451	21705
854.585	21625
854.72	21485
854.854	21504
854.988	21481
855.122	21363
855.256	21348
855.39	21568
855.524	21682
855.658	21564
855.792	21614
855.926	21603
856.06	21557
856.194	21549
856.327	21549
856.461	21507
856.595	21477
856.729	21496
856.862	21572
856.996	21561
857.13	21591
857.263	21694
857.397	21614
857.53	21496
857.664	21561
857.797	21564
857.931	21698
858.064	21515
858.197	21553
858.331	21504
858.464	21553
858.597	21355
858.731	21519
858.864	21622
858.997	21732
859.13	21523
859.263	21466
859.396	21652
859.529	21519
859.662	21553
859.795	21405
859.928	21576
860.061	21629
860.194	21671
860.327	21526
860.46	21637
860.592	21637
860.725	21637
860.858	21660
860.99	21492
861.123	21492
861.256	21553
861.388	21530
861.521	22143
861.653	21443
861.786	21268
861.918	21268
862.05	21408
862.183	21458
862.315	21374
862.447	21519
862.58	21435
862.712	21252
862.844	21275
862.976	21401
863.108	21279
863.24	21667
863.372	21188
863.504	21340
863.636	21268
863.768	21249
863.9	21135
864.032	21180
864.164	21260
864.296	21218
864.428	21332
864.559	21298
864.691	21317
864.823	21241
864.954	21252
865.086	21222
865.217	21093
865.349	21165
865.48	21165
865.612	21169
865.743	21226
865.875	21180
866.006	21154
866.137	21104
866.269	21173
866.4	21104
866.531	21001
866.662	21085
866.793	21009
866.924	21055
867.055	21051
867.186	21081
867.317	21085
867.448	20963
867.579	20971
867.71	20887
867.841	20960
867.972	21100
868.103	21062
868.233	21081
868.364	21039
868.495	21226
868.625	21252
868.756	21504
868.886	21287
869.017	21336
869.147	21443
869.278	21435
869.408	21329
869.539	21294
869.669	21439
869.799	21428
869.929	21488
870.06	21504
870.19	21599
870.32	21614
870.45	21606
870.58	21698
870.71	21838
870.84	21793
870.97	21698
871.1	21747
871.23	22025
871.36	21880
871.489	21690
871.619	21785
871.749	22002
871.879	21934
872.008	22044
872.138	21854
872.267	21884
872.397	21793
872.526	21720
872.656	21759
872.785	21747
872.915	22010
873.044	21964
873.173	22051
873.303	22021
873.432	22032
873.561	22150
873.69	21960
873.819	21899
873.948	22078
874.077	22036
874.206	21876
874.335	21903
874.464	22063
874.593	22154
874.722	22169
874.851	22253
874.979	22166
875.108	22265
875.237	22120
875.365	22101
875.494	22150
875.623	22211
875.751	22173
875.88	22185
876.008	22280
876.136	22363
876.265	22569
876.393	22653
876.521	22698
876.65	22611
876.778	22622
876.906	22478
877.034	22375
877.162	22493
877.29	22550
877.418	22535
877.546	22542
877.674	22546
877.802	22561
877.93	22474
878.058	22440
878.185	22405
878.313	22489
878.441	22462
878.568	22284
878.696	22561
878.824	22584
878.951	22569
879.079	22694
879.206	22850
879.333	22729
879.461	22493
879.588	22717
879.715	22694
879.842	22771
879.97	22580
880.097	22352
880.224	22276
880.351	22462
880.478	22348
880.605	22413
880.732	22493
880.859	22615
880.986	22310
881.112	22341
881.239	22204
881.366	22177
881.493	21888
881.619	21960
881.746	21918
881.872	21884
881.999	21808
882.125	21930
882.252	21892
882.378	21941
882.505	22017
882.631	21827
882.757	21572
882.883	21671
883.01	21637
883.136	21580
883.262	21492
883.388	21416
883.514	21564
883.64	21606
883.766	21431
883.892	21416
884.018	21294
884.143	21637
884.269	21637
884.395	21408
884.52	21108
884.646	21294
884.772	21195
884.897	21081
885.023	21283
885.148	21317
885.274	21393
885.399	21378
885.524	21264
885.65	21173
885.775	21370
885.9	21150
886.025	21306
886.15	21393
886.275	21138
886.4	21123
886.525	21173
886.65	21169
886.775	21226
886.9	21222
887.025	21370
887.149	21203
887.274	21161
887.399	21028
887.523	21047
887.648	21024
887.773	20849
887.897	21089
888.021	21066
888.146	21001
888.27	21066
888.395	21036
888.519	21066
888.643	21039
888.767	21047
888.891	20994
889.015	20982
889.139	20906
889.263	20731
889.387	21032
889.511	21081
889.635	20918
889.759	20781
889.883	20845
890.006	20906
890.13	20941
890.254	20712
890.377	20689
890.501	20450
890.624	20602
890.748	20678
890.871	20442
890.995	20305
891.118	20355
891.241	20374
891.364	20473
891.488	20347
891.611	20465
891.734	20370
891.857	20377
891.98	20434
892.103	20434
892.226	20351
892.349	20339
892.471	20214
892.594	20328
892.717	20267
892.839	20218
892.962	20267
893.085	20377
893.207	20195
893.33	20252
893.452	20221
893.575	20450
893.697	20248
893.819	20408
893.941	20476
894.064	20381
894.186	20195
894.308	20271
894.43	20400
894.552	20434
894.674	20457
894.796	20138
894.918	20396
895.04	20263
895.161	20400
895.283	20259
895.405	20183
895.526	20206
895.648	20313
895.769	20282
895.891	20259
896.012	20385
896.134	20355
896.255	20252
896.376	20199
896.498	20233
896.619	20313
896.74	20336
896.861	20294
896.982	20609
897.103	20708
897.224	20636
897.345	20503
897.466	20427
897.587	20492
897.708	20693
897.828	20537
897.949	20511
898.07	20355
898.19	20427
898.311	20594
898.431	20438
898.552	20514
898.672	20587
898.792	20617
898.913	20579
899.033	20351
899.153	20320
899.273	20244
899.393	20214
899.513	20294
899.633	20221
899.753	20180
899.873	20176
899.993	20252
900.113	20153
900.232	20202
900.352	20138
900.472	20077
900.591	19978
900.711	19982
900.83	19970
900.95	20134
901.069	20126
901.189	20020
901.308	19685
901.427	19700
901.546	19628
901.665	19578
901.784	19635
901.904	19518
902.023	19316
902.141	19221
902.26	19179
902.379	19194
902.498	19110
902.617	19129
902.735	19050
902.854	19122
902.973	19084
903.091	18806
903.21	18791
903.328	18795
903.446	18627
903.565	18658
903.683	18658
903.801	18475
903.919	18517
904.038	18585
904.156	18388
904.274	18437
904.392	18426
904.51	18365
904.627	18426
904.745	18429
904.863	18388
904.981	18110
905.098	17973
905.216	18034
905.334	18057
905.451	18030
905.569	18057
905.686	18053
905.803	18011
905.921	17718
906.038	17935
906.155	17859
906.272	17710
906.389	17783
906.506	17558
906.623	17657
906.74	17551
906.857	17414
906.974	17414
907.091	17627
907.208	17619
907.324	17668
907.441	17532
907.557	17345
907.674	17239
907.79	17269
907.907	17151
908.023	17296
908.139	17223
908.256	17277
908.372	17189
908.488	17094
908.604	17014
908.72	16953
908.836	16995
908.952	16968
909.068	16980
909.184	17170
909.3	17045
909.415	16991
909.531	16957
909.647	16774
909.762	16763
909.878	16683
909.993	16767
910.108	16599
910.224	16721
910.339	16702
910.454	16618
910.57	16500
910.685	16394
910.8	16721
910.915	16512
911.03	16500
911.145	16409
911.259	16253
911.374	16257
911.489	16261
911.604	16249
911.718	16040
911.833	15850
911.947	15854
912.062	15972
912.176	15945
912.291	16131
912.405	16002
912.519	16181
912.633	16147
912.748	16059
912.862	15968
912.976	15876
913.09	15739
913.204	15823
913.318	15907
913.431	16017
913.545	15911
913.659	15911
913.772	15770
913.886	15606
914	15576
914.113	15705
914.226	15739
914.34	15701
914.453	15591
914.566	15682
914.68	15526
914.793	15458
914.906	15287
915.019	15340
915.132	15226
915.245	15165
915.358	15329
915.47	15348
915.583	15287
915.696	15294
915.809	15272
915.921	15416
916.034	15135
916.146	15268
916.259	15142
916.371	15237
916.483	15161
916.595	15081
916.708	15020
916.82	15062
916.932	15001
917.044	14921
917.156	14998
917.268	14876
917.38	14933
917.491	14861
917.603	14902
917.715	14960
917.826	14998
917.938	14876
918.049	14636
918.161	14845
918.272	15001
918.384	14994
918.495	14769
918.606	14632
918.717	14621
918.828	14735
918.939	14610
919.05	14636
919.161	14651
919.272	14431
919.383	14511
919.494	14636
919.604	14857
919.715	14594
919.826	14610
919.936	14651
920.047	14629
920.157	14663
920.267	14796
920.378	14659
920.488	14522
920.598	14701
920.708	14895
920.818	14788
920.928	14743
921.038	14910
921.148	14868
921.258	14598
921.368	14507
921.477	14362
921.587	14320
921.697	14161
921.806	14370
921.916	14225
922.025	14012
922.134	14031
922.244	13883
922.353	14084
922.462	13883
922.571	13696
922.68	13632
922.789	13563
922.898	13636
923.007	13578
923.116	13613
923.224	13609
923.333	13575
923.442	13556
923.55	13449
923.659	13601
923.767	13521
923.876	13441
923.984	13449
924.092	13339
924.201	13396
924.309	13335
924.417	13464
924.525	13331
924.633	13327
924.741	14065
924.849	13015
924.956	13343
925.064	12951
925.172	13019
925.279	13034
925.387	12973
925.494	13076
925.602	13198
925.709	13065
925.816	12905
925.924	13061
926.031	13107
926.138	12989
926.245	12878
926.352	12886
926.459	13061
926.566	13053
926.673	12890
926.779	12730
926.886	12817
926.993	12639
927.099	12563
927.206	12502
927.312	12582
927.419	12650
927.525	12509
927.631	12578
927.737	12563
927.843	12536
927.95	12319
928.056	12365
928.162	12323
928.267	12471
928.373	13034
928.479	12536
928.585	12251
928.69	12395
928.796	12441
928.901	12308
929.007	12163
929.112	12338
929.218	12228
929.323	12136
929.428	12106
929.533	12220
929.638	12057
929.743	12068
929.848	12201
929.953	12076
930.058	11999
930.163	11809
930.267	11790
930.372	11980
930.477	11779
930.581	11961
930.685	11885
930.79	11657
930.894	11661
930.998	11623
931.103	11893
931.207	11535
931.311	11379
931.415	11322
931.519	11178
931.623	11048
