Data from test_V78500241_1613.txt Node
Date: Fri Mar 25 15:52:58 CST 2022
User: usil
Spectrometer: V785-0024
Trigger mode: 0
Integration Time (sec): 4.000000E-1
Scans to average: 1
Nonlinearity correction enabled: false
Boxcar width: 0
Storing dark spectrum: false
XAxis mode: Wavelengths
Number of Pixels in Spectrum: 1024
>>>>>Begin Spectral Data<<<<<
801.071	28265
801.214	28234
801.356	27968
801.499	27907
801.641	27846
801.783	27800
801.926	27930
802.068	27850
802.211	27762
802.353	27793
802.496	27507
802.638	27523
802.78	27431
802.923	27534
803.065	27287
803.208	27439
803.35	27542
803.492	27561
803.635	27603
803.777	27519
803.919	27751
804.061	28116
804.204	27930
804.346	27759
804.488	27682
804.63	27831
804.773	27629
804.915	27812
805.057	27793
805.199	27865
805.341	27835
805.483	27945
805.626	27991
805.768	27770
805.91	27979
806.052	27869
806.194	27857
806.336	28093
806.478	28006
806.62	27892
806.762	28032
806.904	28086
807.046	28394
807.188	28386
807.33	28287
807.472	28436
807.614	28352
807.756	28284
807.898	28272
808.04	28223
808.182	28230
808.324	28143
808.465	28230
808.607	28470
808.749	28531
808.891	28649
809.033	28809
809.174	28538
809.316	28603
809.458	28550
809.6	28584
809.741	28649
809.883	28729
810.025	28824
810.166	28858
810.308	28816
810.45	28843
810.591	28687
810.733	28702
810.875	28542
811.016	28519
811.158	28310
811.299	28660
811.441	28717
811.582	28580
811.724	28561
811.865	28519
812.007	28481
812.148	28588
812.29	28675
812.431	28805
812.573	28938
812.714	28965
812.855	29166
812.997	29102
813.138	29208
813.279	29193
813.421	29193
813.562	28965
813.703	28896
813.845	28759
813.986	28607
814.127	28341
814.268	28215
814.41	28352
814.551	28204
814.692	28344
814.833	28219
814.974	28196
815.115	28314
815.256	28036
815.397	27998
815.539	28169
815.68	28139
815.821	27994
815.962	28154
816.103	27911
816.244	27914
816.385	27789
816.526	27983
816.666	27618
816.807	27530
816.948	27690
817.089	27720
817.23	27507
817.371	27629
817.512	27545
817.653	27519
817.793	27511
817.934	27473
818.075	27648
818.216	27656
818.356	27488
818.497	27431
818.638	27321
818.778	27359
818.919	27226
819.06	27348
819.2	27447
819.341	27481
819.481	27519
819.622	27717
819.762	27899
819.903	27701
820.043	27743
820.184	27583
820.324	27686
820.465	27648
820.605	27690
820.746	27652
820.886	27587
821.026	27454
821.167	27553
821.307	27755
821.447	27648
821.588	27454
821.728	27401
821.868	27077
822.008	26940
822.149	27093
822.289	26944
822.429	26925
822.569	26758
822.709	26765
822.849	26609
822.99	26492
823.13	26549
823.27	26530
823.41	26362
823.55	26157
823.69	26366
823.83	26294
823.97	26317
824.11	26210
824.25	26176
824.389	26111
824.529	26248
824.669	26301
824.809	26237
824.949	26122
825.089	26286
825.228	26202
825.368	26058
825.508	26069
825.648	26046
825.787	26214
825.927	26259
826.067	26031
826.206	26115
826.346	26145
826.485	26081
826.625	26149
826.765	26164
826.904	26084
827.044	25879
827.183	25826
827.323	25700
827.462	25807
827.601	25811
827.741	25670
827.88	25807
828.02	25601
828.159	25723
828.298	25814
828.437	25791
828.577	25871
828.716	25772
828.855	25662
828.994	25521
829.134	25388
829.273	25476
829.412	25487
829.551	25388
829.69	25400
829.829	25468
829.968	25563
830.107	25571
830.246	25449
830.385	25392
830.524	25369
830.663	25259
830.802	25194
830.941	25133
831.08	25099
831.219	25198
831.357	25091
831.496	25179
831.635	24981
831.774	24958
831.913	24977
832.051	24821
832.19	24951
832.329	24954
832.467	24779
832.606	24608
832.744	24776
832.883	24738
833.022	24806
833.16	24757
833.299	24783
833.437	24719
833.576	25015
833.714	24764
833.852	24817
833.991	24798
834.129	24783
834.267	24772
834.406	24749
834.544	24802
834.682	24848
834.821	24837
834.959	25008
835.097	24722
835.235	24707
835.373	24776
835.511	24806
835.65	24631
835.788	24665
835.926	24471
836.064	24540
836.202	24490
836.34	24726
836.478	24620
836.615	24597
836.753	24661
836.891	24627
837.029	24722
837.167	24578
837.305	24563
837.443	24418
837.58	24426
837.718	24589
837.856	24407
837.993	24403
838.131	24395
838.269	24205
838.406	24452
838.544	24342
838.681	24064
838.819	24015
838.956	23973
839.094	23885
839.231	23973
839.369	24083
839.506	24262
839.643	24209
839.781	23950
839.918	23783
840.055	23923
840.193	23824
840.33	23760
840.467	23893
840.604	23775
840.742	24197
840.879	23802
841.016	23885
841.153	23668
841.29	23923
841.427	23824
841.564	23843
841.701	23847
841.838	23798
841.975	23741
842.112	23748
842.249	23649
842.385	23440
842.522	23756
842.659	23596
842.796	23509
842.933	23600
843.069	23528
843.206	23512
843.343	23653
843.479	23661
843.616	23547
843.752	23433
843.889	23334
844.025	23440
844.162	23273
844.298	23395
844.435	23345
844.571	23360
844.708	23436
844.844	23436
844.98	23410
845.117	23349
845.253	23273
845.389	23189
845.525	23269
845.661	23235
845.798	23064
845.934	23064
846.07	23022
846.206	23121
846.342	23121
846.478	23060
846.614	22919
846.75	22717
846.886	22862
847.022	22946
847.158	22797
847.294	22873
847.429	22927
847.565	22767
847.701	23041
847.837	22459
847.972	22447
848.108	22683
848.244	22580
848.379	22382
848.515	22375
848.65	22470
848.786	22478
848.921	22455
849.057	22580
849.192	22466
849.328	22516
849.463	22497
849.598	22306
849.734	22226
849.869	22257
850.004	22177
850.14	22124
850.275	22150
850.41	22067
850.545	22067
850.68	22230
850.815	22291
850.95	22169
851.085	22348
851.22	22356
851.355	22185
851.49	22173
851.625	22185
851.76	22192
851.895	22074
852.03	22135
852.165	22173
852.299	22261
852.434	22234
852.569	22162
852.703	22150
852.838	22287
852.973	22204
853.107	22226
853.242	22082
853.376	21934
853.511	21934
853.645	21945
853.78	22128
853.914	22063
854.048	21941
854.183	22021
854.317	22036
854.451	22093
854.585	22105
854.72	21865
854.854	22074
854.988	21892
855.122	22029
855.256	21884
855.39	22044
855.524	22101
855.658	21918
855.792	22029
855.926	22074
856.06	22112
856.194	22124
856.327	21895
856.461	21937
856.595	21850
856.729	22074
856.862	22078
856.996	22051
857.13	22105
857.263	22067
857.397	22120
857.53	22109
857.664	22101
857.797	22074
857.931	22238
858.064	22002
858.197	22025
858.331	21983
858.464	21873
858.597	21869
858.731	22048
858.864	21941
858.997	22067
859.13	22032
859.263	21987
859.396	22074
859.529	21930
859.662	21968
859.795	21873
859.928	22078
860.061	22116
860.194	22128
860.327	22067
860.46	22021
860.592	22147
860.725	22124
860.858	22097
860.99	21930
861.123	21911
861.256	21869
861.388	22078
861.521	22774
861.653	21838
861.786	21884
861.918	21934
862.05	21838
862.183	21915
862.315	21918
862.447	21926
862.58	21941
862.712	21812
862.844	21682
862.976	21739
863.108	21835
863.24	22192
863.372	21652
863.504	21755
863.636	21724
863.768	21774
863.9	21595
864.032	21709
864.164	21629
864.296	21781
864.428	21732
864.559	21770
864.691	21812
864.823	21686
864.954	21694
865.086	21660
865.217	21572
865.349	21511
865.48	21534
865.612	21656
865.743	21709
865.875	21534
866.006	21545
866.137	21530
866.269	21572
866.4	21648
866.531	21477
866.662	21363
866.793	21637
866.924	21561
867.055	21564
867.186	21671
867.317	21477
867.448	21416
867.579	21431
867.71	21367
867.841	21477
867.972	21523
868.103	21447
868.233	21599
868.364	21408
868.495	21625
868.625	21698
868.756	21831
868.886	21732
869.017	21656
869.147	21778
869.278	21873
869.408	21770
869.539	21800
869.669	21926
869.799	21751
869.929	21846
870.06	21827
870.19	22078
870.32	22063
870.45	21979
870.58	22234
870.71	22246
870.84	22310
870.97	22223
871.1	22276
871.23	22325
871.36	22409
871.489	22295
871.619	22443
871.749	22325
871.879	22409
872.008	22428
872.138	22421
872.267	22211
872.397	22287
872.526	22147
872.656	22185
872.785	22238
872.915	22356
873.044	22508
873.173	22398
873.303	22398
873.432	22478
873.561	22630
873.69	22386
873.819	22303
873.948	22356
874.077	22481
874.206	22341
874.335	22428
874.464	22405
874.593	22717
874.722	22630
874.851	22675
874.979	22683
875.108	22599
875.237	22516
875.365	22584
875.494	22550
875.623	22675
875.751	22649
875.88	22626
876.008	22801
876.136	22812
876.265	23064
876.393	23083
876.521	23079
876.65	23113
876.778	22968
876.906	22980
877.034	22972
877.162	22961
877.29	22889
877.418	22972
877.546	22995
877.674	22923
877.802	22927
877.93	22980
878.058	22793
878.185	22801
878.313	22824
878.441	22915
878.568	22869
878.696	22892
878.824	23029
878.951	23037
879.079	23136
879.206	23155
879.333	22968
879.461	23071
879.588	23109
879.715	23159
879.842	23166
879.97	22965
880.097	22782
880.224	22816
880.351	22831
880.478	22790
880.605	22774
880.732	22812
880.859	22946
880.986	22850
881.112	22782
881.239	22603
881.366	22413
881.493	22440
881.619	22344
881.746	22284
881.872	22363
881.999	22329
882.125	22226
882.252	22344
882.378	22306
882.505	22322
882.631	22143
882.757	22051
882.883	22097
883.01	21949
883.136	21930
883.262	21827
883.388	21934
883.514	22006
883.64	22040
883.766	22055
883.892	21690
884.018	21797
884.143	22040
884.269	22006
884.395	21679
884.52	21648
884.646	21606
884.772	21606
884.897	21504
885.023	21717
885.148	21823
885.274	21842
885.399	21793
885.524	21724
885.65	21698
885.775	21728
885.9	21641
886.025	21652
886.15	21629
886.275	21538
886.4	21481
886.525	21644
886.65	21526
886.775	21523
886.9	21774
887.025	21698
887.149	21648
887.274	21553
887.399	21408
887.523	21424
887.648	21325
887.773	21344
887.897	21523
888.021	21538
888.146	21325
888.27	21519
888.395	21511
888.519	21466
888.643	21431
888.767	21389
888.891	21321
889.015	21199
889.139	21310
889.263	21169
889.387	21374
889.511	21481
889.635	21412
889.759	21260
889.883	21135
890.006	21127
890.13	21287
890.254	21150
890.377	21207
890.501	20925
890.624	20971
890.748	20887
890.871	20796
890.995	20735
891.118	20796
891.241	20689
891.364	20838
891.488	20842
891.611	20811
891.734	20849
891.857	20819
891.98	20750
892.103	20838
892.226	20811
892.349	20689
892.471	20412
892.594	20667
892.717	20697
892.839	20648
892.962	20739
893.085	20644
893.207	20667
893.33	20461
893.452	20552
893.575	20686
893.697	20716
893.819	20758
893.941	20910
894.064	20746
894.186	20667
894.308	20522
894.43	20697
894.552	20785
894.674	20701
894.796	20579
894.918	20724
895.04	20625
895.161	20712
895.283	20777
895.405	20629
895.526	20739
895.648	20663
895.769	20587
895.891	20689
896.012	20792
896.134	20769
896.255	20735
896.376	20499
896.498	20530
896.619	20720
896.74	20655
896.861	20678
896.982	20986
897.103	21188
897.224	20952
897.345	20845
897.466	20838
897.587	20781
897.708	20925
897.828	20880
897.949	20800
898.07	20629
898.19	20811
898.311	20918
898.431	20777
898.552	20819
898.672	20979
898.792	20982
898.913	20963
899.033	20796
899.153	20632
899.273	20594
899.393	20606
899.513	20758
899.633	20602
899.753	20617
899.873	20545
899.993	20503
900.113	20476
900.232	20594
900.352	20522
900.472	20362
900.591	20507
900.711	20549
900.83	20324
900.95	20366
901.069	20514
901.189	20301
901.308	20115
901.427	19947
901.546	19917
901.665	19883
901.784	19963
901.904	19757
902.023	19734
902.141	19476
902.26	19499
902.379	19502
902.498	19441
902.617	19415
902.735	19472
902.854	19499
902.973	19354
903.091	19160
903.21	19152
903.328	19168
903.446	19008
903.565	18951
903.683	18977
903.801	18844
903.919	18863
904.038	18863
904.156	18711
904.274	18719
904.392	18700
904.51	18665
904.627	18528
904.745	18639
904.863	18722
904.981	18429
905.098	18433
905.216	18334
905.334	18380
905.451	18410
905.569	18395
905.686	18308
905.803	18247
905.921	18216
906.038	18197
906.155	18182
906.272	18083
906.389	18079
906.506	17916
906.623	17851
906.74	17885
906.857	17729
906.974	17802
907.091	17897
907.208	17882
907.324	17878
907.441	17786
907.557	17619
907.674	17585
907.79	17493
907.907	17562
908.023	17615
908.139	17592
908.256	17562
908.372	17532
908.488	17421
908.604	17299
908.72	17269
908.836	17330
908.952	17330
909.068	17356
909.184	17433
909.3	17402
909.415	17368
909.531	17288
909.647	17033
909.762	16972
909.878	16984
909.993	17010
910.108	17117
910.224	16987
910.339	17094
910.454	16885
910.57	16915
910.685	16694
910.8	17094
910.915	16904
911.03	16778
911.145	16588
911.259	16531
911.374	16630
911.489	16584
911.604	16497
911.718	16348
911.833	16417
911.947	16242
912.062	16192
912.176	16344
912.291	16402
912.405	16386
912.519	16588
912.633	16538
912.748	16421
912.862	16386
912.976	16147
913.09	16158
913.204	16112
913.318	16215
913.431	16166
913.545	16230
913.659	16306
913.772	16078
913.886	15953
914	15941
914.113	15968
914.226	16162
914.34	15911
914.453	15857
914.566	16021
914.68	15854
914.793	15770
914.906	15682
915.019	15488
915.132	15500
915.245	15526
915.358	15519
915.47	15587
915.583	15587
915.696	15496
915.809	15641
915.921	15682
916.034	15355
916.146	15553
916.259	15462
916.371	15477
916.483	15374
916.595	15443
916.708	15351
916.82	15435
916.932	15348
917.044	15317
917.156	15348
917.268	15207
917.38	15195
917.491	15256
917.603	15264
917.715	15230
917.826	15256
917.938	15058
918.049	14956
918.161	15077
918.272	15218
918.384	15336
918.495	15142
918.606	14963
918.717	15009
918.828	15036
918.939	15051
919.05	14861
919.161	14872
919.272	14682
919.383	14754
919.494	14933
919.604	15165
919.715	14842
919.826	14769
919.936	14834
920.047	14960
920.157	14914
920.267	15028
920.378	14963
920.488	14823
920.598	15028
920.708	15138
920.818	14986
920.928	14963
921.038	15249
921.148	15207
921.258	14807
921.368	14724
921.477	14575
921.587	14575
921.697	14473
921.806	14640
921.916	14427
922.025	14282
922.134	14252
922.244	14282
922.353	14324
922.462	14199
922.571	14103
922.68	14008
922.789	13921
922.898	13947
923.007	13936
923.116	13959
923.224	13947
923.333	13833
923.442	13746
923.55	13731
923.659	13636
923.767	13803
923.876	13575
923.984	13731
924.092	13499
924.201	13616
924.309	13594
924.417	13533
924.525	13518
924.633	13559
924.741	14450
924.849	13316
924.956	13499
925.064	13354
925.172	13213
925.279	13282
925.387	13301
925.494	13346
925.602	13392
925.709	13251
925.816	13198
925.924	13175
926.031	13438
926.138	13240
926.245	13251
926.352	13061
926.459	13213
926.566	13369
926.673	13137
926.779	13110
926.886	12996
926.993	12954
927.099	12719
927.206	12875
927.312	12833
927.419	12795
927.525	12814
927.631	12791
927.737	12692
927.843	12757
927.95	12536
928.056	12654
928.162	12673
928.267	12601
928.373	13312
928.479	12711
928.585	12521
928.69	12563
928.796	12639
928.901	12456
929.007	12384
929.112	12502
929.218	12418
929.323	12475
929.428	12422
929.533	12540
929.638	12235
929.743	12304
929.848	12437
929.953	12270
930.058	12251
930.163	11992
930.267	12007
930.372	12220
930.477	11965
930.581	12304
930.685	12117
930.79	11958
930.894	11980
930.998	11870
931.103	12121
931.207	11573
931.311	11718
931.415	11516
931.519	11391
931.623	11349
