Data from test_V78500241_1179.txt Node
Date: Fri Mar 25 15:49:58 CST 2022
User: usil
Spectrometer: V785-0024
Trigger mode: 0
Integration Time (sec): 4.000000E-1
Scans to average: 1
Nonlinearity correction enabled: false
Boxcar width: 0
Storing dark spectrum: false
XAxis mode: Wavelengths
Number of Pixels in Spectrum: 1024
>>>>>Begin Spectral Data<<<<<
801.071	28634
801.214	28622
801.356	28325
801.499	28173
801.641	28032
801.783	28116
801.926	28181
802.068	28082
802.211	28055
802.353	27953
802.496	27797
802.638	27884
802.78	27614
802.923	27637
803.065	27679
803.208	27610
803.35	27911
803.492	27903
803.635	28010
803.777	27846
803.919	28025
804.061	28230
804.204	28051
804.346	28025
804.488	28017
804.63	28029
804.773	27945
804.915	28120
805.057	28169
805.199	28044
805.341	28181
805.483	28226
805.626	28215
805.768	28055
805.91	28048
806.052	28287
806.194	28173
806.336	28455
806.478	28253
806.62	28223
806.762	28352
806.904	28508
807.046	28767
807.188	28455
807.33	28820
807.472	28634
807.614	28462
807.756	28622
807.898	28660
808.04	28432
808.182	28546
808.324	28519
808.465	28596
808.607	28790
808.749	28843
808.891	28968
809.033	29140
809.174	29006
809.316	28911
809.458	28911
809.6	28976
809.741	29071
809.883	29044
810.025	29159
810.166	29239
810.308	29360
810.45	29216
810.591	29090
810.733	28911
810.875	28877
811.016	28839
811.158	28782
811.299	29010
811.441	29094
811.582	29105
811.724	28900
811.865	28835
812.007	28987
812.148	28809
812.29	28999
812.431	29159
812.573	29174
812.714	29318
812.855	29417
812.997	29402
813.138	29710
813.279	29649
813.421	29516
813.562	29436
813.703	29395
813.845	29178
813.986	28869
814.127	28786
814.268	28584
814.41	28710
814.551	28535
814.692	28691
814.833	28542
814.974	28577
815.115	28713
815.256	28504
815.397	28459
815.539	28588
815.68	28577
815.821	28401
815.962	28428
816.103	28306
816.244	28272
816.385	28086
816.526	28158
816.666	27983
816.807	27983
816.948	28055
817.089	27922
817.23	27907
817.371	27998
817.512	27842
817.653	27991
817.793	27880
817.934	27975
818.075	27892
818.216	27956
818.356	27854
818.497	27808
818.638	27591
818.778	27698
818.919	27789
819.06	27785
819.2	27770
819.341	28017
819.481	27918
819.622	28082
819.762	28325
819.903	28322
820.043	28086
820.184	28063
820.324	27888
820.465	28105
820.605	28013
820.746	28017
820.886	27914
821.026	28135
821.167	28086
821.307	27949
821.447	28051
821.588	27945
821.728	27762
821.868	27485
822.008	27500
822.149	27488
822.289	27462
822.429	27100
822.569	27184
822.709	27173
822.849	26842
822.99	26963
823.13	27013
823.27	26842
823.41	26807
823.55	26750
823.69	26807
823.83	26853
823.97	26640
824.11	26621
824.25	26564
824.389	26583
824.529	26590
824.669	26659
824.809	26796
824.949	26613
825.089	26800
825.228	26686
825.368	26514
825.508	26431
825.648	26545
825.787	26522
825.927	26526
826.067	26404
826.206	26461
826.346	26431
826.485	26499
826.625	26408
826.765	26473
826.904	26526
827.044	26282
827.183	26233
827.323	26043
827.462	26237
827.601	26214
827.741	26111
827.88	26172
828.02	25993
828.159	26168
828.298	26172
828.437	26237
828.577	26107
828.716	26256
828.855	26164
828.994	25947
829.134	25845
829.273	25917
829.412	25894
829.551	25913
829.69	25898
829.829	25947
829.968	25879
830.107	25917
830.246	25845
830.385	25864
830.524	25723
830.663	25765
830.802	25495
830.941	25495
831.08	25457
831.219	25666
831.357	25487
831.496	25601
831.635	25430
831.774	25377
831.913	25407
832.051	25324
832.19	25304
832.329	25240
832.467	25377
832.606	25065
832.744	24992
832.883	25137
833.022	25057
833.16	25126
833.299	25228
833.437	25202
833.576	25304
833.714	25263
833.852	25152
833.991	25285
834.129	25278
834.267	25289
834.406	25221
834.544	25304
834.682	25236
834.821	25198
834.959	25373
835.097	25304
835.235	25339
835.373	25255
835.511	25247
835.65	25057
835.788	25061
835.926	25019
836.064	24905
836.202	24966
836.34	25152
836.478	25103
836.615	25084
836.753	25061
836.891	25187
837.029	25145
837.167	24810
837.305	25023
837.443	24973
837.58	24856
837.718	24939
837.856	24852
837.993	24806
838.131	24909
838.269	24726
838.406	24852
838.544	24650
838.681	24475
838.819	24483
838.956	24327
839.094	24338
839.231	24437
839.369	24566
839.506	24612
839.643	24593
839.781	24357
839.918	24163
840.055	24338
840.193	24258
840.33	24224
840.467	24095
840.604	24232
840.742	24525
840.879	24022
841.016	24205
841.153	24072
841.29	24330
841.427	24266
841.564	24213
841.701	24163
841.838	24171
841.975	24220
842.112	24121
842.249	24072
842.385	24018
842.522	24258
842.659	24011
842.796	23866
842.933	24038
843.069	23954
843.206	23920
843.343	24057
843.479	23935
843.616	23961
843.752	23821
843.889	23748
844.025	23874
844.162	23775
844.298	23767
844.435	23733
844.571	23824
844.708	23828
844.844	23809
844.98	23866
845.117	23882
845.253	23767
845.389	23691
845.525	23687
845.661	23566
845.798	23566
845.934	23543
846.07	23383
846.206	23501
846.342	23661
846.478	23417
846.614	23277
846.75	23265
846.886	23208
847.022	23315
847.158	23261
847.294	23235
847.429	23216
847.565	23296
847.701	23448
847.837	22972
847.972	22892
848.108	23025
848.244	23014
848.379	22805
848.515	22805
848.65	22717
848.786	22702
848.921	22801
849.057	22915
849.192	22942
849.328	22908
849.463	22748
849.598	22748
849.734	22755
849.869	22736
850.004	22573
850.14	22538
850.275	22565
850.41	22402
850.545	22531
850.68	22538
850.815	22554
850.95	22478
851.085	22729
851.22	22687
851.355	22527
851.49	22542
851.625	22611
851.76	22561
851.895	22569
852.03	22337
852.165	22504
852.299	22721
852.434	22573
852.569	22672
852.703	22630
852.838	22546
852.973	22672
853.107	22729
853.242	22508
853.376	22348
853.511	22253
853.645	22409
853.78	22557
853.914	22249
854.048	22459
854.183	22276
854.317	22455
854.451	22675
854.585	22402
854.72	22386
854.854	22546
854.988	22306
855.122	22493
855.256	22280
855.39	22318
855.524	22478
855.658	22459
855.792	22474
855.926	22394
856.06	22371
856.194	22516
856.327	22451
856.461	22344
856.595	22424
856.729	22363
856.862	22459
856.996	22447
857.13	22542
857.263	22413
857.397	22523
857.53	22554
857.664	22535
857.797	22485
857.931	22550
858.064	22455
858.197	22447
858.331	22303
858.464	22344
858.597	22382
858.731	22348
858.864	22310
858.997	22382
859.13	22223
859.263	22367
859.396	22489
859.529	22352
859.662	22360
859.795	22284
859.928	22367
860.061	22565
860.194	22630
860.327	22489
860.46	22436
860.592	22546
860.725	22504
860.858	22516
860.99	22478
861.123	22265
861.256	22455
861.388	22344
861.521	23124
861.653	22207
861.786	22154
861.918	22188
862.05	22207
862.183	22261
862.315	22379
862.447	22360
862.58	22303
862.712	22097
862.844	22158
862.976	22112
863.108	22257
863.24	22561
863.372	22074
863.504	22082
863.636	22078
863.768	22013
863.9	21994
864.032	21911
864.164	22112
864.296	22261
864.428	22105
864.559	22109
864.691	22188
864.823	22162
864.954	22135
865.086	22078
865.217	21991
865.349	21968
865.48	21884
865.612	21987
865.743	22063
865.875	21972
866.006	21915
866.137	21895
866.269	21968
866.4	21778
866.531	22010
866.662	21850
866.793	21857
866.924	21945
867.055	21968
867.186	21968
867.317	21865
867.448	21861
867.579	21755
867.71	21857
867.841	21762
867.972	21968
868.103	21903
868.233	21895
868.364	21953
868.495	21926
868.625	22169
868.756	22219
868.886	22029
869.017	22086
869.147	22329
869.278	22238
869.408	22154
869.539	22093
869.669	22192
869.799	22090
869.929	22223
870.06	22295
870.19	22474
870.32	22508
870.45	22413
870.58	22580
870.71	22755
870.84	22622
870.97	22344
871.1	22573
871.23	22736
871.36	22672
871.489	22569
871.619	22740
871.749	22713
871.879	22679
872.008	22858
872.138	22618
872.267	22850
872.397	22535
872.526	22554
872.656	22603
872.785	22538
872.915	22729
873.044	22702
873.173	22797
873.303	22915
873.432	22782
873.561	22908
873.69	22698
873.819	22698
873.948	22858
874.077	22782
874.206	22599
874.335	22694
874.464	22847
874.593	23041
874.722	23052
874.851	23018
874.979	23075
875.108	23014
875.237	22984
875.365	22862
875.494	23025
875.623	23067
875.751	22839
875.88	23037
876.008	23124
876.136	23216
876.265	23398
876.393	23619
876.521	23448
876.65	23459
876.778	23353
876.906	23204
877.034	23334
877.162	23387
877.29	23299
877.418	23296
877.546	23277
877.674	23242
877.802	23189
877.93	23246
878.058	23227
878.185	23223
878.313	23341
878.441	23353
878.568	23090
878.696	23102
878.824	23337
878.951	23440
879.079	23360
879.206	23543
879.333	23417
879.461	23250
879.588	23353
879.715	23440
879.842	23589
879.97	23433
880.097	23140
880.224	23155
880.351	23121
880.478	23132
880.605	23189
880.732	23231
880.859	23353
880.986	23056
881.112	23109
881.239	22965
881.366	22877
881.493	22778
881.619	22953
881.746	22736
881.872	22835
881.999	22653
882.125	22584
882.252	22698
882.378	22481
882.505	22748
882.631	22508
882.757	22348
882.883	22462
883.01	22455
883.136	22287
883.262	22215
883.388	22238
883.514	22303
883.64	22356
883.766	22234
883.892	22166
884.018	22177
884.143	22257
884.269	22390
884.395	21960
884.52	21911
884.646	22116
884.772	21915
884.897	21926
885.023	21987
885.148	22025
885.274	22112
885.399	22204
885.524	21968
885.65	22059
885.775	21979
885.9	21842
886.025	22139
886.15	22090
886.275	22090
886.4	21831
886.525	21926
886.65	21964
886.775	21926
886.9	22101
887.025	22188
887.149	21926
887.274	21751
887.399	21854
887.523	21599
887.648	21739
887.773	21599
887.897	21861
888.021	21789
888.146	21762
888.27	21880
888.395	21888
888.519	21739
888.643	21720
888.767	21770
888.891	21686
889.015	21545
889.139	21648
889.263	21466
889.387	21614
889.511	21622
889.635	21694
889.759	21359
889.883	21549
890.006	21583
890.13	21572
890.254	21412
890.377	21511
890.501	21473
890.624	21245
890.748	21378
890.871	21173
890.995	21161
891.118	20899
891.241	21214
891.364	21077
891.488	21062
891.611	21131
891.734	21077
891.857	21150
891.98	21116
892.103	21123
892.226	21138
892.349	21039
892.471	20967
892.594	20925
892.717	21017
892.839	21047
892.962	21039
893.085	21241
893.207	20910
893.33	20823
893.452	20944
893.575	21051
893.697	20857
893.819	21108
893.941	21135
894.064	21009
894.186	20956
894.308	20887
894.43	20971
894.552	21184
894.674	21017
894.796	20887
894.918	21017
895.04	20906
895.161	20967
895.283	21043
895.405	20845
895.526	21051
895.648	20963
895.769	21028
895.891	20883
896.012	20986
896.134	21032
896.255	20929
896.376	20815
896.498	20952
896.619	21032
896.74	20944
896.861	20990
896.982	21275
897.103	21317
897.224	21161
897.345	21150
897.466	21077
897.587	21222
897.708	21233
897.828	21108
897.949	21074
898.07	21066
898.19	21093
898.311	21211
898.431	21180
898.552	21032
898.672	21180
898.792	21245
898.913	21165
899.033	21096
899.153	21036
899.273	20906
899.393	21009
899.513	20891
899.633	20963
899.753	20971
899.873	20743
899.993	20849
900.113	20765
900.232	20826
900.352	20800
900.472	20765
900.591	20689
900.711	20716
900.83	20609
900.95	20682
901.069	20750
901.189	20617
901.308	20218
901.427	20164
901.546	20240
901.665	20278
901.784	20237
901.904	20031
902.023	19902
902.141	19772
902.26	19693
902.379	19830
902.498	19776
902.617	19750
902.735	19860
902.854	19746
902.973	19643
903.091	19483
903.21	19335
903.328	19373
903.446	19259
903.565	19228
903.683	19198
903.801	19076
903.919	19118
904.038	19160
904.156	18951
904.274	19038
904.392	18886
904.51	18977
904.627	18943
904.745	19076
904.863	18924
904.981	18688
905.098	18582
905.216	18654
905.334	18589
905.451	18715
905.569	18677
905.686	18726
905.803	18681
905.921	18369
906.038	18525
906.155	18433
906.272	18327
906.389	18384
906.506	18117
906.623	18182
906.74	18178
906.857	18003
906.974	18098
907.091	18311
907.208	18346
907.324	18213
907.441	18098
907.557	17935
907.674	17942
907.79	17824
907.907	17916
908.023	17794
908.139	17824
908.256	17878
908.372	17695
908.488	17684
908.604	17589
908.72	17608
908.836	17585
908.952	17547
909.068	17653
909.184	17619
909.3	17577
909.415	17562
909.531	17501
909.647	17368
909.762	17334
909.878	17341
909.993	17315
910.108	17223
910.224	17292
910.339	17280
910.454	17075
910.57	17079
910.685	16953
910.8	17231
910.915	17242
911.03	16984
911.145	16889
911.259	16927
911.374	16843
911.489	16782
911.604	16702
911.718	16618
911.833	16664
911.947	16527
912.062	16451
912.176	16645
912.291	16626
912.405	16592
912.519	16793
912.633	16645
912.748	16607
912.862	16637
912.976	16497
913.09	16325
913.204	16382
913.318	16382
913.431	16440
913.545	16424
913.659	16531
913.772	16348
913.886	16337
914	16124
914.113	16314
914.226	16284
914.34	16177
914.453	16120
914.566	16192
914.68	16055
914.793	16040
914.906	15835
915.019	15857
915.132	15618
915.245	15823
915.358	15876
915.47	15816
915.583	15785
915.696	15724
915.809	15960
915.921	15888
916.034	15705
916.146	15709
916.259	15584
916.371	15694
916.483	15789
916.595	15618
916.708	15694
916.82	15549
916.932	15591
917.044	15587
917.156	15526
917.268	15378
917.38	15447
917.491	15439
917.603	15344
917.715	15424
917.826	15507
917.938	15302
918.049	15233
918.161	15378
918.272	15439
918.384	15401
918.495	15332
918.606	15199
918.717	15097
918.828	15127
918.939	15131
919.05	15085
919.161	15218
919.272	14906
919.383	15013
919.494	15192
919.604	15325
919.715	15135
919.826	15036
919.936	15097
920.047	15176
920.157	15123
920.267	15279
920.378	15142
920.488	15154
920.598	15279
920.708	15310
920.818	15131
920.928	15260
921.038	15336
921.148	15165
921.258	14944
921.368	14952
921.477	14910
921.587	14823
921.697	14746
921.806	14792
921.916	14705
922.025	14495
922.134	14442
922.244	14385
922.353	14545
922.462	14461
922.571	14282
922.68	14126
922.789	14012
922.898	14145
923.007	14065
923.116	14126
923.224	14054
923.333	14153
923.442	13917
923.55	13921
923.659	13909
923.767	13986
923.876	13883
923.984	13837
924.092	13845
924.201	13909
924.309	13833
924.417	13841
924.525	13670
924.633	13833
924.741	14446
924.849	13556
924.956	13677
925.064	13491
925.172	13453
925.279	13491
925.387	13533
925.494	13495
925.602	13586
925.709	13624
925.816	13464
925.924	13377
926.031	13464
926.138	13350
926.245	13457
926.352	13335
926.459	13460
926.566	13472
926.673	13304
926.779	13274
926.886	13156
926.993	13000
927.099	13175
927.206	13015
927.312	13031
927.419	13046
927.525	13057
927.631	13046
927.737	12985
927.843	12783
927.95	12806
928.056	12749
928.162	12905
928.267	12829
928.373	13476
928.479	12924
928.585	12616
928.69	12753
928.796	12726
928.901	12646
929.007	12578
929.112	12757
929.218	12582
929.323	12620
929.428	12578
929.533	12696
929.638	12525
929.743	12555
929.848	12525
929.953	12464
930.058	12437
930.163	12323
930.267	12300
930.372	12407
930.477	12201
930.581	12426
930.685	12258
930.79	12068
930.894	12232
930.998	12060
931.103	12277
931.207	11889
931.311	11790
931.415	11691
931.519	11524
931.623	11455
