Data from test_V78500241_3397.txt Node
Date: Fri Mar 25 16:05:20 CST 2022
User: usil
Spectrometer: V785-0024
Trigger mode: 0
Integration Time (sec): 4.000000E-1
Scans to average: 1
Nonlinearity correction enabled: false
Boxcar width: 0
Storing dark spectrum: false
XAxis mode: Wavelengths
Number of Pixels in Spectrum: 1024
>>>>>Begin Spectral Data<<<<<
801.071	28284
801.214	28272
801.356	28048
801.499	27998
801.641	27869
801.783	27835
801.926	27983
802.068	27979
802.211	27728
802.353	27739
802.496	27682
802.638	27622
802.78	27500
802.923	27431
803.065	27340
803.208	27462
803.35	27564
803.492	27747
803.635	27785
803.777	27698
803.919	27698
804.061	28002
804.204	27854
804.346	27865
804.488	27770
804.63	27759
804.773	27781
804.915	27827
805.057	27953
805.199	27983
805.341	27918
805.483	27994
805.626	27934
805.768	27873
805.91	27941
806.052	27873
806.194	27865
806.336	28097
806.478	28006
806.62	27937
806.762	28021
806.904	28223
807.046	28405
807.188	28504
807.33	28371
807.472	28348
807.614	28265
807.756	28443
807.898	28230
808.04	28105
808.182	28188
808.324	28348
808.465	28299
808.607	28455
808.749	28626
808.891	28683
809.033	28683
809.174	28649
809.316	28577
809.458	28653
809.6	28615
809.741	28725
809.883	28561
810.025	28858
810.166	28835
810.308	28949
810.45	28755
810.591	28691
810.733	28717
810.875	28493
811.016	28542
811.158	28504
811.299	28645
811.441	28691
811.582	28702
811.724	28565
811.865	28694
812.007	28580
812.148	28790
812.29	28615
812.431	28729
812.573	28949
812.714	29151
812.855	29124
812.997	29258
813.138	29410
813.279	29311
813.421	29185
813.562	29136
813.703	28908
813.845	28801
813.986	28675
814.127	28611
814.268	28242
814.41	28443
814.551	28443
814.692	28394
814.833	28265
814.974	28093
815.115	28481
815.256	28173
815.397	28063
815.539	28234
815.68	28196
815.821	28101
815.962	28090
816.103	28090
816.244	27991
816.385	28025
816.526	27945
816.666	27778
816.807	27656
816.948	27679
817.089	27755
817.23	27564
817.371	27595
817.512	27511
817.653	27545
817.793	27534
817.934	27492
818.075	27618
818.216	27637
818.356	27606
818.497	27397
818.638	27359
818.778	27534
818.919	27332
819.06	27275
819.2	27530
819.341	27587
819.481	27564
819.622	27785
819.762	27899
819.903	27819
820.043	27800
820.184	27667
820.324	27766
820.465	27876
820.605	27762
820.746	27701
820.886	27629
821.026	27869
821.167	27675
821.307	27720
821.447	27747
821.588	27488
821.728	27397
821.868	27264
822.008	27127
822.149	27077
822.289	26979
822.429	26777
822.569	26849
822.709	26609
822.849	26598
822.99	26530
823.13	26587
823.27	26518
823.41	26393
823.55	26336
823.69	26294
823.83	26579
823.97	26389
824.11	26206
824.25	26134
824.389	26221
824.529	26313
824.669	26309
824.809	26453
824.949	26248
825.089	26290
825.228	26145
825.368	26153
825.508	26100
825.648	26214
825.787	26164
825.927	26142
826.067	26111
826.206	26031
826.346	26145
826.485	26275
826.625	26069
826.765	26271
826.904	26176
827.044	25868
827.183	25898
827.323	25852
827.462	25921
827.601	25868
827.741	25776
827.88	25909
828.02	25841
828.159	25723
828.298	25742
828.437	25795
828.577	25772
828.716	25932
828.855	25845
828.994	25552
829.134	25537
829.273	25601
829.412	25449
829.551	25472
829.69	25601
829.829	25499
829.968	25563
830.107	25556
830.246	25468
830.385	25343
830.524	25358
830.663	25225
830.802	25247
830.941	25057
831.08	25137
831.219	25179
831.357	25148
831.496	25285
831.635	25088
831.774	25065
831.913	25031
832.051	25038
832.19	24939
832.329	25050
832.467	24894
832.606	24734
832.744	24825
832.883	24665
833.022	24840
833.16	24798
833.299	24913
833.437	24791
833.576	24802
833.714	24802
833.852	24844
833.991	24905
834.129	24977
834.267	24992
834.406	24890
834.544	24852
834.682	24871
834.821	24875
834.959	25004
835.097	24783
835.235	24920
835.373	25004
835.511	24867
835.65	24631
835.788	24745
835.926	24559
836.064	24475
836.202	24464
836.34	24688
836.478	24821
836.615	24760
836.753	24734
836.891	24703
837.029	24779
837.167	24719
837.305	24601
837.443	24429
837.58	24517
837.718	24490
837.856	24574
837.993	24517
838.131	24479
838.269	24384
838.406	24384
838.544	24357
838.681	24155
838.819	24144
838.956	23977
839.094	23992
839.231	24060
839.369	24167
839.506	24342
839.643	24148
839.781	23984
839.918	23912
840.055	24049
840.193	24064
840.33	23946
840.467	23954
840.604	23927
840.742	24159
840.879	23714
841.016	23760
841.153	23707
841.29	24026
841.427	23870
841.564	23752
841.701	23901
841.838	23840
841.975	23786
842.112	23703
842.249	23726
842.385	23760
842.522	23912
842.659	23726
842.796	23577
842.933	23608
843.069	23528
843.206	23703
843.343	23729
843.479	23729
843.616	23611
843.752	23463
843.889	23524
844.025	23478
844.162	23364
844.298	23505
844.435	23376
844.571	23425
844.708	23581
844.844	23589
844.98	23573
845.117	23611
845.253	23299
845.389	23330
845.525	23334
845.661	23296
845.798	23288
845.934	23231
846.07	23140
846.206	23239
846.342	23318
846.478	23197
846.614	23018
846.75	22862
846.886	22866
847.022	22968
847.158	22934
847.294	22942
847.429	22923
847.565	22858
847.701	23071
847.837	22573
847.972	22679
848.108	22630
848.244	22854
848.379	22546
848.515	22421
848.65	22318
848.786	22523
848.921	22535
849.057	22660
849.192	22599
849.328	22531
849.463	22538
849.598	22485
849.734	22386
849.869	22325
850.004	22348
850.14	22192
850.275	22215
850.41	22200
850.545	22246
850.68	22093
850.815	22280
850.95	22333
851.085	22497
851.22	22322
851.355	22276
851.49	22287
851.625	22234
851.76	22226
851.895	22226
852.03	22249
852.165	22261
852.299	22253
852.434	22322
852.569	22348
852.703	22185
852.838	22272
852.973	22284
853.107	22291
853.242	22185
853.376	22063
853.511	21937
853.645	21975
853.78	22139
853.914	22128
854.048	22048
854.183	22040
854.317	22093
854.451	22337
854.585	22093
854.72	22154
854.854	22070
854.988	22048
855.122	22166
855.256	21937
855.39	21922
855.524	22090
855.658	22284
855.792	22097
855.926	22147
856.06	22169
856.194	22192
856.327	22055
856.461	22040
856.595	22048
856.729	22010
856.862	22147
856.996	22040
857.13	22139
857.263	22188
857.397	22215
857.53	21972
857.664	22135
857.797	22204
857.931	22207
858.064	22173
858.197	22135
858.331	22101
858.464	22048
858.597	22025
858.731	22135
858.864	22021
858.997	21983
859.13	21953
859.263	22109
859.396	22082
859.529	22082
859.662	22051
859.795	22017
859.928	21987
860.061	22280
860.194	22360
860.327	22158
860.46	22048
860.592	22284
860.725	22211
860.858	22314
860.99	22002
861.123	21953
861.256	22036
861.388	21934
861.521	22934
861.653	21873
861.786	21808
861.918	22029
862.05	21861
862.183	21975
862.315	21953
862.447	22082
862.58	22032
862.712	21743
862.844	21835
862.976	21968
863.108	21831
863.24	22234
863.372	21660
863.504	21751
863.636	21789
863.768	21880
863.9	21873
864.032	21766
864.164	21774
864.296	21835
864.428	21793
864.559	21979
864.691	21880
864.823	21880
864.954	21686
865.086	21682
865.217	21656
865.349	21652
865.48	21751
865.612	21717
865.743	21823
865.875	21751
866.006	21564
866.137	21644
866.269	21682
866.4	21644
866.531	21614
866.662	21504
866.793	21549
866.924	21576
867.055	21530
867.186	21633
867.317	21583
867.448	21519
867.579	21561
867.71	21553
867.841	21515
867.972	21603
868.103	21694
868.233	21500
868.364	21587
868.495	21667
868.625	21770
868.756	21998
868.886	21785
869.017	21766
869.147	21964
869.278	21991
869.408	22070
869.539	21888
869.669	21960
869.799	21930
869.929	22078
870.06	21949
870.19	22204
870.32	22116
870.45	22143
870.58	22169
870.71	22318
870.84	22333
870.97	22226
871.1	22192
871.23	22489
871.36	22527
871.489	22379
871.619	22356
871.749	22447
871.879	22470
872.008	22569
872.138	22432
872.267	22382
872.397	22421
872.526	22306
872.656	22284
872.785	22325
872.915	22519
873.044	22561
873.173	22436
873.303	22470
873.432	22500
873.561	22592
873.69	22436
873.819	22512
873.948	22440
874.077	22531
874.206	22379
874.335	22440
874.464	22584
874.593	22763
874.722	22729
874.851	22835
874.979	22767
875.108	22755
875.237	22736
875.365	22557
875.494	22580
875.623	22759
875.751	22649
875.88	22725
876.008	22797
876.136	22885
876.265	23102
876.393	23200
876.521	23124
876.65	23159
876.778	23223
876.906	23109
877.034	22991
877.162	23025
877.29	23006
877.418	23022
877.546	23041
877.674	23143
877.802	22934
877.93	23071
878.058	22869
878.185	22961
878.313	22991
878.441	23033
878.568	22885
878.696	23064
878.824	23052
878.951	23083
879.079	23200
879.206	23220
879.333	23174
879.461	23140
879.588	23151
879.715	23075
879.842	23258
879.97	23044
880.097	22847
880.224	22793
880.351	23010
880.478	22843
880.605	22683
880.732	22843
880.859	23105
880.986	22858
881.112	22980
881.239	22733
881.366	22557
881.493	22554
881.619	22459
881.746	22405
881.872	22390
881.999	22409
882.125	22382
882.252	22337
882.378	22325
882.505	22386
882.631	22268
882.757	22002
882.883	22287
883.01	22158
883.136	22234
883.262	22112
883.388	21945
883.514	22070
883.64	22215
883.766	21956
883.892	21873
884.018	21884
884.143	22090
884.269	22093
884.395	21816
884.52	21728
884.646	21903
884.772	21606
884.897	21549
885.023	21751
885.148	21789
885.274	21774
885.399	21968
885.524	21679
885.65	21880
885.775	21800
885.9	21675
886.025	21831
886.15	21869
886.275	21789
886.4	21641
886.525	21713
886.65	21728
886.775	21583
886.9	21827
887.025	21838
887.149	21671
887.274	21500
887.399	21507
887.523	21526
887.648	21428
887.773	21447
887.897	21500
888.021	21625
888.146	21287
888.27	21458
888.395	21751
888.519	21538
888.643	21526
888.767	21675
888.891	21401
889.015	21321
889.139	21424
889.263	21279
889.387	21344
889.511	21443
889.635	21443
889.759	21298
889.883	21340
890.006	21401
890.13	21310
890.254	21154
890.377	21230
890.501	21089
890.624	21047
890.748	21108
890.871	20948
890.995	20876
891.118	20887
891.241	20842
891.364	20929
891.488	20990
891.611	20921
891.734	20880
891.857	20982
891.98	20811
892.103	20864
892.226	20899
892.349	20765
892.471	20625
892.594	20785
892.717	20746
892.839	20705
892.962	20712
893.085	20750
893.207	20762
893.33	20686
893.452	20758
893.575	20868
893.697	20693
893.819	20929
893.941	20929
894.064	20861
894.186	20640
894.308	20674
894.43	20830
894.552	20796
894.674	20914
894.796	20530
894.918	20663
895.04	20636
895.161	20788
895.283	20800
895.405	20632
895.526	20853
895.648	20727
895.769	20727
895.891	20834
896.012	20800
896.134	20697
896.255	20796
896.376	20590
896.498	20815
896.619	20773
896.74	20727
896.861	20754
896.982	21047
897.103	21077
897.224	20952
897.345	20975
897.466	20876
897.587	20910
897.708	21058
897.828	20952
897.949	20899
898.07	20746
898.19	20845
898.311	21017
898.431	21020
898.552	20918
898.672	20963
898.792	20986
898.913	20914
899.033	20891
899.153	20758
899.273	20705
899.393	20583
899.513	20735
899.633	20617
899.753	20697
899.873	20693
899.993	20765
900.113	20693
900.232	20549
900.352	20552
900.472	20488
900.591	20560
900.711	20476
900.83	20381
900.95	20594
901.069	20556
901.189	20301
901.308	20145
901.427	20043
901.546	19993
901.665	20100
901.784	19932
901.904	19902
902.023	19791
902.141	19582
902.26	19518
902.379	19605
902.498	19647
902.617	19312
902.735	19556
902.854	19525
902.973	19381
903.091	19282
903.21	19156
903.328	19194
903.446	19008
903.565	18897
903.683	18901
903.801	18867
903.919	18905
904.038	18867
904.156	18677
904.274	18730
904.392	18700
904.51	18753
904.627	18658
904.745	18738
904.863	18920
904.981	18525
905.098	18460
905.216	18498
905.334	18372
905.451	18544
905.569	18452
905.686	18422
905.803	18285
905.921	18228
906.038	18197
906.155	18117
906.272	18159
906.389	18087
906.506	17961
906.623	17927
906.74	17996
906.857	17904
906.974	17813
907.091	18030
907.208	18110
907.324	17843
907.441	17874
907.557	17790
907.674	17665
907.79	17573
907.907	17615
908.023	17623
908.139	17695
908.256	17634
908.372	17554
908.488	17573
908.604	17490
908.72	17334
908.836	17524
908.952	17455
909.068	17391
909.184	17482
909.3	17478
909.415	17436
909.531	17345
909.647	17067
909.762	17029
909.878	17018
909.993	17083
910.108	17010
910.224	17003
910.339	17029
910.454	16885
910.57	16915
910.685	16786
910.8	17117
910.915	17022
911.03	16919
911.145	16664
911.259	16702
911.374	16580
911.489	16672
911.604	16569
911.718	16314
911.833	16485
911.947	16280
912.062	16249
912.176	16455
912.291	16375
912.405	16478
912.519	16611
912.633	16577
912.748	16459
912.862	16398
912.976	16238
913.09	16090
913.204	16207
913.318	16192
913.431	16200
913.545	16299
913.659	16341
913.772	16162
913.886	16169
914	15994
914.113	16048
914.226	16131
914.34	16040
914.453	15884
914.566	16006
914.68	15869
914.793	15892
914.906	15709
915.019	15625
915.132	15580
915.245	15526
915.358	15656
915.47	15568
915.583	15572
915.696	15595
915.809	15633
915.921	15660
916.034	15511
916.146	15431
916.259	15454
916.371	15515
916.483	15557
916.595	15507
916.708	15545
916.82	15439
916.932	15389
917.044	15397
917.156	15382
917.268	15241
917.38	15165
917.491	15199
917.603	15184
917.715	15241
917.826	15408
917.938	15100
918.049	15047
918.161	15142
918.272	15298
918.384	15283
918.495	15127
918.606	15085
918.717	14838
918.828	14971
918.939	15028
919.05	14834
919.161	14971
919.272	14800
919.383	14773
919.494	15058
919.604	15176
919.715	15017
919.826	14883
919.936	14887
920.047	15013
920.157	15047
920.267	15081
920.378	14982
920.488	14910
920.598	15184
920.708	15218
920.818	15062
920.928	15047
921.038	15249
921.148	15272
921.258	14967
921.368	14811
921.477	14678
921.587	14697
921.697	14518
921.806	14689
921.916	14621
922.025	14351
922.134	14370
922.244	14298
922.353	14290
922.462	14275
922.571	14172
922.68	14065
922.789	13917
922.898	13970
923.007	13921
923.116	13970
923.224	13940
923.333	13970
923.442	13883
923.55	13788
923.659	13784
923.767	13833
923.876	13788
923.984	13712
924.092	13746
924.201	13780
924.309	13658
924.417	13693
924.525	13605
924.633	13624
924.741	14457
924.849	13377
924.956	13624
925.064	13502
925.172	13369
925.279	13381
925.387	13419
925.494	13445
925.602	13476
925.709	13464
925.816	13289
925.924	13335
926.031	13339
926.138	13339
926.245	13373
926.352	13240
926.459	13449
926.566	13384
926.673	13202
926.779	13034
926.886	13190
926.993	12966
927.099	12958
927.206	12882
927.312	12882
927.419	12943
927.525	12947
927.631	13000
927.737	12825
927.843	12734
927.95	12620
928.056	12757
928.162	12760
928.267	12722
928.373	13324
928.479	12745
928.585	12604
928.69	12719
928.796	12760
928.901	12536
929.007	12506
929.112	12578
929.218	12589
929.323	12410
929.428	12490
929.533	12593
929.638	12448
929.743	12456
929.848	12483
929.953	12334
930.058	12330
930.163	12140
930.267	12178
930.372	12243
930.477	12038
930.581	12262
930.685	12136
930.79	12019
930.894	11977
930.998	12038
931.103	12053
931.207	11695
931.311	11680
931.415	11558
931.519	11337
931.623	11345
