Data from test_V78500241_3594.txt Node
Date: Fri Mar 25 16:06:41 CST 2022
User: usil
Spectrometer: V785-0024
Trigger mode: 0
Integration Time (sec): 4.000000E-1
Scans to average: 1
Nonlinearity correction enabled: false
Boxcar width: 0
Storing dark spectrum: false
XAxis mode: Wavelengths
Number of Pixels in Spectrum: 1024
>>>>>Begin Spectral Data<<<<<
801.071	28953
801.214	28759
801.356	28649
801.499	28470
801.641	28413
801.783	28535
801.926	28478
802.068	28462
802.211	28573
802.353	28375
802.496	28223
802.638	28166
802.78	28116
802.923	27945
803.065	28105
803.208	28120
803.35	28253
803.492	28303
803.635	28401
803.777	28291
803.919	28470
804.061	28801
804.204	28417
804.346	28451
804.488	28344
804.63	28409
804.773	28352
804.915	28455
805.057	28512
805.199	28443
805.341	28550
805.483	28615
805.626	28607
805.768	28519
805.91	28607
806.052	28710
806.194	28455
806.336	28771
806.478	28512
806.62	28622
806.762	28801
806.904	28934
807.046	29181
807.188	29136
807.33	29113
807.472	29109
807.614	28850
807.756	29128
807.898	28934
808.04	28733
808.182	28919
808.324	28847
808.465	28999
808.607	29102
808.749	29372
808.891	29463
809.033	29520
809.174	29395
809.316	29345
809.458	29315
809.6	29284
809.741	29471
809.883	29528
810.025	29608
810.166	29596
810.308	29611
810.45	29478
810.591	29486
810.733	29269
810.875	29254
811.016	29315
811.158	29223
811.299	29341
811.441	29452
811.582	29452
811.724	29402
811.865	29364
812.007	29353
812.148	29303
812.29	29444
812.431	29608
812.573	29665
812.714	29824
812.855	29779
812.997	29946
813.138	30041
813.279	29927
813.421	29855
813.562	29741
813.703	29577
813.845	29653
813.986	29330
814.127	29143
814.268	28888
814.41	29121
814.551	29181
814.692	29124
814.833	28961
814.974	28904
815.115	29113
815.256	28847
815.397	28862
815.539	28908
815.68	28919
815.821	28782
815.962	28812
816.103	28839
816.244	28607
816.385	28603
816.526	28615
816.666	28466
816.807	28306
816.948	28500
817.089	28493
817.23	28436
817.371	28379
817.512	28219
817.653	28363
817.793	28325
817.934	28341
818.075	28386
818.216	28375
818.356	28337
818.497	28158
818.638	28097
818.778	28185
818.919	28166
819.06	28204
819.2	28348
819.341	28470
819.481	28401
819.622	28508
819.762	28542
819.903	28702
820.043	28588
820.184	28500
820.324	28554
820.465	28691
820.605	28428
820.746	28489
820.886	28375
821.026	28485
821.167	28333
821.307	28569
821.447	28478
821.588	28348
821.728	28207
821.868	27994
822.008	27956
822.149	27842
822.289	27713
822.429	27720
822.569	27515
822.709	27538
822.849	27321
822.99	27367
823.13	27310
823.27	27298
823.41	27108
823.55	27230
823.69	27119
823.83	27089
823.97	27108
824.11	27028
824.25	26952
824.389	27184
824.529	27062
824.669	27032
824.809	27146
824.949	26994
825.089	27157
825.228	27135
825.368	26975
825.508	26899
825.648	26994
825.787	27024
825.927	26883
826.067	26834
826.206	26902
826.346	26952
826.485	26899
826.625	26933
826.765	26982
826.904	26762
827.044	26712
827.183	26602
827.323	26598
827.462	26579
827.601	26659
827.741	26625
827.88	26724
828.02	26556
828.159	26632
828.298	26583
828.437	26796
828.577	26522
828.716	26655
828.855	26533
828.994	26400
829.134	26317
829.273	26206
829.412	26168
829.551	26332
829.69	26244
829.829	26282
829.968	26351
830.107	26358
830.246	26290
830.385	26142
830.524	26195
830.663	26107
830.802	25925
830.941	25936
831.08	25890
831.219	26065
831.357	25966
831.496	26092
831.635	25871
831.774	25982
831.913	25776
832.051	25780
832.19	25723
832.329	25765
832.467	25582
832.606	25487
832.744	25613
832.883	25597
833.022	25575
833.16	25548
833.299	25605
833.437	25578
833.576	25590
833.714	25590
833.852	25731
833.991	25776
834.129	25651
834.267	25616
834.406	25742
834.544	25620
834.682	25635
834.821	25635
834.959	25674
835.097	25655
835.235	25742
835.373	25563
835.511	25525
835.65	25685
835.788	25559
835.926	25384
836.064	25266
836.202	25350
836.34	25525
836.478	25563
836.615	25487
836.753	25369
836.891	25548
837.029	25472
837.167	25396
837.305	25335
837.443	25400
837.58	25194
837.718	25263
837.856	25388
837.993	25213
838.131	25339
838.269	25110
838.406	25228
838.544	25088
838.681	24924
838.819	24833
838.956	24791
839.094	24863
839.231	24623
839.369	24901
839.506	24996
839.643	24966
839.781	24684
839.918	24544
840.055	24753
840.193	24658
840.33	24688
840.467	24574
840.604	24688
840.742	24856
840.879	24555
841.016	24582
841.153	24502
841.29	24711
841.427	24597
841.564	24749
841.701	24620
841.838	24566
841.975	24525
842.112	24464
842.249	24540
842.385	24353
842.522	24540
842.659	24532
842.796	24414
842.933	24414
843.069	24365
843.206	24350
843.343	24403
843.479	24437
843.616	24388
843.752	24148
843.889	24235
844.025	24251
844.162	24167
844.298	24201
844.435	24232
844.571	24190
844.708	24330
844.844	24330
844.98	24399
845.117	24239
845.253	24148
845.389	23992
845.525	24110
845.661	24102
845.798	23950
845.934	23942
846.07	23866
846.206	24060
846.342	24022
846.478	23843
846.614	23699
846.75	23657
846.886	23699
847.022	23661
847.158	23668
847.294	23649
847.429	23676
847.565	23551
847.701	23946
847.837	23440
847.972	23216
848.108	23345
848.244	23417
848.379	23303
848.515	23159
848.65	23326
848.786	23326
848.921	23288
849.057	23334
849.192	23341
849.328	23372
849.463	23170
849.598	23197
849.734	23174
849.869	23083
850.004	22881
850.14	22987
850.275	22968
850.41	23018
850.545	22915
850.68	23018
850.815	23060
850.95	23056
851.085	23128
851.22	23060
851.355	23083
851.49	22896
851.625	22942
851.76	23052
851.895	22881
852.03	22877
852.165	22923
852.299	22965
852.434	23006
852.569	23018
852.703	23010
852.838	23094
852.973	23006
853.107	23113
853.242	22881
853.376	22801
853.511	22569
853.645	22896
853.78	22949
853.914	22809
854.048	22721
854.183	22759
854.317	22877
854.451	23029
854.585	22710
854.72	22835
854.854	22968
854.988	22710
855.122	22900
855.256	22656
855.39	22748
855.524	22862
855.658	22831
855.792	22740
855.926	22740
856.06	22927
856.194	22778
856.327	22778
856.461	22790
856.595	22740
856.729	22713
856.862	22919
856.996	22797
857.13	22889
857.263	22820
857.397	22881
857.53	22790
857.664	22915
857.797	22957
857.931	22835
858.064	22752
858.197	22793
858.331	22740
858.464	22634
858.597	22630
858.731	22793
858.864	22805
858.997	22630
859.13	22771
859.263	22809
859.396	22771
859.529	22706
859.662	22706
859.795	22672
859.928	22839
860.061	23060
860.194	22957
860.327	22900
860.46	22904
860.592	22850
860.725	23025
860.858	23060
860.99	22831
861.123	22805
861.256	22835
861.388	22740
861.521	23558
861.653	22710
861.786	22698
861.918	22599
862.05	22584
862.183	22634
862.315	22759
862.447	22843
862.58	22854
862.712	22683
862.844	22546
862.976	22615
863.108	22630
863.24	23071
863.372	22584
863.504	22508
863.636	22493
863.768	22470
863.9	22645
864.032	22527
864.164	22527
864.296	22546
864.428	22729
864.559	22577
864.691	22538
864.823	22542
864.954	22474
865.086	22405
865.217	22363
865.349	22413
865.48	22500
865.612	22405
865.743	22493
865.875	22348
866.006	22394
866.137	22382
866.269	22367
866.4	22493
866.531	22363
866.662	22280
866.793	22246
866.924	22504
867.055	22303
867.186	22333
867.317	22173
867.448	22242
867.579	22287
867.71	22314
867.841	22226
867.972	22284
868.103	22303
868.233	22238
868.364	22341
868.495	22398
868.625	22611
868.756	22725
868.886	22588
869.017	22561
869.147	22603
869.278	22641
869.408	22497
869.539	22527
869.669	22607
869.799	22668
869.929	22774
870.06	22691
870.19	22923
870.32	22919
870.45	22965
870.58	23086
870.71	22984
870.84	23056
870.97	23003
871.1	22953
871.23	23086
871.36	23124
871.489	23117
871.619	23136
871.749	23216
871.879	22991
872.008	23197
872.138	23258
872.267	23071
872.397	23102
872.526	23113
872.656	22957
872.785	22968
872.915	23227
873.044	23208
873.173	23204
873.303	23193
873.432	23254
873.561	23349
873.69	23162
873.819	23193
873.948	23204
874.077	23292
874.206	23041
874.335	23124
874.464	23341
874.593	23444
874.722	23391
874.851	23448
874.979	23372
875.108	23341
875.237	23356
875.365	23334
875.494	23364
875.623	23452
875.751	23414
875.88	23387
876.008	23558
876.136	23554
876.265	23760
876.393	23901
876.521	23859
876.65	23927
876.778	23843
876.906	23748
877.034	23699
877.162	23718
877.29	23764
877.418	23691
877.546	23779
877.674	23672
877.802	23718
877.93	23630
878.058	23699
878.185	23592
878.313	23509
878.441	23798
878.568	23558
878.696	23714
878.824	23699
878.951	23840
879.079	23897
879.206	24079
879.333	23840
879.461	23821
879.588	23855
879.715	23969
879.842	23950
879.97	23821
880.097	23638
880.224	23505
880.351	23672
880.478	23528
880.605	23634
880.732	23623
880.859	23752
880.986	23608
881.112	23649
881.239	23372
881.366	23341
881.493	23124
881.619	23166
881.746	23197
881.872	23136
881.999	23014
882.125	23018
882.252	23128
882.378	23060
882.505	23254
882.631	22995
882.757	22778
882.883	22904
883.01	22816
883.136	22869
883.262	22721
883.388	22592
883.514	22725
883.64	22881
883.766	22767
883.892	22573
884.018	22603
884.143	22641
884.269	22809
884.395	22542
884.52	22405
884.646	22519
884.772	22322
884.897	22333
885.023	22474
885.148	22478
885.274	22592
885.399	22466
885.524	22382
885.65	22443
885.775	22447
885.9	22481
886.025	22481
886.15	22386
886.275	22360
886.4	22306
886.525	22428
886.65	22344
886.775	22226
886.9	22500
887.025	22622
887.149	22451
887.274	22226
887.399	22188
887.523	22246
887.648	22215
887.773	22074
887.897	22223
888.021	22238
888.146	22090
888.27	22272
888.395	22303
888.519	22234
888.643	22120
888.767	22268
888.891	22059
889.015	22013
889.139	22029
889.263	21949
889.387	22002
889.511	22173
889.635	22055
889.759	21915
889.883	21926
890.006	21899
890.13	22105
890.254	21983
890.377	21793
890.501	21800
890.624	21717
890.748	21797
890.871	21443
890.995	21530
891.118	21367
891.241	21614
891.364	21496
891.488	21576
891.611	21530
891.734	21485
891.857	21557
891.98	21523
892.103	21477
892.226	21496
892.349	21405
892.471	21279
892.594	21420
892.717	21424
892.839	21378
892.962	21447
893.085	21325
893.207	21401
893.33	21340
893.452	21367
893.575	21462
893.697	21397
893.819	21633
893.941	21629
894.064	21488
894.186	21351
894.308	21348
894.43	21481
894.552	21564
894.674	21469
894.796	21291
894.918	21378
895.04	21359
895.161	21485
895.283	21287
895.405	21329
895.526	21306
895.648	21355
895.769	21443
895.891	21359
896.012	21431
896.134	21367
896.255	21329
896.376	21260
896.498	21313
896.619	21348
896.74	21230
896.861	21496
896.982	21679
897.103	21747
897.224	21622
897.345	21591
897.466	21553
897.587	21511
897.708	21778
897.828	21580
897.949	21485
898.07	21431
898.19	21431
898.311	21595
898.431	21545
898.552	21519
898.672	21553
898.792	21667
898.913	21583
899.033	21469
899.153	21336
899.273	21226
899.393	21283
899.513	21313
899.633	21302
899.753	21344
899.873	21226
899.993	21180
900.113	21150
900.232	21222
900.352	21112
900.472	21165
900.591	21009
900.711	21028
900.83	20944
900.95	21119
901.069	21127
901.189	20975
901.308	20689
901.427	20629
901.546	20708
901.665	20655
901.784	20552
901.904	20518
902.023	20404
902.141	20244
902.26	20161
902.379	20145
902.498	20233
902.617	20103
902.735	20092
902.854	20050
902.973	20031
903.091	19784
903.21	19734
903.328	19746
903.446	19674
903.565	19693
903.683	19601
903.801	19449
903.919	19472
904.038	19499
904.156	19346
904.274	19335
904.392	19266
904.51	19225
904.627	19152
904.745	19236
904.863	19316
904.981	19099
905.098	18954
905.216	18962
905.334	18951
905.451	18989
905.569	18867
905.686	19015
905.803	19034
905.921	18696
906.038	18840
906.155	18726
906.272	18623
906.389	18658
906.506	18475
906.623	18494
906.74	18506
906.857	18357
906.974	18376
907.091	18525
907.208	18688
907.324	18506
907.441	18414
907.557	18178
907.674	18197
907.79	18213
907.907	18311
908.023	18171
908.139	18235
908.256	18121
908.372	18003
908.488	18060
908.604	17923
908.72	17935
908.836	17946
908.952	17802
909.068	18015
909.184	18003
909.3	17889
909.415	17927
909.531	17847
909.647	17668
909.762	17707
909.878	17585
909.993	17646
910.108	17570
910.224	17509
910.339	17554
910.454	17448
910.57	17349
910.685	17296
910.8	17638
910.915	17596
911.03	17368
911.145	17178
911.259	17284
911.374	17143
911.489	17075
911.604	17033
911.718	16896
911.833	16908
911.947	16869
912.062	16691
912.176	16889
912.291	16938
912.405	16847
912.519	17079
912.633	17235
912.748	17022
912.862	16877
912.976	16797
913.09	16531
913.204	16752
913.318	16752
913.431	16816
913.545	16759
913.659	16835
913.772	16626
913.886	16584
914	16519
914.113	16618
914.226	16611
914.34	16637
914.453	16333
914.566	16512
914.68	16325
914.793	16287
914.906	16226
915.019	16063
915.132	16112
915.245	15994
915.358	16101
915.47	16131
915.583	15979
915.696	16101
915.809	16147
915.921	16257
916.034	16131
916.146	15998
916.259	16040
916.371	16162
916.483	15987
916.595	15953
916.708	15895
916.82	15895
916.932	15759
917.044	15755
917.156	15876
917.268	15854
917.38	15800
917.491	15633
917.603	15675
917.715	15797
917.826	15774
917.938	15584
918.049	15572
918.161	15660
918.272	15823
918.384	15732
918.495	15671
918.606	15469
918.717	15367
918.828	15389
918.939	15477
919.05	15420
919.161	15348
919.272	15237
919.383	15279
919.494	15424
919.604	15587
919.715	15431
919.826	15329
919.936	15420
920.047	15500
920.157	15458
920.267	15526
920.378	15329
920.488	15447
920.598	15610
920.708	15732
920.818	15477
920.928	15481
921.038	15660
921.148	15606
921.258	15348
921.368	15195
921.477	15127
921.587	15123
921.697	15009
921.806	15116
921.916	14960
922.025	14781
922.134	14777
922.244	14674
922.353	14842
922.462	14625
922.571	14522
922.68	14381
922.789	14370
922.898	14450
923.007	14328
923.116	14484
923.224	14343
923.333	14358
923.442	14225
923.55	14172
923.659	14218
923.767	14259
923.876	14115
923.984	14218
924.092	14119
924.201	14046
924.309	14073
924.417	14020
924.525	13993
924.633	13970
924.741	14975
924.849	13799
924.956	13978
925.064	13845
925.172	13708
925.279	13715
925.387	13734
925.494	13761
925.602	13932
925.709	13818
925.816	13620
925.924	13677
926.031	13830
926.138	13704
926.245	13670
926.352	13552
926.459	13647
926.566	13670
926.673	13578
926.779	13544
926.886	13430
926.993	13358
927.099	13339
927.206	13331
927.312	13194
927.419	13312
927.525	13198
927.631	13263
927.737	13236
927.843	13118
927.95	13004
928.056	13133
928.162	13103
928.267	13050
928.373	13719
928.479	13198
928.585	12913
928.69	13027
928.796	13038
928.901	13012
929.007	12856
929.112	12973
929.218	12863
929.323	12798
929.428	12859
929.533	12966
929.638	12669
929.743	12776
929.848	12711
929.953	12783
930.058	12612
930.163	12452
930.267	12578
930.372	12711
930.477	12559
930.581	12593
930.685	12448
930.79	12410
930.894	12464
930.998	12323
931.103	12509
931.207	12167
931.311	12019
931.415	11916
931.519	11752
931.623	11695
