Data from test_V78500241_583.txt Node
Date: Fri Mar 25 15:45:50 CST 2022
User: usil
Spectrometer: V785-0024
Trigger mode: 0
Integration Time (sec): 4.000000E-1
Scans to average: 1
Nonlinearity correction enabled: false
Boxcar width: 0
Storing dark spectrum: false
XAxis mode: Wavelengths
Number of Pixels in Spectrum: 1024
>>>>>Begin Spectral Data<<<<<
801.071	27203
801.214	27020
801.356	26758
801.499	26621
801.641	26625
801.783	26693
801.926	26708
802.068	26583
802.211	26484
802.353	26461
802.496	26324
802.638	26332
802.78	26240
802.923	26301
803.065	26240
803.208	26229
803.35	26275
803.492	26309
803.635	26290
803.777	26309
803.919	26400
804.061	26598
804.204	26362
804.346	26267
804.488	26282
804.63	26374
804.773	26267
804.915	26495
805.057	26450
805.199	26389
805.341	26393
805.483	26488
805.626	26400
805.768	26332
805.91	26381
806.052	26499
806.194	26362
806.336	26602
806.478	26450
806.62	26495
806.762	26609
806.904	26758
807.046	26948
807.188	26887
807.33	26861
807.472	26979
807.614	26686
807.756	26872
807.898	26842
808.04	26697
808.182	26762
808.324	26743
808.465	26708
808.607	26838
808.749	26952
808.891	27093
809.033	27291
809.174	27165
809.316	27070
809.458	27214
809.6	26960
809.741	27169
809.883	27237
810.025	27351
810.166	27207
810.308	27237
810.45	27302
810.591	27310
810.733	27203
810.875	27077
811.016	27093
811.158	27039
811.299	27233
811.441	27310
811.582	27237
811.724	27146
811.865	27055
812.007	27070
812.148	26975
812.29	27233
812.431	27180
812.573	27351
812.714	27538
812.855	27496
812.997	27652
813.138	27808
813.279	27625
813.421	27701
813.562	27583
813.703	27348
813.845	27317
813.986	27036
814.127	26769
814.268	26807
814.41	26716
814.551	26838
814.692	26815
814.833	26526
814.974	26667
815.115	26705
815.256	26609
815.397	26590
815.539	26697
815.68	26575
815.821	26495
815.962	26518
816.103	26568
816.244	26385
816.385	26298
816.526	26164
816.666	26107
816.807	25947
816.948	26100
817.089	26122
817.23	25978
817.371	25959
817.512	26100
817.653	25909
817.793	25974
817.934	25906
818.075	26046
818.216	25982
818.356	25940
818.497	25936
818.638	25681
818.778	25700
818.919	25685
819.06	25761
819.2	25997
819.341	25898
819.481	25997
819.622	26126
819.762	26149
819.903	26195
820.043	26134
820.184	26142
820.324	26149
820.465	26180
820.605	26077
820.746	26195
820.886	25959
821.026	26031
821.167	26126
821.307	26119
821.447	25917
821.588	25868
821.728	25753
821.868	25613
822.008	25514
822.149	25457
822.289	25350
822.429	25209
822.569	25156
822.709	25145
822.849	25038
822.99	24932
823.13	24886
823.27	24901
823.41	24703
823.55	24753
823.69	24753
823.83	24802
823.97	24658
824.11	24631
824.25	24570
824.389	24525
824.529	24665
824.669	24570
824.809	24730
824.949	24810
825.089	24631
825.228	24612
825.368	24376
825.508	24330
825.648	24521
825.787	24547
825.927	24445
826.067	24353
826.206	24247
826.346	24292
826.485	24464
826.625	24353
826.765	24486
826.904	24483
827.044	24190
827.183	24201
827.323	24106
827.462	24197
827.601	24201
827.741	24125
827.88	24129
828.02	23984
828.159	24144
828.298	24144
828.437	24155
828.577	23984
828.716	24152
828.855	24091
828.994	23771
829.134	23996
829.273	23878
829.412	23752
829.551	23729
829.69	23790
829.829	23866
829.968	23840
830.107	23817
830.246	23828
830.385	23710
830.524	23786
830.663	23684
830.802	23539
830.941	23459
831.08	23410
831.219	23516
831.357	23474
831.496	23589
831.635	23406
831.774	23505
831.913	23330
832.051	23231
832.19	23307
832.329	23212
832.467	23033
832.606	23147
832.744	23086
832.883	23155
833.022	23140
833.16	23060
833.299	23128
833.437	23151
833.576	23223
833.714	23273
833.852	23368
833.991	23277
834.129	23197
834.267	23170
834.406	23147
834.544	23189
834.682	23166
834.821	23147
834.959	23296
835.097	23083
835.235	23056
835.373	23231
835.511	23083
835.65	22949
835.788	22957
835.926	22927
836.064	22877
836.202	22885
836.34	22987
836.478	23044
836.615	23086
836.753	23018
836.891	23056
837.029	22972
837.167	22995
837.305	22961
837.443	22923
837.58	22949
837.718	22991
837.856	22793
837.993	22763
838.131	22809
838.269	22801
838.406	22828
838.544	22672
838.681	22500
838.819	22348
838.956	22363
839.094	22333
839.231	22322
839.369	22375
839.506	22763
839.643	22542
839.781	22318
839.918	22268
840.055	22284
840.193	22318
840.33	22329
840.467	22196
840.604	22413
840.742	22546
840.879	22021
841.016	22147
841.153	22207
841.29	22352
841.427	22432
841.564	22348
841.701	22261
841.838	22082
841.975	22006
842.112	22135
842.249	22063
842.385	21964
842.522	22310
842.659	22120
842.796	22029
842.933	21968
843.069	21915
843.206	21922
843.343	22029
843.479	21918
843.616	21895
843.752	21739
843.889	21759
844.025	22006
844.162	21637
844.298	21789
844.435	21816
844.571	21800
844.708	21743
844.844	21800
844.98	21899
845.117	21838
845.253	21705
845.389	21557
845.525	21713
845.661	21564
845.798	21595
845.934	21675
846.07	21466
846.206	21511
846.342	21625
846.478	21500
846.614	21325
846.75	21108
846.886	21207
847.022	21355
847.158	21230
847.294	21252
847.429	21363
847.565	21119
847.701	21511
847.837	21055
847.972	20914
848.108	21119
848.244	20960
848.379	20956
848.515	20811
848.65	20861
848.786	20864
848.921	20804
849.057	20914
849.192	20994
849.328	20918
849.463	20956
849.598	20845
849.734	20788
849.869	20716
850.004	20617
850.14	20762
850.275	20655
850.41	20480
850.545	20484
850.68	20568
850.815	20667
850.95	20697
851.085	20686
851.22	20750
851.355	20579
851.49	20552
851.625	20594
851.76	20587
851.895	20518
852.03	20492
852.165	20583
852.299	20686
852.434	20731
852.569	20621
852.703	20602
852.838	20663
852.973	20750
853.107	20724
853.242	20537
853.376	20552
853.511	20267
853.645	20423
853.78	20533
853.914	20461
854.048	20465
854.183	20412
854.317	20511
854.451	20606
854.585	20469
854.72	20522
854.854	20541
854.988	20457
855.122	20412
855.256	20305
855.39	20377
855.524	20511
855.658	20488
855.792	20385
855.926	20473
856.06	20522
856.194	20495
856.327	20332
856.461	20385
856.595	20454
856.729	20431
856.862	20457
856.996	20511
857.13	20541
857.263	20545
857.397	20648
857.53	20507
857.664	20457
857.797	20419
857.931	20518
858.064	20423
858.197	20526
858.331	20461
858.464	20457
858.597	20301
858.731	20389
858.864	20457
858.997	20526
859.13	20476
859.263	20518
859.396	20511
859.529	20370
859.662	20366
859.795	20374
859.928	20492
860.061	20571
860.194	20667
860.327	20507
860.46	20389
860.592	20644
860.725	20549
860.858	20568
860.99	20492
861.123	20450
861.256	20317
861.388	20568
861.521	21005
861.653	20256
861.786	20168
861.918	20377
862.05	20317
862.183	20412
862.315	20385
862.447	20389
862.58	20278
862.712	20183
862.844	20142
862.976	20294
863.108	20168
863.24	20678
863.372	20157
863.504	20134
863.636	20031
863.768	20126
863.9	20054
864.032	20054
864.164	20164
864.296	20096
864.428	20286
864.559	20263
864.691	20218
864.823	20237
864.954	20100
865.086	20092
865.217	20145
865.349	19936
865.48	20073
865.612	20126
865.743	20164
865.875	20130
866.006	19944
866.137	20058
866.269	19989
866.4	20164
866.531	20153
866.662	19925
866.793	20111
866.924	19978
867.055	19997
867.186	20027
867.317	20084
867.448	19879
867.579	19989
867.71	19917
867.841	19830
867.972	20031
868.103	20069
868.233	20024
868.364	19989
868.495	19955
868.625	20195
868.756	20377
868.886	20103
869.017	20355
869.147	20370
869.278	20301
869.408	20282
869.539	20377
869.669	20355
869.799	20244
869.929	20488
870.06	20355
870.19	20583
870.32	20480
870.45	20682
870.58	20587
870.71	20670
870.84	20674
870.97	20606
871.1	20629
871.23	20807
871.36	20864
871.489	20724
871.619	20754
871.749	20849
871.879	20872
872.008	20937
872.138	20834
872.267	20857
872.397	20857
872.526	20674
872.656	20629
872.785	20800
872.915	20899
873.044	20944
873.173	20872
873.303	20944
873.432	20960
873.561	21089
873.69	20857
873.819	20811
873.948	20899
874.077	20941
874.206	20830
874.335	20868
874.464	20910
874.593	21157
874.722	20952
874.851	21089
874.979	21066
875.108	21176
875.237	20994
875.365	21135
875.494	21074
875.623	21146
875.751	21203
875.88	20986
876.008	21230
876.136	21313
876.265	21477
876.393	21671
876.521	21538
876.65	21557
876.778	21462
876.906	21481
877.034	21447
877.162	21500
877.29	21393
877.418	21515
877.546	21435
877.674	21458
877.802	21587
877.93	21382
878.058	21435
878.185	21405
878.313	21454
878.441	21435
878.568	21268
878.696	21321
878.824	21454
878.951	21454
879.079	21747
879.206	21713
879.333	21644
879.461	21564
879.588	21656
879.715	21743
879.842	21698
879.97	21447
880.097	21245
880.224	21230
880.351	21408
880.478	21287
880.605	21211
880.732	21218
880.859	21526
880.986	21317
881.112	21154
881.239	21199
881.366	21024
881.493	20914
881.619	20876
881.746	20948
881.872	20971
881.999	20883
882.125	20826
882.252	20842
882.378	20914
882.505	20982
882.631	20800
882.757	20648
882.883	20499
883.01	20636
883.136	20590
883.262	20457
883.388	20374
883.514	20537
883.64	20461
883.766	20552
883.892	20358
884.018	20370
884.143	20488
884.269	20587
884.395	20263
884.52	20275
884.646	20298
884.772	20191
884.897	20161
885.023	20267
885.148	20157
885.274	20381
885.399	20377
885.524	20320
885.65	20229
885.775	20248
885.9	20180
886.025	20332
886.15	20259
886.275	20199
886.4	20107
886.525	20164
886.65	20164
886.775	20043
886.9	20351
887.025	20476
887.149	20218
887.274	19993
887.399	20008
887.523	20054
887.648	19944
887.773	19871
887.897	20145
888.021	20176
888.146	19898
888.27	20138
888.395	20020
888.519	20157
888.643	20043
888.767	20084
888.891	19906
889.015	19887
889.139	19799
889.263	19818
889.387	20077
889.511	20111
889.635	19974
889.759	19986
889.883	19742
890.006	19925
890.13	19902
890.254	19723
890.377	19719
890.501	19586
890.624	19548
890.748	19578
890.871	19567
890.995	19312
891.118	19373
891.241	19434
891.364	19400
891.488	19506
891.611	19441
891.734	19453
891.857	19480
891.98	19396
892.103	19384
892.226	19472
892.349	19407
892.471	19095
892.594	19266
892.717	19373
892.839	19369
892.962	19320
893.085	19472
893.207	19339
893.33	19247
893.452	19251
893.575	19377
893.697	19320
893.819	19449
893.941	19578
894.064	19384
894.186	19308
894.308	19244
894.43	19396
894.552	19464
894.674	19495
894.796	19232
894.918	19198
895.04	19217
895.161	19365
895.283	19362
895.405	19339
895.526	19331
895.648	19343
895.769	19422
895.891	19480
896.012	19453
896.134	19369
896.255	19400
896.376	19259
896.498	19278
896.619	19373
896.74	19441
896.861	19449
896.982	19685
897.103	19837
897.224	19696
897.345	19578
897.466	19510
897.587	19544
897.708	19757
897.828	19647
897.949	19582
898.07	19426
898.19	19506
898.311	19643
898.431	19563
898.552	19677
898.672	19594
898.792	19715
898.913	19567
899.033	19468
899.153	19365
899.273	19335
899.393	19373
899.513	19445
899.633	19316
899.753	19346
899.873	19228
899.993	19365
900.113	19384
900.232	19392
900.352	19263
900.472	19240
900.591	19133
900.711	19118
900.83	19031
900.95	19297
901.069	19259
901.189	19008
901.308	18859
901.427	18863
901.546	18730
901.665	18730
901.784	18795
901.904	18612
902.023	18445
902.141	18372
902.26	18304
902.379	18243
902.498	18159
902.617	18243
902.735	18266
902.854	18300
902.973	18232
903.091	17942
903.21	17866
903.328	17935
903.446	17859
903.565	17828
903.683	17737
903.801	17596
903.919	17767
904.038	17745
904.156	17566
904.274	17596
904.392	17497
904.51	17444
904.627	17425
904.745	17516
904.863	17554
904.981	17345
905.098	17246
905.216	17265
905.334	17231
905.451	17204
905.569	17181
905.686	17166
905.803	17056
905.921	16908
906.038	17105
906.155	17124
906.272	16972
906.389	16885
906.506	16706
906.623	16740
906.74	16702
906.857	16622
906.974	16637
907.091	16717
907.208	16862
907.324	16759
907.441	16649
907.557	16519
907.674	16455
907.79	16360
907.907	16398
908.023	16386
908.139	16485
908.256	16382
908.372	16322
908.488	16337
908.604	16356
908.72	16219
908.836	16158
908.952	16200
909.068	16124
909.184	16402
909.3	16173
909.415	16234
909.531	16169
909.647	16013
909.762	15835
909.878	15884
909.993	15800
910.108	15876
910.224	15789
910.339	15869
910.454	15717
910.57	15705
910.685	15656
910.8	15884
910.915	15857
911.03	15671
911.145	15568
911.259	15507
911.374	15515
911.489	15431
911.604	15340
911.718	15252
911.833	15264
911.947	15180
912.062	15119
912.176	15291
912.291	15211
912.405	15340
912.519	15382
912.633	15412
912.748	15283
912.862	15291
912.976	15085
913.09	14845
913.204	15005
913.318	15142
913.431	15127
913.545	15150
913.659	15173
913.772	14963
913.886	14963
914	14853
914.113	14876
914.226	14975
914.34	14971
914.453	14880
914.566	14948
914.68	14697
914.793	14678
914.906	14480
915.019	14552
915.132	14530
915.245	14499
915.358	14556
915.47	14537
915.583	14492
915.696	14507
915.809	14640
915.921	14670
916.034	14374
916.146	14488
916.259	14389
916.371	14480
916.483	14450
916.595	14271
916.708	14473
916.82	14389
916.932	14244
917.044	14377
917.156	14278
917.268	14176
917.38	14218
917.491	14119
917.603	14214
917.715	14324
917.826	14237
917.938	14096
918.049	14107
918.161	14130
918.272	14259
918.384	14252
918.495	14221
918.606	14043
918.717	13902
918.828	14005
918.939	14069
919.05	13818
919.161	13959
919.272	13723
919.383	13879
919.494	14016
919.604	14221
919.715	14043
919.826	13833
919.936	13978
920.047	14092
920.157	13917
920.267	14214
920.378	13959
920.488	13951
920.598	14142
920.708	14240
920.818	14119
920.928	14111
921.038	14271
921.148	14237
921.258	14005
921.368	13822
921.477	13696
921.587	13727
921.697	13651
921.806	13651
921.916	13575
922.025	13499
922.134	13453
922.244	13331
922.353	13464
922.462	13263
922.571	13137
922.68	13080
922.789	13061
922.898	13103
923.007	12932
923.116	13057
923.224	13042
923.333	12966
923.442	12791
923.55	12875
923.659	12863
923.767	12924
923.876	12840
923.984	12916
924.092	12772
924.201	12703
924.309	12802
924.417	12844
924.525	12719
924.633	12738
924.741	13632
924.849	12486
924.956	12745
925.064	12483
925.172	12467
925.279	12441
925.387	12509
925.494	12456
925.602	12616
925.709	12559
925.816	12319
925.924	12486
926.031	12429
926.138	12418
926.245	12448
926.352	12376
926.459	12494
926.566	12460
926.673	12414
926.779	12254
926.886	12213
926.993	12121
927.099	12087
927.206	12095
927.312	12060
927.419	12114
927.525	12049
927.631	12102
927.737	11916
927.843	11973
927.95	11775
928.056	11920
928.162	11942
928.267	11927
928.373	12574
928.479	11999
928.585	11836
928.69	11916
928.796	11912
928.901	11668
929.007	11600
929.112	11779
929.218	11707
929.323	11611
929.428	11596
929.533	11760
929.638	11539
929.743	11554
929.848	11695
929.953	11589
930.058	11459
930.163	11307
930.267	11318
930.372	11516
930.477	11315
930.581	11524
930.685	11372
930.79	11284
930.894	11231
930.998	11273
931.103	11360
931.207	11010
931.311	10934
931.415	10896
931.519	10710
931.623	10607
