Data from test_V78500241_3289.txt Node
Date: Fri Mar 25 16:04:35 CST 2022
User: usil
Spectrometer: V785-0024
Trigger mode: 0
Integration Time (sec): 4.000000E-1
Scans to average: 1
Nonlinearity correction enabled: false
Boxcar width: 0
Storing dark spectrum: false
XAxis mode: Wavelengths
Number of Pixels in Spectrum: 1024
>>>>>Begin Spectral Data<<<<<
801.071	28653
801.214	28569
801.356	28409
801.499	28367
801.641	28246
801.783	28306
801.926	28207
802.068	28246
802.211	28173
802.353	28242
802.496	28036
802.638	28025
802.78	27854
802.923	27930
803.065	27945
803.208	27888
803.35	28025
803.492	28112
803.635	28211
803.777	28166
803.919	28093
804.061	28394
804.204	28219
804.346	28166
804.488	28101
804.63	28105
804.773	28131
804.915	28257
805.057	28280
805.199	28200
805.341	28211
805.483	28329
805.626	28295
805.768	28143
805.91	28401
806.052	28360
806.194	28246
806.336	28478
806.478	28421
806.62	28497
806.762	28599
806.904	28755
807.046	28995
807.188	28740
807.33	28793
807.472	28961
807.614	28736
807.756	28816
807.898	28771
808.04	28523
808.182	28542
808.324	28580
808.465	28797
808.607	29025
808.749	29044
808.891	29174
809.033	29246
809.174	29022
809.316	29090
809.458	28972
809.6	28968
809.741	29109
809.883	29189
810.025	29467
810.166	29391
810.308	29334
810.45	29185
810.591	29299
810.733	29189
810.875	29079
811.016	29029
811.158	29037
811.299	29140
811.441	29239
811.582	29231
811.724	29147
811.865	29086
812.007	29060
812.148	29067
812.29	29086
812.431	29322
812.573	29315
812.714	29391
812.855	29570
812.997	29752
813.138	29767
813.279	29722
813.421	29589
813.562	29387
813.703	29364
813.845	29242
813.986	29048
814.127	28831
814.268	28919
814.41	28816
814.551	28729
814.692	28850
814.833	28729
814.974	28793
815.115	28698
815.256	28557
815.397	28710
815.539	28637
815.68	28493
815.821	28569
815.962	28687
816.103	28508
816.244	28462
816.385	28344
816.526	28421
816.666	28185
816.807	27941
816.948	28158
817.089	28344
817.23	28070
817.371	28105
817.512	28173
817.653	28002
817.793	27964
817.934	28086
818.075	28067
818.216	28112
818.356	28029
818.497	27895
818.638	27911
818.778	27857
818.919	27991
819.06	28010
819.2	27899
819.341	28097
819.481	28112
819.622	28314
819.762	28424
819.903	28409
820.043	28348
820.184	28375
820.324	28261
820.465	28306
820.605	28337
820.746	28154
820.886	28021
821.026	28246
821.167	28276
821.307	28287
821.447	28101
821.588	27991
821.728	27865
821.868	27724
822.008	27599
822.149	27496
822.289	27534
822.429	27291
822.569	27374
822.709	27374
822.849	27104
822.99	27203
823.13	27047
823.27	27100
823.41	26838
823.55	26727
823.69	26777
823.83	27013
823.97	26998
824.11	26750
824.25	26693
824.389	26686
824.529	26811
824.669	26785
824.809	26952
824.949	26792
825.089	26921
825.228	26834
825.368	26731
825.508	26495
825.648	26514
825.787	26549
825.927	26788
826.067	26670
826.206	26629
826.346	26686
826.485	26636
826.625	26708
826.765	26788
826.904	26606
827.044	26476
827.183	26355
827.323	26362
827.462	26374
827.601	26374
827.741	26465
827.88	26339
828.02	26362
828.159	26317
828.298	26381
828.437	26465
828.577	26294
828.716	26355
828.855	26313
828.994	26035
829.134	26008
829.273	26107
829.412	26012
829.551	25921
829.69	26100
829.829	25989
829.968	26084
830.107	26149
830.246	26084
830.385	25909
830.524	25989
830.663	25814
830.802	25780
830.941	25647
831.08	25597
831.219	25632
831.357	25807
831.496	25974
831.635	25746
831.774	25525
831.913	25449
832.051	25491
832.19	25502
832.329	25499
832.467	25343
832.606	25213
832.744	25438
832.883	25175
833.022	25293
833.16	25388
833.299	25441
833.437	25358
833.576	25407
833.714	25388
833.852	25324
833.991	25392
834.129	25582
834.267	25491
834.406	25316
834.544	25400
834.682	25506
834.821	25285
834.959	25552
835.097	25297
835.235	25350
835.373	25358
835.511	25346
835.65	25244
835.788	25202
835.926	25141
836.064	25099
836.202	25034
836.34	25171
836.478	25354
836.615	25346
836.753	25251
836.891	25369
837.029	25266
837.167	25164
837.305	25251
837.443	25061
837.58	25027
837.718	25042
837.856	25038
837.993	25042
838.131	25012
838.269	24935
838.406	24992
838.544	24825
838.681	24741
838.819	24639
838.956	24601
839.094	24494
839.231	24559
839.369	24738
839.506	24886
839.643	24738
839.781	24475
839.918	24399
840.055	24475
840.193	24559
840.33	24273
840.467	24448
840.604	24410
840.742	24688
840.879	24327
841.016	24429
841.153	24243
841.29	24616
841.427	24369
841.564	24467
841.701	24418
841.838	24350
841.975	24350
842.112	24380
842.249	24296
842.385	24190
842.522	24357
842.659	24106
842.796	24186
842.933	24315
843.069	24114
843.206	24136
843.343	24262
843.479	24034
843.616	24171
843.752	23904
843.889	23984
844.025	24171
844.162	23927
844.298	24049
844.435	23939
844.571	23939
844.708	23878
844.844	24003
844.98	24163
845.117	24057
845.253	23866
845.389	23874
845.525	23836
845.661	23764
845.798	23737
845.934	23642
846.07	23771
846.206	23623
846.342	23657
846.478	23627
846.614	23379
846.75	23421
846.886	23391
847.022	23421
847.158	23474
847.294	23372
847.429	23452
847.565	23387
847.701	23691
847.837	23060
847.972	23044
848.108	23181
848.244	23159
848.379	22972
848.515	23006
848.65	23041
848.786	23075
848.921	23003
849.057	22915
849.192	22984
849.328	23166
849.463	22927
849.598	22866
849.734	22957
849.869	22847
850.004	22786
850.14	22755
850.275	22805
850.41	22641
850.545	22752
850.68	22634
850.815	22767
850.95	22793
851.085	22976
851.22	22957
851.355	22771
851.49	22786
851.625	22805
851.76	22691
851.895	22656
852.03	22645
852.165	22653
852.299	22869
852.434	22687
852.569	22725
852.703	22675
852.838	22839
852.973	22866
853.107	22786
853.242	22702
853.376	22592
853.511	22561
853.645	22478
853.78	22656
853.914	22622
854.048	22474
854.183	22656
854.317	22607
854.451	22752
854.585	22672
854.72	22687
854.854	22615
854.988	22622
855.122	22592
855.256	22325
855.39	22508
855.524	22645
855.658	22736
855.792	22645
855.926	22694
856.06	22573
856.194	22713
856.327	22569
856.461	22561
856.595	22493
856.729	22577
856.862	22816
856.996	22577
857.13	22656
857.263	22668
857.397	22687
857.53	22603
857.664	22592
857.797	22615
857.931	22660
858.064	22584
858.197	22782
858.331	22603
858.464	22432
858.597	22497
858.731	22645
858.864	22531
858.997	22459
859.13	22577
859.263	22599
859.396	22675
859.529	22588
859.662	22531
859.795	22618
859.928	22580
860.061	22687
860.194	22782
860.327	22645
860.46	22554
860.592	22672
860.725	22733
860.858	22679
860.99	22565
861.123	22493
861.256	22512
861.388	22584
861.521	23280
861.653	22584
861.786	22451
861.918	22386
862.05	22440
862.183	22512
862.315	22523
862.447	22573
862.58	22523
862.712	22234
862.844	22230
862.976	22428
863.108	22421
863.24	22759
863.372	22226
863.504	22268
863.636	22238
863.768	22249
863.9	22306
864.032	22249
864.164	22299
864.296	22352
864.428	22310
864.559	22280
864.691	22428
864.823	22424
864.954	22325
865.086	22348
865.217	22185
865.349	22135
865.48	22185
865.612	22139
865.743	22337
865.875	22177
866.006	22063
866.137	22177
866.269	22215
866.4	22082
866.531	22124
866.662	22010
866.793	22101
866.924	22048
867.055	22112
867.186	22147
867.317	21991
867.448	21949
867.579	22120
867.71	22032
867.841	21987
867.972	22158
868.103	22135
868.233	22158
868.364	22044
868.495	22230
868.625	22246
868.756	22371
868.886	22360
869.017	22329
869.147	22421
869.278	22462
869.408	22333
869.539	22310
869.669	22329
869.799	22287
869.929	22455
870.06	22421
870.19	22615
870.32	22580
870.45	22611
870.58	22767
870.71	22862
870.84	22828
870.97	22717
871.1	22675
871.23	22877
871.36	22858
871.489	22866
871.619	22763
871.749	22809
871.879	23022
872.008	23010
872.138	22923
872.267	22911
872.397	22805
872.526	22774
872.656	22748
872.785	22755
872.915	22892
873.044	23037
873.173	22972
873.303	23075
873.432	22873
873.561	23022
873.69	22980
873.819	22984
873.948	22976
874.077	22965
874.206	22923
874.335	22942
874.464	23083
874.593	23162
874.722	23121
874.851	23181
874.979	23193
875.108	23235
875.237	23121
875.365	22999
875.494	23124
875.623	23197
875.751	23181
875.88	23067
876.008	23212
876.136	23440
876.265	23512
876.393	23642
876.521	23611
876.65	23646
876.778	23745
876.906	23676
877.034	23463
877.162	23615
877.29	23444
877.418	23512
877.546	23486
877.674	23436
877.802	23543
877.93	23543
878.058	23406
878.185	23372
878.313	23436
878.441	23425
878.568	23315
878.696	23417
878.824	23562
878.951	23570
879.079	23661
879.206	23893
879.333	23642
879.461	23589
879.588	23585
879.715	23748
879.842	23657
879.97	23722
880.097	23261
880.224	23334
880.351	23467
880.478	23376
880.605	23239
880.732	23315
880.859	23455
880.986	23402
881.112	23406
881.239	23197
881.366	23151
881.493	22911
881.619	22984
881.746	22911
881.872	22850
881.999	22953
882.125	22824
882.252	22934
882.378	22904
882.505	23029
882.631	22736
882.757	22668
882.883	22683
883.01	22500
883.136	22493
883.262	22436
883.388	22337
883.514	22561
883.64	22637
883.766	22489
883.892	22356
884.018	22356
884.143	22459
884.269	22443
884.395	22333
884.52	22185
884.646	22147
884.772	22055
884.897	22025
885.023	22215
885.148	22344
885.274	22325
885.399	22276
885.524	22147
885.65	22200
885.775	22287
885.9	22215
886.025	22322
886.15	22295
886.275	22116
886.4	22078
886.525	22105
886.65	22093
886.775	22063
886.9	22234
887.025	22246
887.149	22196
887.274	22017
887.399	21987
887.523	21979
887.648	21895
887.773	21941
887.897	21979
888.021	21831
888.146	21899
888.27	22070
888.395	21998
888.519	22078
888.643	21941
888.767	21983
888.891	21892
889.015	21804
889.139	21842
889.263	21690
889.387	21922
889.511	21945
889.635	21816
889.759	21766
889.883	21774
890.006	21778
890.13	21781
890.254	21572
890.377	21698
890.501	21420
890.624	21481
890.748	21580
890.871	21367
890.995	21272
891.118	21058
891.241	21287
891.364	21306
891.488	21389
891.611	21336
891.734	21332
891.857	21367
891.98	21355
892.103	21310
892.226	21302
892.349	21298
892.471	21195
892.594	21127
892.717	21222
892.839	21203
892.962	21241
893.085	21184
893.207	21173
893.33	21055
893.452	21051
893.575	21275
893.697	21203
893.819	21325
893.941	21412
894.064	21294
894.186	21207
894.308	21176
894.43	21355
894.552	21344
894.674	21157
894.796	21001
894.918	21096
895.04	21131
895.161	21184
895.283	21192
895.405	21077
895.526	21211
895.648	21104
895.769	21180
895.891	21150
896.012	21161
896.134	21013
896.255	21192
896.376	21081
896.498	21230
896.619	21165
896.74	21093
896.861	21173
896.982	21553
897.103	21599
897.224	21405
897.345	21310
897.466	21291
897.587	21393
897.708	21450
897.828	21367
897.949	21260
898.07	21241
898.19	21161
898.311	21492
898.431	21291
898.552	21279
898.672	21382
898.792	21351
898.913	21336
899.033	21279
899.153	21154
899.273	21085
899.393	21043
899.513	21009
899.633	21058
899.753	21055
899.873	21013
899.993	21104
900.113	21009
900.232	21036
900.352	21051
900.472	20849
900.591	20849
900.711	20830
900.83	20838
900.95	20902
901.069	21001
901.189	20697
901.308	20488
901.427	20366
901.546	20431
901.665	20434
901.784	20366
901.904	20275
902.023	20210
902.141	20001
902.26	19986
902.379	19970
902.498	19826
902.617	19856
902.735	19833
902.854	19921
902.973	19693
903.091	19518
903.21	19586
903.328	19628
903.446	19396
903.565	19350
903.683	19358
903.801	19221
903.919	19301
904.038	19343
904.156	19171
904.274	19206
904.392	19038
904.51	19023
904.627	19019
904.745	19175
904.863	19190
904.981	18905
905.098	18810
905.216	18814
905.334	18760
905.451	18795
905.569	18730
905.686	18783
905.803	18757
905.921	18578
906.038	18749
906.155	18665
906.272	18445
906.389	18460
906.506	18346
906.623	18289
906.74	18232
906.857	18136
906.974	18155
907.091	18285
907.208	18426
907.324	18292
907.441	18342
907.557	17988
907.674	18011
907.79	17927
907.907	18015
908.023	18045
908.139	18007
908.256	17882
908.372	17870
908.488	17870
908.604	17859
908.72	17672
908.836	17767
908.952	17756
909.068	17840
909.184	17912
909.3	17703
909.415	17707
909.531	17668
909.647	17455
909.762	17417
909.878	17444
909.993	17436
910.108	17448
910.224	17406
910.339	17356
910.454	17318
910.57	17204
910.685	17250
910.8	17372
910.915	17406
911.03	17181
911.145	17086
911.259	16972
911.374	16942
911.489	16869
911.604	16877
911.718	16759
911.833	16839
911.947	16637
912.062	16573
912.176	16767
912.291	16637
912.405	16713
912.519	16946
912.633	17048
912.748	16759
912.862	16759
912.976	16577
913.09	16424
913.204	16573
913.318	16546
913.431	16618
913.545	16630
913.659	16683
913.772	16466
913.886	16519
914	16413
914.113	16462
914.226	16538
914.34	16382
914.453	16253
914.566	16432
914.68	16238
914.793	16166
914.906	15979
915.019	15998
915.132	15911
915.245	15888
915.358	15926
915.47	15869
915.583	15941
915.696	16002
915.809	15903
915.921	16036
916.034	15899
916.146	15785
916.259	15789
916.371	15945
916.483	15846
916.595	15827
916.708	15766
916.82	15720
916.932	15736
917.044	15720
917.156	15743
917.268	15553
917.38	15603
917.491	15561
917.603	15526
917.715	15656
917.826	15572
917.938	15564
918.049	15424
918.161	15523
918.272	15793
918.384	15625
918.495	15462
918.606	15351
918.717	15252
918.828	15317
918.939	15408
919.05	15245
919.161	15344
919.272	15142
919.383	15127
919.494	15302
919.604	15481
919.715	15321
919.826	15230
919.936	15195
920.047	15291
920.157	15283
920.267	15420
920.378	15355
920.488	15249
920.598	15462
920.708	15660
920.818	15416
920.928	15401
921.038	15542
921.148	15507
921.258	15237
921.368	15112
921.477	15058
921.587	15005
921.697	14849
921.806	14963
921.916	14800
922.025	14640
922.134	14636
922.244	14617
922.353	14670
922.462	14564
922.571	14408
922.68	14305
922.789	14267
922.898	14415
923.007	14119
923.116	14290
923.224	14271
923.333	14294
923.442	14111
923.55	14107
923.659	14206
923.767	14191
923.876	13967
923.984	14046
924.092	14027
924.201	13947
924.309	13982
924.417	13879
924.525	13875
924.633	13951
924.741	14651
924.849	13727
924.956	13826
925.064	13788
925.172	13616
925.279	13597
925.387	13681
925.494	13715
925.602	13791
925.709	13681
925.816	13548
925.924	13605
926.031	13719
926.138	13582
926.245	13674
926.352	13483
926.459	13506
926.566	13632
926.673	13426
926.779	13346
926.886	13346
926.993	13236
927.099	13255
927.206	13202
927.312	13259
927.419	13236
927.525	13202
927.631	13225
927.737	13038
927.843	13008
927.95	12920
928.056	12993
928.162	12928
928.267	13031
928.373	13552
928.479	13107
928.585	12715
928.69	12951
928.796	13027
928.901	12787
929.007	12696
929.112	12863
929.218	12776
929.323	12707
929.428	12635
929.533	12764
929.638	12654
929.743	12627
929.848	12681
929.953	12616
930.058	12483
930.163	12376
930.267	12380
930.372	12456
930.477	12353
930.581	12525
930.685	12315
930.79	12266
930.894	12224
930.998	12277
931.103	12300
931.207	12007
931.311	11908
931.415	11840
931.519	11608
931.623	11520
