Data from test_V78500241_3010.txt Node
Date: Fri Mar 25 16:02:39 CST 2022
User: usil
Spectrometer: V785-0024
Trigger mode: 0
Integration Time (sec): 4.000000E-1
Scans to average: 1
Nonlinearity correction enabled: false
Boxcar width: 0
Storing dark spectrum: false
XAxis mode: Wavelengths
Number of Pixels in Spectrum: 1024
>>>>>Begin Spectral Data<<<<<
801.071	28557
801.214	28500
801.356	28432
801.499	28303
801.641	28249
801.783	28219
801.926	28204
802.068	28196
802.211	28177
802.353	28090
802.496	27953
802.638	27918
802.78	28010
802.923	27873
803.065	27736
803.208	27789
803.35	27827
803.492	28029
803.635	28063
803.777	27968
803.919	28204
804.061	28356
804.204	28226
804.346	28059
804.488	28070
804.63	28234
804.773	28036
804.915	28177
805.057	28204
805.199	28135
805.341	28299
805.483	28291
805.626	28344
805.768	28204
805.91	28223
806.052	28295
806.194	28135
806.336	28474
806.478	28386
806.62	28325
806.762	28542
806.904	28656
807.046	28908
807.188	28862
807.33	28649
807.472	28710
807.614	28687
807.756	28630
807.898	28546
808.04	28519
808.182	28478
808.324	28508
808.465	28561
808.607	28782
808.749	28824
808.891	29056
809.033	29140
809.174	28953
809.316	29025
809.458	28995
809.6	28873
809.741	29090
809.883	29071
810.025	29155
810.166	29250
810.308	29200
810.45	29060
810.591	29269
810.733	28892
810.875	28957
811.016	29003
811.158	28812
811.299	28991
811.441	29128
811.582	29208
811.724	29178
811.865	28984
812.007	29006
812.148	29010
812.29	28999
812.431	29181
812.573	29368
812.714	29414
812.855	29524
812.997	29703
813.138	29619
813.279	29421
813.421	29421
813.562	29570
813.703	29364
813.845	29075
813.986	28835
814.127	28740
814.268	28634
814.41	28645
814.551	28744
814.692	28809
814.833	28664
814.974	28603
815.115	28729
815.256	28500
815.397	28470
815.539	28542
815.68	28622
815.821	28375
815.962	28436
816.103	28352
816.244	28325
816.385	28405
816.526	28306
816.666	28215
816.807	28101
816.948	27998
817.089	28147
817.23	28036
817.371	28070
817.512	28051
817.653	28021
817.793	27941
817.934	27979
818.075	27964
818.216	28055
818.356	27964
818.497	27880
818.638	27778
818.778	27797
818.919	27770
819.06	27895
819.2	27869
819.341	28017
819.481	27930
819.622	28166
819.762	28443
819.903	28303
820.043	28207
820.184	28192
820.324	28120
820.465	28226
820.605	27975
820.746	28139
820.886	28067
821.026	28070
821.167	27949
821.307	28082
821.447	28120
821.588	27945
821.728	27774
821.868	27641
822.008	27553
822.149	27386
822.289	27466
822.429	27176
822.569	27070
822.709	27123
822.849	26979
822.99	26918
823.13	27039
823.27	26895
823.41	26921
823.55	26689
823.69	26868
823.83	26830
823.97	26670
824.11	26541
824.25	26773
824.389	26670
824.529	26727
824.669	26712
824.809	26830
824.949	26651
825.089	26655
825.228	26655
825.368	26374
825.508	26697
825.648	26552
825.787	26602
825.927	26492
826.067	26503
826.206	26560
826.346	26484
826.485	26473
826.625	26442
826.765	26560
826.904	26442
827.044	26358
827.183	26252
827.323	26202
827.462	26332
827.601	26267
827.741	26218
827.88	26313
828.02	26195
828.159	26199
828.298	26157
828.437	26294
828.577	26157
828.716	26336
828.855	26092
828.994	25993
829.134	25902
829.273	26058
829.412	25795
829.551	25780
829.69	25989
829.829	25993
829.968	25894
830.107	25936
830.246	25887
830.385	25959
830.524	25852
830.663	25655
830.802	25590
830.941	25518
831.08	25529
831.219	25601
831.357	25491
831.496	25780
831.635	25525
831.774	25605
831.913	25449
832.051	25339
832.19	25213
832.329	25339
832.467	25244
832.606	25099
832.744	25148
832.883	25118
833.022	25168
833.16	25247
833.299	25202
833.437	25213
833.576	25266
833.714	25316
833.852	25213
833.991	25236
834.129	25236
834.267	25388
834.406	25312
834.544	25247
834.682	25301
834.821	25236
834.959	25388
835.097	25133
835.235	25362
835.373	25187
835.511	25327
835.65	25171
835.788	25171
835.926	24916
836.064	24905
836.202	24932
836.34	25103
836.478	25164
836.615	25042
836.753	25012
836.891	25095
837.029	25126
837.167	24981
837.305	25008
837.443	24886
837.58	24916
837.718	25004
837.856	25000
837.993	24776
838.131	24833
838.269	24749
838.406	24901
838.544	24673
838.681	24505
838.819	24486
838.956	24471
839.094	24429
839.231	24441
839.369	24467
839.506	24848
839.643	24601
839.781	24342
839.918	24361
840.055	24365
840.193	24399
840.33	24285
840.467	24350
840.604	24338
840.742	24456
840.879	24174
841.016	24220
841.153	24194
841.29	24376
841.427	24308
841.564	24319
841.701	24334
841.838	24308
841.975	24174
842.112	24117
842.249	24171
842.385	24018
842.522	24277
842.659	24213
842.796	23954
842.933	23904
843.069	24015
843.206	23958
843.343	24224
843.479	24060
843.616	24110
843.752	23786
843.889	23832
844.025	23908
844.162	23832
844.298	23912
844.435	23824
844.571	23767
844.708	23703
844.844	23961
844.98	23859
845.117	24034
845.253	23668
845.389	23703
845.525	23687
845.661	23653
845.798	23600
845.934	23657
846.07	23478
846.206	23558
846.342	23627
846.478	23535
846.614	23372
846.75	23204
846.886	23220
847.022	23372
847.158	23174
847.294	23258
847.429	23353
847.565	23216
847.701	23516
847.837	22987
847.972	22923
848.108	23056
848.244	23003
848.379	22919
848.515	22835
848.65	22862
848.786	22847
848.921	22873
849.057	22965
849.192	22869
849.328	22854
849.463	22847
849.598	22771
849.734	22759
849.869	22801
850.004	22565
850.14	22607
850.275	22637
850.41	22451
850.545	22592
850.68	22481
850.815	22675
850.95	22607
851.085	22702
851.22	22725
851.355	22660
851.49	22668
851.625	22717
851.76	22535
851.895	22436
852.03	22554
852.165	22554
852.299	22706
852.434	22691
852.569	22618
852.703	22474
852.838	22634
852.973	22767
853.107	22694
853.242	22531
853.376	22462
853.511	22375
853.645	22371
853.78	22691
853.914	22481
854.048	22489
854.183	22451
854.317	22462
854.451	22759
854.585	22481
854.72	22390
854.854	22474
854.988	22436
855.122	22489
855.256	22272
855.39	22367
855.524	22577
855.658	22462
855.792	22512
855.926	22641
856.06	22523
856.194	22580
856.327	22519
856.461	22455
856.595	22432
856.729	22333
856.862	22535
856.996	22565
857.13	22531
857.263	22634
857.397	22630
857.53	22493
857.664	22569
857.797	22474
857.931	22519
858.064	22402
858.197	22740
858.331	22493
858.464	22306
858.597	22348
858.731	22489
858.864	22443
858.997	22379
859.13	22478
859.263	22527
859.396	22649
859.529	22344
859.662	22394
859.795	22413
859.928	22565
860.061	22611
860.194	22713
860.327	22500
860.46	22493
860.592	22645
860.725	22607
860.858	22645
860.99	22618
861.123	22470
861.256	22447
861.388	22470
861.521	23280
861.653	22314
861.786	22314
861.918	22234
862.05	22314
862.183	22360
862.315	22405
862.447	22394
862.58	22299
862.712	22128
862.844	22082
862.976	22257
863.108	22390
863.24	22474
863.372	22040
863.504	22162
863.636	22242
863.768	22253
863.9	22181
864.032	22139
864.164	22150
864.296	22188
864.428	22215
864.559	22246
864.691	22230
864.823	22185
864.954	22177
865.086	22082
865.217	22032
865.349	21926
865.48	22078
865.612	22044
865.743	22207
865.875	22093
866.006	21972
866.137	22055
866.269	22116
866.4	22010
866.531	21876
866.662	21979
866.793	22116
866.924	21888
867.055	22131
867.186	21854
867.317	21953
867.448	21983
867.579	21869
867.71	21854
867.841	21915
867.972	22074
868.103	22017
868.233	22074
868.364	21972
868.495	22010
868.625	22261
868.756	22318
868.886	22086
869.017	22196
869.147	22333
869.278	22428
869.408	22162
869.539	22200
869.669	22204
869.799	22344
869.929	22409
870.06	22379
870.19	22504
870.32	22516
870.45	22462
870.58	22790
870.71	22721
870.84	22755
870.97	22474
871.1	22637
871.23	22752
871.36	22793
871.489	22748
871.619	22953
871.749	22702
871.879	22869
872.008	22911
872.138	22744
872.267	22755
872.397	22710
872.526	22710
872.656	22710
872.785	22759
872.915	22691
873.044	23014
873.173	22744
873.303	22968
873.432	22930
873.561	22911
873.69	22873
873.819	22900
873.948	22957
874.077	22889
874.206	22858
874.335	22854
874.464	23025
874.593	23056
874.722	22934
874.851	23109
874.979	23140
875.108	23094
875.237	22984
875.365	22892
875.494	23075
875.623	23060
875.751	23079
875.88	23064
876.008	23242
876.136	23220
876.265	23398
876.393	23589
876.521	23505
876.65	23581
876.778	23581
876.906	23459
877.034	23379
877.162	23395
877.29	23337
877.418	23440
877.546	23398
877.674	23379
877.802	23345
877.93	23493
878.058	23242
878.185	23239
878.313	23277
878.441	23322
878.568	23147
878.696	23341
878.824	23410
878.951	23459
879.079	23627
879.206	23752
879.333	23554
879.461	23334
879.588	23474
879.715	23448
879.842	23646
879.97	23383
880.097	23239
880.224	23208
880.351	23162
880.478	23143
880.605	23181
880.732	23269
880.859	23421
880.986	23216
881.112	23204
881.239	23132
881.366	22987
881.493	22972
881.619	22748
881.746	22889
881.872	22854
881.999	22809
882.125	22713
882.252	22687
882.378	22702
882.505	22862
882.631	22565
882.757	22542
882.883	22577
883.01	22485
883.136	22375
883.262	22257
883.388	22249
883.514	22436
883.64	22557
883.766	22276
883.892	22192
884.018	22314
884.143	22382
884.269	22451
884.395	22276
884.52	22162
884.646	22086
884.772	22021
884.897	21975
885.023	22135
885.148	22169
885.274	22291
885.399	22185
885.524	21979
885.65	22040
885.775	21964
885.9	22078
886.025	22246
886.15	22143
886.275	21983
886.4	22036
886.525	22010
886.65	21953
886.775	21960
886.9	22101
887.025	22329
887.149	22128
887.274	21857
887.399	21907
887.523	21880
887.648	21865
887.773	21618
887.897	21865
888.021	21846
888.146	21717
888.27	21895
888.395	22040
888.519	21895
888.643	21812
888.767	21937
888.891	21675
889.015	21595
889.139	21701
889.263	21587
889.387	21660
889.511	21975
889.635	21755
889.759	21660
889.883	21637
890.006	21557
890.13	21755
890.254	21542
890.377	21500
890.501	21359
890.624	21393
890.748	21443
890.871	21363
890.995	21268
891.118	21062
891.241	21157
891.364	21142
891.488	21298
891.611	21096
891.734	21138
891.857	21203
891.98	21157
892.103	21272
892.226	21218
892.349	21123
892.471	20864
892.594	21127
892.717	21226
892.839	21055
892.962	21032
893.085	21157
893.207	21142
893.33	20902
893.452	21055
893.575	21058
893.697	21005
893.819	21157
893.941	21275
894.064	21222
894.186	21005
894.308	21024
894.43	21184
894.552	21260
894.674	21112
894.796	21062
894.918	21058
895.04	20998
895.161	21203
895.283	21036
895.405	20948
895.526	20948
895.648	20998
895.769	21055
895.891	21032
896.012	21199
896.134	21066
896.255	21180
896.376	21005
896.498	21108
896.619	21154
896.74	21108
896.861	21138
896.982	21473
897.103	21519
897.224	21310
897.345	21207
897.466	21184
897.587	21264
897.708	21458
897.828	21291
897.949	21279
898.07	21127
898.19	21036
898.311	21355
898.431	21058
898.552	21256
898.672	21291
898.792	21313
898.913	21325
899.033	21169
899.153	21096
899.273	21093
899.393	20979
899.513	20963
899.633	21036
899.753	21036
899.873	20967
899.993	21051
900.113	20990
900.232	20967
900.352	21013
900.472	20708
900.591	20689
900.711	20861
900.83	20743
900.95	20823
901.069	20815
901.189	20750
901.308	20419
901.427	20419
901.546	20461
901.665	20271
901.784	20400
901.904	20221
902.023	20008
902.141	19879
902.26	19925
902.379	19852
902.498	19932
902.617	19830
902.735	19913
902.854	19620
902.973	19689
903.091	19472
903.21	19426
903.328	19518
903.446	19495
903.565	19304
903.683	19202
903.801	19129
903.919	19228
904.038	19301
904.156	19031
904.274	19187
904.392	18951
904.51	18916
904.627	19042
904.745	19023
904.863	19107
904.981	18798
905.098	18707
905.216	18776
905.334	18772
905.451	18738
905.569	18681
905.686	18757
905.803	18749
905.921	18597
906.038	18555
906.155	18589
906.272	18407
906.389	18319
906.506	18315
906.623	18251
906.74	18232
906.857	18171
906.974	18258
907.091	18178
907.208	18357
907.324	18148
907.441	18224
907.557	17965
907.674	17897
907.79	17885
907.907	17973
908.023	17927
908.139	17878
908.256	17805
908.372	17863
908.488	17821
908.604	17767
908.72	17566
908.836	17668
908.952	17676
909.068	17589
909.184	17748
909.3	17649
909.415	17729
909.531	17585
909.647	17444
909.762	17414
909.878	17277
909.993	17414
910.108	17326
910.224	17261
910.339	17296
910.454	17159
910.57	17117
910.685	17079
910.8	17383
910.915	17277
911.03	17056
911.145	17041
911.259	16930
911.374	16919
911.489	16866
911.604	16706
911.718	16729
911.833	16668
911.947	16592
912.062	16474
912.176	16721
912.291	16649
912.405	16691
912.519	16790
912.633	16854
912.748	16603
912.862	16493
912.976	16493
913.09	16455
913.204	16470
913.318	16382
913.431	16500
913.545	16569
913.659	16637
913.772	16440
913.886	16322
914	16238
914.113	16360
914.226	16367
914.34	16322
914.453	16192
914.566	16291
914.68	16147
914.793	16128
914.906	15922
915.019	15915
915.132	15789
915.245	15869
915.358	15884
915.47	15899
915.583	15869
915.696	15857
915.809	15972
915.921	15994
916.034	15717
916.146	15675
916.259	15751
916.371	15861
916.483	15915
916.595	15690
916.708	15667
916.82	15629
916.932	15633
917.044	15538
917.156	15473
917.268	15424
917.38	15500
917.491	15481
917.603	15561
917.715	15606
917.826	15538
917.938	15408
918.049	15298
918.161	15477
918.272	15545
918.384	15580
918.495	15378
918.606	15245
918.717	15176
918.828	15226
918.939	15275
919.05	15123
919.161	15131
919.272	15024
919.383	15100
919.494	15233
919.604	15363
919.715	15142
919.826	15097
919.936	15123
920.047	15233
920.157	15260
920.267	15302
920.378	15199
920.488	15237
920.598	15310
920.708	15458
920.818	15275
920.928	15287
921.038	15412
921.148	15332
921.258	15085
921.368	15005
921.477	14921
921.587	14899
921.697	14777
921.806	14910
921.916	14777
922.025	14579
922.134	14541
922.244	14499
922.353	14541
922.462	14450
922.571	14347
922.68	14206
922.789	14172
922.898	14191
923.007	14164
923.116	14107
923.224	14195
923.333	14138
923.442	13993
923.55	14020
923.659	14111
923.767	14043
923.876	13970
923.984	14005
924.092	13784
924.201	13906
924.309	13997
924.417	13868
924.525	13807
924.633	13864
924.741	14537
924.849	13643
924.956	13712
925.064	13605
925.172	13502
925.279	13487
925.387	13499
925.494	13502
925.602	13616
925.709	13586
925.816	13430
925.924	13548
926.031	13582
926.138	13578
926.245	13457
926.352	13449
926.459	13499
926.566	13529
926.673	13400
926.779	13320
926.886	13282
926.993	13114
927.099	13088
927.206	13004
927.312	13008
927.419	13190
927.525	13099
927.631	13141
927.737	13008
927.843	12935
927.95	12791
928.056	12844
928.162	12894
928.267	12871
928.373	13552
928.479	12935
928.585	12673
928.69	12871
928.796	12795
928.901	12764
929.007	12642
929.112	12745
929.218	12741
929.323	12642
929.428	12528
929.533	12768
929.638	12559
929.743	12525
929.848	12509
929.953	12467
930.058	12456
930.163	12224
930.267	12266
930.372	12418
930.477	12270
930.581	12490
930.685	12308
930.79	12182
930.894	12152
930.998	12110
931.103	12323
931.207	11885
931.311	11760
931.415	11729
931.519	11486
931.623	11448
