Data from test_V78500241_1903.txt Node
Date: Fri Mar 25 15:54:59 CST 2022
User: usil
Spectrometer: V785-0024
Trigger mode: 0
Integration Time (sec): 4.000000E-1
Scans to average: 1
Nonlinearity correction enabled: false
Boxcar width: 0
Storing dark spectrum: false
XAxis mode: Wavelengths
Number of Pixels in Spectrum: 1024
>>>>>Begin Spectral Data<<<<<
801.071	28599
801.214	28497
801.356	28261
801.499	28215
801.641	28154
801.783	28082
801.926	28173
802.068	28196
802.211	28017
802.353	28150
802.496	27781
802.638	27926
802.78	27880
802.923	27842
803.065	27831
803.208	27789
803.35	27888
803.492	27987
803.635	28150
803.777	27941
803.919	28196
804.061	28527
804.204	28101
804.346	28112
804.488	28082
804.63	27949
804.773	27964
804.915	28158
805.057	28257
805.199	28139
805.341	28200
805.483	28207
805.626	28242
805.768	28109
805.91	28348
806.052	28291
806.194	28242
806.336	28299
806.478	28276
806.62	28295
806.762	28398
806.904	28660
807.046	28774
807.188	28812
807.33	28615
807.472	28736
807.614	28683
807.756	28649
807.898	28424
808.04	28478
808.182	28459
808.324	28675
808.465	28535
808.607	28828
808.749	28980
808.891	29052
809.033	29052
809.174	28816
809.316	29006
809.458	28961
809.6	28866
809.741	29048
809.883	29018
810.025	29326
810.166	29216
810.308	29299
810.45	29117
810.591	29056
810.733	28938
810.875	28999
811.016	28752
811.158	28774
811.299	29128
811.441	29060
811.582	28972
811.724	28957
811.865	28915
812.007	29090
812.148	28991
812.29	28923
812.431	29132
812.573	29242
812.714	29261
812.855	29531
812.997	29638
813.138	29672
813.279	29554
813.421	29379
813.562	29349
813.703	29200
813.845	29220
813.986	28927
814.127	28683
814.268	28634
814.41	28752
814.551	28687
814.692	28637
814.833	28607
814.974	28481
815.115	28687
815.256	28432
815.397	28527
815.539	28531
815.68	28497
815.821	28481
815.962	28356
816.103	28470
816.244	28265
816.385	28325
816.526	28306
816.666	28147
816.807	27899
816.948	27907
817.089	28040
817.23	27876
817.371	27816
817.512	27884
817.653	27819
817.793	27857
817.934	27774
818.075	28074
818.216	27956
818.356	27873
818.497	27835
818.638	27644
818.778	27789
818.919	27785
819.06	27812
819.2	27846
819.341	27854
819.481	27945
819.622	27975
819.762	28188
819.903	28284
820.043	28169
820.184	28124
820.324	28048
820.465	28128
820.605	28070
820.746	27899
820.886	27899
821.026	28090
821.167	28055
821.307	28097
821.447	28090
821.588	27846
821.728	27770
821.868	27496
822.008	27393
822.149	27447
822.289	27370
822.429	27051
822.569	27131
822.709	27192
822.849	27028
822.99	26921
823.13	26872
823.27	26773
823.41	26712
823.55	26644
823.69	26693
823.83	26720
823.97	26670
824.11	26537
824.25	26621
824.389	26393
824.529	26590
824.669	26537
824.809	26765
824.949	26678
825.089	26632
825.228	26609
825.368	26457
825.508	26492
825.648	26545
825.787	26476
825.927	26537
826.067	26488
826.206	26419
826.346	26419
826.485	26431
826.625	26549
826.765	26587
826.904	26370
827.044	26183
827.183	26134
827.323	26172
827.462	26145
827.601	26176
827.741	26084
827.88	26180
828.02	26100
828.159	26153
828.298	26081
828.437	26324
828.577	26168
828.716	26187
828.855	26077
828.994	26096
829.134	25814
829.273	25978
829.412	25909
829.551	25746
829.69	25841
829.829	25940
829.968	25940
830.107	25902
830.246	25906
830.385	25890
830.524	25795
830.663	25597
830.802	25567
830.941	25563
831.08	25468
831.219	25537
831.357	25495
831.496	25715
831.635	25506
831.774	25453
831.913	25346
832.051	25213
832.19	25285
832.329	25308
832.467	25160
832.606	25057
832.744	25152
832.883	25095
833.022	25099
833.16	25088
833.299	25263
833.437	25179
833.576	25148
833.714	25168
833.852	25392
833.991	25320
834.129	25270
834.267	25278
834.406	25129
834.544	25217
834.682	25217
834.821	25308
834.959	25278
835.097	25206
835.235	25240
835.373	25285
835.511	25156
835.65	25038
835.788	25080
835.926	24981
836.064	24817
836.202	24787
836.34	24989
836.478	25190
836.615	24913
836.753	25053
836.891	25042
837.029	25069
837.167	25046
837.305	24920
837.443	24947
837.58	24837
837.718	24954
837.856	24958
837.993	24734
838.131	24810
838.269	24669
838.406	24795
838.544	24673
838.681	24429
838.819	24559
838.956	24361
839.094	24243
839.231	24399
839.369	24536
839.506	24681
839.643	24525
839.781	24376
839.918	24285
840.055	24350
840.193	24232
840.33	24152
840.467	24243
840.604	24266
840.742	24559
840.879	24140
841.016	24117
841.153	24022
841.29	24452
841.427	24270
841.564	24369
841.701	24228
841.838	24133
841.975	24144
842.112	24076
842.249	23950
842.385	24114
842.522	24144
842.659	24121
842.796	23996
842.933	23916
843.069	23923
843.206	23942
843.343	23977
843.479	24171
843.616	24038
843.752	23863
843.889	23832
844.025	23729
844.162	23703
844.298	23847
844.435	23600
844.571	23661
844.708	23707
844.844	23980
844.98	23802
845.117	23958
845.253	23729
845.389	23649
845.525	23752
845.661	23657
845.798	23547
845.934	23547
846.07	23459
846.206	23509
846.342	23718
846.478	23459
846.614	23261
846.75	23166
846.886	23064
847.022	23299
847.158	23189
847.294	23223
847.429	23265
847.565	23105
847.701	23433
847.837	22869
847.972	23018
848.108	22892
848.244	22965
848.379	22869
848.515	22740
848.65	22706
848.786	22748
848.921	22755
849.057	22900
849.192	22828
849.328	22919
849.463	22744
849.598	22805
849.734	22599
849.869	22645
850.004	22535
850.14	22584
850.275	22569
850.41	22485
850.545	22519
850.68	22592
850.815	22459
850.95	22523
851.085	22744
851.22	22668
851.355	22554
851.49	22603
851.625	22440
851.76	22519
851.895	22519
852.03	22428
852.165	22611
852.299	22569
852.434	22607
852.569	22615
852.703	22599
852.838	22580
852.973	22744
853.107	22687
853.242	22413
853.376	22367
853.511	22348
853.645	22382
853.78	22379
853.914	22348
854.048	22246
854.183	22386
854.317	22299
854.451	22626
854.585	22424
854.72	22348
854.854	22516
854.988	22207
855.122	22413
855.256	22253
855.39	22303
855.524	22421
855.658	22470
855.792	22421
855.926	22272
856.06	22432
856.194	22481
856.327	22386
856.461	22306
856.595	22367
856.729	22230
856.862	22379
856.996	22405
857.13	22333
857.263	22470
857.397	22432
857.53	22299
857.664	22238
857.797	22557
857.931	22550
858.064	22447
858.197	22497
858.331	22405
858.464	22363
858.597	22257
858.731	22386
858.864	22382
858.997	22360
859.13	22398
859.263	22352
859.396	22436
859.529	22356
859.662	22386
859.795	22314
859.928	22325
860.061	22554
860.194	22542
860.327	22561
860.46	22394
860.592	22565
860.725	22550
860.858	22634
860.99	22462
861.123	22192
861.256	22310
861.388	22417
861.521	23178
861.653	22188
861.786	22166
861.918	22169
862.05	22226
862.183	22360
862.315	22344
862.447	22398
862.58	22375
862.712	22188
862.844	22048
862.976	22177
863.108	22116
863.24	22611
863.372	22105
863.504	22067
863.636	22013
863.768	22070
863.9	22067
864.032	22017
864.164	22048
864.296	22169
864.428	22226
864.559	22314
864.691	22013
864.823	22090
864.954	22093
865.086	22090
865.217	21953
865.349	21873
865.48	21960
865.612	22021
865.743	22131
865.875	21975
866.006	21960
866.137	21941
866.269	22063
866.4	22051
866.531	21770
866.662	21846
866.793	21717
866.924	21888
867.055	21941
867.186	21956
867.317	21937
867.448	21747
867.579	21888
867.71	21823
867.841	21797
867.972	21915
868.103	21903
868.233	21968
868.364	21876
868.495	22097
868.625	22097
868.756	22207
868.886	22010
869.017	22147
869.147	22272
869.278	22272
869.408	21972
869.539	22036
869.669	22200
869.799	22150
869.929	22185
870.06	22310
870.19	22466
870.32	22363
870.45	22497
870.58	22440
870.71	22577
870.84	22683
870.97	22443
871.1	22592
871.23	22713
871.36	22717
871.489	22687
871.619	22668
871.749	22664
871.879	22615
872.008	22915
872.138	22771
872.267	22755
872.397	22637
872.526	22596
872.656	22512
872.785	22626
872.915	22790
873.044	22873
873.173	22831
873.303	22885
873.432	22672
873.561	22831
873.69	22809
873.819	22885
873.948	22729
874.077	22611
874.206	22717
874.335	22771
874.464	22877
874.593	22927
874.722	22957
874.851	23022
874.979	23067
875.108	23006
875.237	22946
875.365	22805
875.494	22919
875.623	22957
875.751	22881
875.88	23018
876.008	23147
876.136	23113
876.265	23273
876.393	23417
876.521	23334
876.65	23444
876.778	23254
876.906	23235
877.034	23284
877.162	23379
877.29	23090
877.418	23246
877.546	23254
877.674	23258
877.802	23288
877.93	23284
878.058	23280
878.185	23044
878.313	23189
878.441	23387
878.568	23155
878.696	23178
878.824	23296
878.951	23406
879.079	23387
879.206	23592
879.333	23440
879.461	23395
879.588	23345
879.715	23455
879.842	23589
879.97	23326
880.097	23098
880.224	23022
880.351	23083
880.478	23121
880.605	23102
880.732	23212
880.859	23337
880.986	23105
881.112	23140
881.239	22934
881.366	22763
881.493	22664
881.619	22645
881.746	22752
881.872	22672
881.999	22611
882.125	22542
882.252	22656
882.378	22573
882.505	22664
882.631	22554
882.757	22318
882.883	22405
883.01	22478
883.136	22276
883.262	22314
883.388	22249
883.514	22443
883.64	22367
883.766	22322
883.892	22067
884.018	22207
884.143	22306
884.269	22356
884.395	22059
884.52	22070
884.646	22006
884.772	21861
884.897	21869
885.023	22040
885.148	22086
885.274	22204
885.399	22048
885.524	21994
885.65	22006
885.775	21869
885.9	21873
886.025	22124
886.15	22143
886.275	21892
886.4	21956
886.525	22006
886.65	21945
886.775	21861
886.9	22158
887.025	21991
887.149	21972
887.274	21823
887.399	21739
887.523	21675
887.648	21675
887.773	21599
887.897	21686
888.021	21747
888.146	21732
888.27	21956
888.395	21751
888.519	21827
888.643	21709
888.767	21835
888.891	21622
889.015	21443
889.139	21595
889.263	21496
889.387	21724
889.511	21785
889.635	21671
889.759	21393
889.883	21382
890.006	21599
890.13	21622
890.254	21481
890.377	21443
890.501	21218
890.624	21260
890.748	21252
890.871	21138
890.995	21104
891.118	20967
891.241	21020
891.364	21055
891.488	21237
891.611	21112
891.734	21154
891.857	21127
891.98	21142
892.103	21142
892.226	20967
892.349	21108
892.471	20773
892.594	21001
892.717	21093
892.839	20982
892.962	20975
893.085	21077
893.207	20971
893.33	20838
893.452	20937
893.575	20998
893.697	20952
893.819	21108
893.941	21173
894.064	21055
894.186	20944
894.308	20994
894.43	21051
894.552	21112
894.674	21032
894.796	20876
894.918	20925
895.04	20815
895.161	20921
895.283	21009
895.405	21020
895.526	20815
895.648	20887
895.769	20845
895.891	21028
896.012	20887
896.134	20963
896.255	21039
896.376	20899
896.498	20960
896.619	20975
896.74	20975
896.861	21039
896.982	21264
897.103	21359
897.224	21298
897.345	21135
897.466	21241
897.587	21192
897.708	21298
897.828	21138
897.949	21093
898.07	21032
898.19	21165
898.311	21351
898.431	21195
898.552	21108
898.672	21199
898.792	21161
898.913	21260
899.033	21058
899.153	21013
899.273	20925
899.393	20944
899.513	20902
899.633	20921
899.753	21017
899.873	20891
899.993	20914
900.113	20902
900.232	20967
900.352	20785
900.472	20693
900.591	20708
900.711	20693
900.83	20549
900.95	20663
901.069	20800
901.189	20537
901.308	20393
901.427	20237
901.546	20199
901.665	20122
901.784	20267
901.904	20088
902.023	19970
902.141	19837
902.26	19788
902.379	19849
902.498	19757
902.617	19658
902.735	19871
902.854	19753
902.973	19613
903.091	19506
903.21	19510
903.328	19384
903.446	19339
903.565	19244
903.683	19301
903.801	19069
903.919	19126
904.038	19183
904.156	19008
904.274	19038
904.392	18973
904.51	18837
904.627	18897
904.745	18962
904.863	18951
904.981	18783
905.098	18620
905.216	18669
905.334	18646
905.451	18730
905.569	18604
905.686	18673
905.803	18635
905.921	18467
906.038	18445
906.155	18525
906.272	18323
906.389	18361
906.506	18186
906.623	18167
906.74	18144
906.857	18068
906.974	18159
907.091	18239
907.208	18174
907.324	18190
907.441	18045
907.557	17973
907.674	17847
907.79	17790
907.907	17771
908.023	17847
908.139	17824
908.256	17710
908.372	17775
908.488	17828
908.604	17596
908.72	17592
908.836	17646
908.952	17528
909.068	17619
909.184	17733
909.3	17543
909.415	17539
909.531	17547
909.647	17311
909.762	17307
909.878	17246
909.993	17341
910.108	17288
910.224	17246
910.339	17242
910.454	17086
910.57	17147
910.685	17010
910.8	17151
910.915	17159
911.03	17045
911.145	16949
911.259	16828
911.374	16843
911.489	16809
911.604	16713
911.718	16641
911.833	16588
911.947	16485
912.062	16459
912.176	16649
912.291	16546
912.405	16542
912.519	16748
912.633	16812
912.748	16565
912.862	16592
912.976	16459
913.09	16257
913.204	16424
913.318	16466
913.431	16459
913.545	16512
913.659	16531
913.772	16363
913.886	16284
914	16219
914.113	16253
914.226	16310
914.34	16207
914.453	16131
914.566	16192
914.68	16063
914.793	16029
914.906	15888
915.019	15762
915.132	15857
915.245	15690
915.358	15850
915.47	15766
915.583	15770
915.696	15713
915.809	15857
915.921	15876
916.034	15823
916.146	15644
916.259	15580
916.371	15816
916.483	15690
916.595	15572
916.708	15622
916.82	15580
916.932	15515
917.044	15576
917.156	15412
917.268	15374
917.38	15355
917.491	15287
917.603	15424
917.715	15469
917.826	15393
917.938	15287
918.049	15264
918.161	15199
918.272	15477
918.384	15401
918.495	15397
918.606	15047
918.717	15108
918.828	15180
918.939	15218
919.05	15085
919.161	15089
919.272	14933
919.383	15047
919.494	15077
919.604	15329
919.715	15119
919.826	15058
919.936	15058
920.047	15138
920.157	15070
920.267	15237
920.378	15058
920.488	15043
920.598	15233
920.708	15332
920.818	15245
920.928	15218
921.038	15378
921.148	15313
921.258	15047
921.368	14941
921.477	14819
921.587	14914
921.697	14750
921.806	14842
921.916	14598
922.025	14507
922.134	14442
922.244	14377
922.353	14438
922.462	14389
922.571	14248
922.68	14024
922.789	14058
922.898	14077
923.007	14024
923.116	14138
923.224	14027
923.333	14039
923.442	13909
923.55	13871
923.659	13833
923.767	13887
923.876	13776
923.984	13868
924.092	13772
924.201	13833
924.309	13826
924.417	13833
924.525	13860
924.633	13845
924.741	14484
924.849	13643
924.956	13647
925.064	13460
925.172	13400
925.279	13411
925.387	13556
925.494	13499
925.602	13655
925.709	13521
925.816	13441
925.924	13441
926.031	13601
926.138	13407
926.245	13438
926.352	13266
926.459	13529
926.566	13571
926.673	13407
926.779	13259
926.886	13168
926.993	13057
927.099	12989
927.206	12958
927.312	12905
927.419	12981
927.525	12996
927.631	13099
927.737	12901
927.843	12909
927.95	12745
928.056	12897
928.162	12859
928.267	12875
928.373	13445
928.479	12894
928.585	12730
928.69	12795
928.796	12795
928.901	12654
929.007	12536
929.112	12741
929.218	12654
929.323	12597
929.428	12547
929.533	12650
929.638	12456
929.743	12509
929.848	12509
929.953	12475
930.058	12456
930.163	12216
930.267	12163
930.372	12323
930.477	12239
930.581	12407
930.685	12258
930.79	12098
930.894	12190
930.998	12019
931.103	12175
931.207	11866
931.311	11733
931.415	11665
931.519	11448
931.623	11501
