Data from test_V78500241_3126.txt Node
Date: Fri Mar 25 16:03:27 CST 2022
User: usil
Spectrometer: V785-0024
Trigger mode: 0
Integration Time (sec): 4.000000E-1
Scans to average: 1
Nonlinearity correction enabled: false
Boxcar width: 0
Storing dark spectrum: false
XAxis mode: Wavelengths
Number of Pixels in Spectrum: 1024
>>>>>Begin Spectral Data<<<<<
801.071	28957
801.214	28820
801.356	28561
801.499	28527
801.641	28557
801.783	28485
801.926	28436
802.068	28489
802.211	28375
802.353	28478
802.496	28147
802.638	28196
802.78	28082
802.923	28101
803.065	28158
803.208	28234
803.35	28268
803.492	28348
803.635	28398
803.777	28337
803.919	28447
804.061	28831
804.204	28443
804.346	28287
804.488	28363
804.63	28261
804.773	28428
804.915	28451
805.057	28398
805.199	28352
805.341	28649
805.483	28599
805.626	28466
805.768	28451
805.91	28634
806.052	28580
806.194	28596
806.336	28858
806.478	28512
806.62	28580
806.762	28653
806.904	28995
807.046	29109
807.188	29060
807.33	29147
807.472	29143
807.614	29003
807.756	29102
807.898	28923
808.04	28866
808.182	28881
808.324	28816
808.465	29037
808.607	29242
808.749	29235
808.891	29265
809.033	29402
809.174	29311
809.316	29326
809.458	29379
809.6	29246
809.741	29170
809.883	29417
810.025	29634
810.166	29596
810.308	29642
810.45	29608
810.591	29417
810.733	29334
810.875	29318
811.016	29223
811.158	29273
811.299	29524
811.441	29493
811.582	29543
811.724	29311
811.865	29322
812.007	29315
812.148	29505
812.29	29337
812.431	29433
812.573	29729
812.714	29649
812.855	29851
812.997	29813
813.138	30079
813.279	29954
813.421	29961
813.562	29718
813.703	29722
813.845	29573
813.986	29444
814.127	29052
814.268	29132
814.41	29025
814.551	29037
814.692	29018
814.833	28942
814.974	29022
815.115	29044
815.256	28869
815.397	28850
815.539	28862
815.68	28919
815.821	28721
815.962	28824
816.103	28759
816.244	28771
816.385	28729
816.526	28580
816.666	28394
816.807	28356
816.948	28440
817.089	28459
817.23	28394
817.371	28284
817.512	28284
817.653	28440
817.793	28314
817.934	28306
818.075	28360
818.216	28409
818.356	28253
818.497	28093
818.638	28067
818.778	28078
818.919	28086
819.06	28169
819.2	28257
819.341	28322
819.481	28352
819.622	28634
819.762	28702
819.903	28592
820.043	28607
820.184	28668
820.324	28497
820.465	28554
820.605	28440
820.746	28485
820.886	28409
821.026	28485
821.167	28485
821.307	28554
821.447	28401
821.588	28185
821.728	28276
821.868	27983
822.008	27945
822.149	27956
822.289	27816
822.429	27622
822.569	27481
822.709	27534
822.849	27260
822.99	27485
823.13	27237
823.27	27427
823.41	27222
823.55	27047
823.69	27252
823.83	27264
823.97	27062
824.11	27051
824.25	26967
824.389	26994
824.529	27005
824.669	26979
824.809	27070
824.949	27165
825.089	27112
825.228	27127
825.368	26975
825.508	26925
825.648	26880
825.787	27051
825.927	26944
826.067	26834
826.206	26918
826.346	26986
826.485	26940
826.625	26944
826.765	26990
826.904	27005
827.044	26682
827.183	26697
827.323	26621
827.462	26735
827.601	26708
827.741	26499
827.88	26701
828.02	26465
828.159	26568
828.298	26587
828.437	26678
828.577	26530
828.716	26670
828.855	26549
828.994	26423
829.134	26282
829.273	26499
829.412	26134
829.551	26240
829.69	26313
829.829	26393
829.968	26370
830.107	26313
830.246	26351
830.385	26320
830.524	26199
830.663	26191
830.802	26119
830.941	25814
831.08	25837
831.219	26005
831.357	25986
831.496	26168
831.635	25925
831.774	25856
831.913	25875
832.051	25670
832.19	25647
832.329	25871
832.467	25784
832.606	25521
832.744	25674
832.883	25521
833.022	25571
833.16	25575
833.299	25780
833.437	25605
833.576	25651
833.714	25499
833.852	25761
833.991	25700
834.129	25696
834.267	25761
834.406	25632
834.544	25731
834.682	25761
834.821	25662
834.959	25803
835.097	25677
835.235	25666
835.373	25666
835.511	25609
835.65	25502
835.788	25460
835.926	25373
836.064	25259
836.202	25335
836.34	25521
836.478	25556
836.615	25422
836.753	25438
836.891	25537
837.029	25472
837.167	25411
837.305	25392
837.443	25422
837.58	25392
837.718	25396
837.856	25362
837.993	25213
838.131	25350
838.269	25122
838.406	25263
838.544	25091
838.681	24875
838.819	24875
838.956	24821
839.094	24688
839.231	24738
839.369	24920
839.506	25148
839.643	24966
839.781	24802
839.918	24768
840.055	24665
840.193	24642
840.33	24669
840.467	24673
840.604	24684
840.742	25057
840.879	24399
841.016	24635
841.153	24589
841.29	24817
841.427	24658
841.564	24673
841.701	24540
841.838	24631
841.975	24509
842.112	24521
842.249	24509
842.385	24475
842.522	24623
842.659	24407
842.796	24445
842.933	24456
843.069	24346
843.206	24403
843.343	24517
843.479	24353
843.616	24460
843.752	24239
843.889	24266
844.025	24315
844.162	24079
844.298	24273
844.435	24171
844.571	24254
844.708	24152
844.844	24376
844.98	24292
845.117	24155
845.253	24167
845.389	24053
845.525	23984
845.661	24117
845.798	24003
845.934	24026
846.07	23882
846.206	23851
846.342	23946
846.478	23897
846.614	23714
846.75	23623
846.886	23646
847.022	23653
847.158	23684
847.294	23718
847.429	23630
847.565	23623
847.701	23775
847.837	23528
847.972	23425
848.108	23406
848.244	23402
848.379	23315
848.515	23258
848.65	23189
848.786	23185
848.921	23193
849.057	23299
849.192	23242
849.328	23185
849.463	23231
849.598	23273
849.734	23181
849.869	23121
850.004	22938
850.14	23124
850.275	23041
850.41	22919
850.545	22854
850.68	23075
850.815	23044
850.95	22953
851.085	23170
851.22	23067
851.355	23014
851.49	22961
851.625	22991
851.76	22957
851.895	22957
852.03	22961
852.165	22911
852.299	23083
852.434	23029
852.569	23071
852.703	22965
852.838	22961
852.973	23090
853.107	22972
853.242	22915
853.376	22858
853.511	22691
853.645	22774
853.78	22881
853.914	22816
854.048	22752
854.183	22885
854.317	22869
854.451	22953
854.585	22908
854.72	22759
854.854	22839
854.988	22805
855.122	22873
855.256	22771
855.39	22763
855.524	22828
855.658	22839
855.792	22858
855.926	22805
856.06	22892
856.194	22774
856.327	22980
856.461	22778
856.595	22702
856.729	22721
856.862	22968
856.996	22938
857.13	22892
857.263	22896
857.397	23006
857.53	22892
857.664	22801
857.797	22820
857.931	22934
858.064	22984
858.197	23075
858.331	22934
858.464	22713
858.597	22774
858.731	22740
858.864	22767
858.997	22744
859.13	22942
859.263	22839
859.396	22862
859.529	22710
859.662	22664
859.795	22713
859.928	22839
860.061	22930
860.194	23037
860.327	22854
860.46	22843
860.592	22934
860.725	23033
860.858	22946
860.99	22774
861.123	22698
861.256	22793
861.388	22831
861.521	23387
861.653	22744
861.786	22634
861.918	22687
862.05	22675
862.183	22778
862.315	22672
862.447	22656
862.58	22839
862.712	22592
862.844	22451
862.976	22717
863.108	22626
863.24	22919
863.372	22500
863.504	22565
863.636	22428
863.768	22580
863.9	22527
864.032	22466
864.164	22462
864.296	22626
864.428	22736
864.559	22546
864.691	22516
864.823	22512
864.954	22592
865.086	22455
865.217	22497
865.349	22375
865.48	22447
865.612	22424
865.743	22516
865.875	22451
866.006	22265
866.137	22363
866.269	22421
866.4	22436
866.531	22382
866.662	22306
866.793	22226
866.924	22287
867.055	22276
867.186	22440
867.317	22303
867.448	22238
867.579	22375
867.71	22284
867.841	22322
867.972	22379
868.103	22436
868.233	22295
868.364	22344
868.495	22432
868.625	22531
868.756	22577
868.886	22508
869.017	22637
869.147	22580
869.278	22672
869.408	22611
869.539	22455
869.669	22637
869.799	22717
869.929	22569
870.06	22607
870.19	22847
870.32	22854
870.45	22965
870.58	23006
870.71	23064
870.84	22984
870.97	23067
871.1	22961
871.23	23189
871.36	23216
871.489	23197
871.619	23121
871.749	23231
871.879	23155
872.008	23345
872.138	23277
872.267	23216
872.397	23022
872.526	23075
872.656	23014
872.785	23113
872.915	23204
873.044	23223
873.173	23113
873.303	23341
873.432	23200
873.561	23330
873.69	23208
873.819	23200
873.948	23227
874.077	23250
874.206	23067
874.335	23223
874.464	23383
874.593	23417
874.722	23337
874.851	23444
874.979	23429
875.108	23436
875.237	23372
875.365	23296
875.494	23261
875.623	23592
875.751	23391
875.88	23425
876.008	23505
876.136	23600
876.265	23939
876.393	23897
876.521	23821
876.65	23912
876.778	23855
876.906	23878
877.034	23809
877.162	23863
877.29	23824
877.418	23752
877.546	23767
877.674	23786
877.802	23657
877.93	23676
878.058	23672
878.185	23630
878.313	23657
878.441	23737
878.568	23512
878.696	23710
878.824	23805
878.951	23714
879.079	23961
879.206	24057
879.333	23843
879.461	23722
879.588	23786
879.715	23920
879.842	24068
879.97	23729
880.097	23596
880.224	23531
880.351	23592
880.478	23592
880.605	23505
880.732	23623
880.859	23745
880.986	23585
881.112	23619
881.239	23356
881.366	23258
881.493	23162
881.619	23216
881.746	23200
881.872	23124
881.999	23041
882.125	22946
882.252	23121
882.378	23083
882.505	23261
882.631	22965
882.757	22839
882.883	22873
883.01	22771
883.136	22710
883.262	22694
883.388	22565
883.514	22744
883.64	22850
883.766	22706
883.892	22478
884.018	22596
884.143	22687
884.269	22923
884.395	22565
884.52	22344
884.646	22352
884.772	22413
884.897	22322
885.023	22337
885.148	22436
885.274	22508
885.399	22538
885.524	22440
885.65	22421
885.775	22344
885.9	22367
886.025	22497
886.15	22500
886.275	22352
886.4	22337
886.525	22333
886.65	22284
886.775	22447
886.9	22481
887.025	22721
887.149	22272
887.274	22196
887.399	22219
887.523	22268
887.648	22029
887.773	22166
887.897	22295
888.021	22226
888.146	22109
888.27	22204
888.395	22226
888.519	22143
888.643	22131
888.767	22188
888.891	22051
889.015	21964
889.139	22032
889.263	21975
889.387	21994
889.511	22097
889.635	22090
889.759	21994
889.883	21937
890.006	22006
890.13	22116
890.254	21819
890.377	21800
890.501	21781
890.624	21694
890.748	21720
890.871	21667
890.995	21469
891.118	21473
891.241	21458
891.364	21469
891.488	21488
891.611	21431
891.734	21473
891.857	21622
891.98	21435
892.103	21580
892.226	21477
892.349	21507
892.471	21306
892.594	21393
892.717	21416
892.839	21367
892.962	21420
893.085	21492
893.207	21378
893.33	21348
893.452	21294
893.575	21359
893.697	21245
893.819	21523
893.941	21549
894.064	21397
894.186	21306
894.308	21344
894.43	21420
894.552	21424
894.674	21340
894.796	21435
894.918	21351
895.04	21252
895.161	21340
895.283	21435
895.405	21268
895.526	21412
895.648	21287
895.769	21424
895.891	21428
896.012	21599
896.134	21405
896.255	21378
896.376	21329
896.498	21447
896.619	21447
896.74	21370
896.861	21462
896.982	21641
897.103	21705
897.224	21682
897.345	21603
897.466	21576
897.587	21523
897.708	21591
897.828	21454
897.949	21492
898.07	21351
898.19	21462
898.311	21576
898.431	21454
898.552	21488
898.672	21526
898.792	21534
898.913	21583
899.033	21553
899.153	21367
899.273	21287
899.393	21222
899.513	21348
899.633	21192
899.753	21272
899.873	21230
899.993	21348
900.113	21100
900.232	21169
900.352	21150
900.472	21077
900.591	20994
900.711	20975
900.83	20937
900.95	21161
901.069	21237
901.189	20902
901.308	20693
901.427	20579
901.546	20522
901.665	20693
901.784	20518
901.904	20461
902.023	20427
902.141	20199
902.26	20157
902.379	20210
902.498	20172
902.617	20138
902.735	20069
902.854	20062
902.973	20115
903.091	19807
903.21	19651
903.328	19784
903.446	19655
903.565	19586
903.683	19594
903.801	19460
903.919	19529
904.038	19571
904.156	19350
904.274	19304
904.392	19217
904.51	19190
904.627	19236
904.745	19331
904.863	19297
904.981	18951
905.098	18973
905.216	19004
905.334	18993
905.451	19000
905.569	18966
905.686	18951
905.803	18943
905.921	18738
906.038	18852
906.155	18810
906.272	18582
906.389	18646
906.506	18536
906.623	18456
906.74	18544
906.857	18300
906.974	18391
907.091	18517
907.208	18658
907.324	18544
907.441	18372
907.557	18330
907.674	18171
907.79	18171
907.907	18209
908.023	18216
908.139	18167
908.256	18201
908.372	18197
908.488	17969
908.604	17916
908.72	17828
908.836	17931
908.952	17946
909.068	18007
909.184	18015
909.3	17897
909.415	17973
909.531	17904
909.647	17653
909.762	17581
909.878	17630
909.993	17577
910.108	17566
910.224	17600
910.339	17608
910.454	17516
910.57	17292
910.685	17345
910.8	17611
910.915	17554
911.03	17364
911.145	17136
911.259	17258
911.374	17208
911.489	17117
911.604	16995
911.718	16919
911.833	16923
911.947	16900
912.062	16774
912.176	16919
912.291	16915
912.405	16900
912.519	17083
912.633	17086
912.748	16911
912.862	16904
912.976	16767
913.09	16653
913.204	16782
913.318	16831
913.431	16801
913.545	16812
913.659	16755
913.772	16645
913.886	16588
914	16603
914.113	16519
914.226	16599
914.34	16637
914.453	16413
914.566	16474
914.68	16447
914.793	16333
914.906	16158
915.019	16162
915.132	16013
915.245	16093
915.358	16036
915.47	16021
915.583	16074
915.696	16078
915.809	16105
915.921	16234
916.034	16025
916.146	15915
916.259	15975
916.371	16067
916.483	15937
916.595	15808
916.708	15880
916.82	15968
916.932	15895
917.044	15816
917.156	15846
917.268	15713
917.38	15713
917.491	15622
917.603	15728
917.715	15819
917.826	15808
917.938	15720
918.049	15553
918.161	15644
918.272	15732
918.384	15694
918.495	15663
918.606	15481
918.717	15348
918.828	15359
918.939	15496
919.05	15336
919.161	15310
919.272	15279
919.383	15256
919.494	15408
919.604	15629
919.715	15283
919.826	15336
919.936	15386
920.047	15416
920.157	15397
920.267	15603
920.378	15462
920.488	15348
920.598	15450
920.708	15641
920.818	15405
920.928	15435
921.038	15599
921.148	15618
921.258	15287
921.368	15272
921.477	15100
921.587	15089
921.697	14960
921.806	15123
921.916	14906
922.025	14857
922.134	14727
922.244	14773
922.353	14785
922.462	14648
922.571	14480
922.68	14358
922.789	14282
922.898	14328
923.007	14286
923.116	14396
923.224	14309
923.333	14332
923.442	14317
923.55	14233
923.659	14153
923.767	14290
923.876	14134
923.984	14218
924.092	14084
924.201	14199
924.309	14183
924.417	14138
924.525	13978
924.633	14065
924.741	14785
924.849	13723
924.956	13967
925.064	13799
925.172	13708
925.279	13753
925.387	13761
925.494	13788
925.602	13795
925.709	13776
925.816	13628
925.924	13693
926.031	13734
926.138	13620
926.245	13765
926.352	13643
926.459	13704
926.566	13723
926.673	13567
926.779	13556
926.886	13438
926.993	13358
927.099	13278
927.206	13274
927.312	13187
927.419	13384
927.525	13240
927.631	13263
927.737	13160
927.843	13202
927.95	13057
928.056	13126
928.162	13129
928.267	13076
928.373	13776
928.479	13194
928.585	12916
928.69	13004
928.796	13000
928.901	12916
929.007	12787
929.112	12856
929.218	12924
929.323	12821
929.428	12783
929.533	12890
929.638	12707
929.743	12669
929.848	12798
929.953	12768
930.058	12639
930.163	12509
930.267	12490
930.372	12608
930.477	12483
930.581	12650
930.685	12452
930.79	12426
930.894	12308
930.998	12315
931.103	12441
931.207	12125
931.311	12019
931.415	11893
931.519	11760
931.623	11745
