Data from test_V78500241_2651.txt Node
Date: Fri Mar 25 16:00:09 CST 2022
User: usil
Spectrometer: V785-0024
Trigger mode: 0
Integration Time (sec): 4.000000E-1
Scans to average: 1
Nonlinearity correction enabled: false
Boxcar width: 0
Storing dark spectrum: false
XAxis mode: Wavelengths
Number of Pixels in Spectrum: 1024
>>>>>Begin Spectral Data<<<<<
801.071	28656
801.214	28554
801.356	28382
801.499	28352
801.641	28352
801.783	28295
801.926	28333
802.068	28310
802.211	28211
802.353	28188
802.496	27972
802.638	27876
802.78	27854
802.923	27949
803.065	27850
803.208	27781
803.35	27888
803.492	28002
803.635	28112
803.777	28082
803.919	28207
804.061	28401
804.204	28124
804.346	28143
804.488	27979
804.63	28181
804.773	28086
804.915	28226
805.057	28295
805.199	28242
805.341	28314
805.483	28341
805.626	28401
805.768	28253
805.91	28226
806.052	28314
806.194	28177
806.336	28455
806.478	28367
806.62	28409
806.762	28504
806.904	28634
807.046	28771
807.188	28820
807.33	28824
807.472	28919
807.614	28611
807.756	28839
807.898	28653
808.04	28527
808.182	28512
808.324	28824
808.465	28816
808.607	28736
808.749	29044
808.891	29071
809.033	29204
809.174	29223
809.316	29067
809.458	28991
809.6	28915
809.741	29083
809.883	29109
810.025	29410
810.166	29334
810.308	29326
810.45	29265
810.591	29235
810.733	29086
810.875	28919
811.016	29041
811.158	28946
811.299	29117
811.441	29193
811.582	29124
811.724	29109
811.865	28927
812.007	29014
812.148	29083
812.29	29128
812.431	29227
812.573	29353
812.714	29364
812.855	29535
812.997	29646
813.138	29748
813.279	29623
813.421	29539
813.562	29554
813.703	29334
813.845	29307
813.986	28896
814.127	28740
814.268	28771
814.41	28740
814.551	28706
814.692	28820
814.833	28668
814.974	28744
815.115	28615
815.256	28782
815.397	28550
815.539	28584
815.68	28546
815.821	28451
815.962	28626
816.103	28535
816.244	28325
816.385	28325
816.526	28318
816.666	28116
816.807	28048
816.948	28101
817.089	27968
817.23	28147
817.371	27941
817.512	28074
817.653	28109
817.793	28074
817.934	28086
818.075	28040
818.216	28120
818.356	28120
818.497	27922
818.638	27774
818.778	27781
818.919	27743
819.06	27842
819.2	27998
819.341	28086
819.481	28051
819.622	28234
819.762	28367
819.903	28291
820.043	28386
820.184	28219
820.324	28154
820.465	28192
820.605	28333
820.746	28109
820.886	28040
821.026	28166
821.167	28128
821.307	28120
821.447	28101
821.588	27991
821.728	28010
821.868	27694
822.008	27530
822.149	27580
822.289	27542
822.429	27317
822.569	27256
822.709	27108
822.849	27001
822.99	27233
823.13	26902
823.27	26906
823.41	26883
823.55	26933
823.69	26838
823.83	26880
823.97	26765
824.11	26450
824.25	26533
824.389	26545
824.529	26765
824.669	26720
824.809	26765
824.949	26826
825.089	26777
825.228	26769
825.368	26568
825.508	26473
825.648	26564
825.787	26545
825.927	26651
826.067	26431
826.206	26476
826.346	26507
826.485	26648
826.625	26564
826.765	26571
826.904	26632
827.044	26412
827.183	26328
827.323	26282
827.462	26259
827.601	26320
827.741	26301
827.88	26282
828.02	26233
828.159	26248
828.298	26305
828.437	26336
828.577	26153
828.716	26332
828.855	26214
828.994	25879
829.134	25966
829.273	25959
829.412	26005
829.551	25868
829.69	26027
829.829	26035
829.968	26103
830.107	26088
830.246	26058
830.385	25795
830.524	25902
830.663	25791
830.802	25601
830.941	25601
831.08	25643
831.219	25643
831.357	25647
831.496	25814
831.635	25647
831.774	25533
831.913	25335
832.051	25411
832.19	25293
832.329	25339
832.467	25316
832.606	25148
832.744	25168
832.883	25308
833.022	25240
833.16	25259
833.299	25228
833.437	25331
833.576	25358
833.714	25400
833.852	25419
833.991	25339
834.129	25453
834.267	25274
834.406	25274
834.544	25377
834.682	25297
834.821	25259
834.959	25529
835.097	25270
835.235	25400
835.373	25312
835.511	25179
835.65	25080
835.788	25122
835.926	25050
836.064	24951
836.202	25000
836.34	25099
836.478	25274
836.615	25050
836.753	25187
836.891	25194
837.029	25069
837.167	25061
837.305	24992
837.443	24985
837.58	24943
837.718	25076
837.856	24996
837.993	24943
838.131	24909
838.269	24749
838.406	24886
838.544	24757
838.681	24684
838.819	24654
838.956	24426
839.094	24437
839.231	24475
839.369	24532
839.506	24943
839.643	24585
839.781	24308
839.918	24315
840.055	24407
840.193	24262
840.33	24369
840.467	24376
840.604	24391
840.742	24601
840.879	24228
841.016	24315
841.153	24194
841.29	24304
841.427	24388
841.564	24361
841.701	24304
841.838	24300
841.975	24270
842.112	24190
842.249	24102
842.385	24038
842.522	24407
842.659	24319
842.796	24041
842.933	24087
843.069	24068
843.206	24140
843.343	24186
843.479	24049
843.616	24026
843.752	23885
843.889	23980
844.025	23920
844.162	23821
844.298	23882
844.435	23798
844.571	23958
844.708	23984
844.844	24026
844.98	24064
845.117	23927
845.253	23748
845.389	23733
845.525	23767
845.661	23695
845.798	23589
845.934	23802
846.07	23619
846.206	23611
846.342	23672
846.478	23767
846.614	23417
846.75	23273
846.886	23337
847.022	23429
847.158	23299
847.294	23353
847.429	23299
847.565	23379
847.701	23589
847.837	23025
847.972	23200
848.108	23178
848.244	23071
848.379	22995
848.515	22953
848.65	22839
848.786	22873
848.921	22847
849.057	22991
849.192	23018
849.328	23086
849.463	22850
849.598	22767
849.734	22778
849.869	22801
850.004	22725
850.14	22812
850.275	22675
850.41	22554
850.545	22672
850.68	22599
850.815	22713
850.95	22672
851.085	22759
851.22	22801
851.355	22683
851.49	22622
851.625	22599
851.76	22561
851.895	22691
852.03	22557
852.165	22683
852.299	22645
852.434	22713
852.569	22618
852.703	22668
852.838	22611
852.973	22824
853.107	22733
853.242	22580
853.376	22447
853.511	22440
853.645	22451
853.78	22660
853.914	22542
854.048	22497
854.183	22394
854.317	22474
854.451	22672
854.585	22440
854.72	22493
854.854	22611
854.988	22394
855.122	22459
855.256	22440
855.39	22440
855.524	22538
855.658	22497
855.792	22550
855.926	22554
856.06	22493
856.194	22516
856.327	22478
856.461	22398
856.595	22337
856.729	22440
856.862	22580
856.996	22481
857.13	22504
857.263	22573
857.397	22565
857.53	22428
857.664	22512
857.797	22497
857.931	22611
858.064	22325
858.197	22611
858.331	22356
858.464	22390
858.597	22394
858.731	22573
858.864	22493
858.997	22451
859.13	22489
859.263	22542
859.396	22542
859.529	22451
859.662	22561
859.795	22481
859.928	22318
860.061	22573
860.194	22713
860.327	22554
860.46	22447
860.592	22577
860.725	22694
860.858	22649
860.99	22493
861.123	22512
861.256	22497
861.388	22459
861.521	23159
861.653	22386
861.786	22169
861.918	22341
862.05	22413
862.183	22470
862.315	22363
862.447	22447
862.58	22371
862.712	22234
862.844	22147
862.976	22314
863.108	22181
863.24	22538
863.372	22158
863.504	22196
863.636	22128
863.768	22192
863.9	22105
864.032	22074
864.164	22169
864.296	22261
864.428	22105
864.559	22154
864.691	22196
864.823	22223
864.954	22226
865.086	22242
865.217	22112
865.349	21975
865.48	22177
865.612	22143
865.743	22086
865.875	22177
866.006	22010
866.137	22124
866.269	22105
866.4	22082
866.531	21975
866.662	22078
866.793	21941
866.924	21949
867.055	22070
867.186	21972
867.317	21968
867.448	21968
867.579	21987
867.71	21827
867.841	21838
867.972	22048
868.103	21949
868.233	21953
868.364	22017
868.495	22120
868.625	22295
868.756	22329
868.886	22147
869.017	22257
869.147	22325
869.278	22379
869.408	22268
869.539	22192
869.669	22192
869.799	22261
869.929	22261
870.06	22325
870.19	22588
870.32	22512
870.45	22698
870.58	22691
870.71	22702
870.84	22717
870.97	22694
871.1	22630
871.23	22805
871.36	22900
871.489	22721
871.619	22824
871.749	22831
871.879	22953
872.008	22904
872.138	22801
872.267	22805
872.397	22748
872.526	22687
872.656	22668
872.785	22683
872.915	22854
873.044	22896
873.173	22942
873.303	22828
873.432	22782
873.561	23014
873.69	22793
873.819	22911
873.948	22930
874.077	22873
874.206	22866
874.335	22778
874.464	22927
874.593	22984
874.722	23132
874.851	23128
874.979	23060
875.108	23197
875.237	23079
875.365	22938
875.494	23060
875.623	23128
875.751	22854
875.88	23071
876.008	23151
876.136	23200
876.265	23395
876.393	23630
876.521	23528
876.65	23623
876.778	23463
876.906	23524
877.034	23360
877.162	23322
877.29	23296
877.418	23364
877.546	23307
877.674	23474
877.802	23360
877.93	23261
878.058	23334
878.185	23337
878.313	23296
878.441	23421
878.568	23208
878.696	23200
878.824	23372
878.951	23505
879.079	23577
879.206	23596
879.333	23562
879.461	23337
879.588	23547
879.715	23486
879.842	23748
879.97	23459
880.097	23060
880.224	23280
880.351	23318
880.478	23261
880.605	23162
880.732	23136
880.859	23444
880.986	23200
881.112	23220
881.239	23128
881.366	22991
881.493	22873
881.619	22980
881.746	22729
881.872	22896
881.999	22725
882.125	22710
882.252	22793
882.378	22771
882.505	22862
882.631	22478
882.757	22550
882.883	22630
883.01	22497
883.136	22409
883.262	22470
883.388	22398
883.514	22588
883.64	22424
883.766	22398
883.892	22246
884.018	22325
884.143	22421
884.269	22565
884.395	22249
884.52	22017
884.646	22120
884.772	22006
884.897	21960
885.023	22143
885.148	22135
885.274	22238
885.399	22192
885.524	22192
885.65	22124
885.775	22040
885.9	22036
886.025	22124
886.15	22090
886.275	22101
886.4	21888
886.525	22116
886.65	22048
886.775	21960
886.9	22150
887.025	22242
887.149	22086
887.274	21915
887.399	21880
887.523	21808
887.648	21766
887.773	21854
887.897	21857
888.021	21861
888.146	21880
888.27	21861
888.395	21884
888.519	21911
888.643	21785
888.767	21998
888.891	21759
889.015	21679
889.139	21667
889.263	21675
889.387	21709
889.511	21770
889.635	21793
889.759	21629
889.883	21629
890.006	21614
890.13	21743
890.254	21606
890.377	21644
890.501	21481
890.624	21386
890.748	21431
890.871	21298
890.995	21264
891.118	21165
891.241	21131
891.364	21131
891.488	21321
891.611	21108
891.734	21192
891.857	21214
891.98	21138
892.103	21249
892.226	21157
892.349	21218
892.471	21085
892.594	21169
892.717	20979
892.839	21127
892.962	21180
893.085	21211
893.207	21226
893.33	21036
893.452	21001
893.575	21066
893.697	21055
893.819	21287
893.941	21294
894.064	21207
894.186	21085
894.308	20979
894.43	21142
894.552	21127
894.674	21055
894.796	20921
894.918	21032
895.04	21051
895.161	21157
895.283	21043
895.405	21051
895.526	21214
895.648	21028
895.769	21157
895.891	21070
896.012	21199
896.134	21169
896.255	21032
896.376	21055
896.498	21112
896.619	21058
896.74	21207
896.861	21184
896.982	21428
897.103	21462
897.224	21272
897.345	21313
897.466	21279
897.587	21283
897.708	21424
897.828	21306
897.949	21264
898.07	21119
898.19	21241
898.311	21233
898.431	21161
898.552	21180
898.672	21477
898.792	21408
898.913	21233
899.033	21112
899.153	21009
899.273	21017
899.393	21013
899.513	21096
899.633	21051
899.753	21123
899.873	20914
899.993	20876
900.113	20971
900.232	21070
900.352	20914
900.472	20883
900.591	20804
900.711	20830
900.83	20720
900.95	20895
901.069	20849
901.189	20678
901.308	20377
901.427	20423
901.546	20415
901.665	20465
901.784	20298
901.904	20225
902.023	20035
902.141	19871
902.26	19913
902.379	19879
902.498	19837
902.617	19765
902.735	19887
902.854	19826
902.973	19693
903.091	19521
903.21	19597
903.328	19476
903.446	19365
903.565	19316
903.683	19285
903.801	19263
903.919	19236
904.038	19259
904.156	19061
904.274	19038
904.392	19046
904.51	18958
904.627	19095
904.745	19110
904.863	18993
904.981	18833
905.098	18715
905.216	18806
905.334	18814
905.451	18661
905.569	18650
905.686	18757
905.803	18749
905.921	18486
906.038	18642
906.155	18525
906.272	18399
906.389	18407
906.506	18186
906.623	18243
906.74	18285
906.857	18106
906.974	18076
907.091	18357
907.208	18251
907.324	18251
907.441	18140
907.557	18030
907.674	17912
907.79	17977
907.907	17988
908.023	18026
908.139	17889
908.256	17980
908.372	17821
908.488	17889
908.604	17661
908.72	17615
908.836	17710
908.952	17615
909.068	17649
909.184	17745
909.3	17764
909.415	17695
909.531	17547
909.647	17532
909.762	17330
909.878	17337
909.993	17448
910.108	17341
910.224	17269
910.339	17372
910.454	17181
910.57	17277
910.685	17067
910.8	17478
910.915	17242
911.03	17174
911.145	17022
911.259	16923
911.374	16812
911.489	16831
911.604	16843
911.718	16664
911.833	16679
911.947	16679
912.062	16512
912.176	16691
912.291	16767
912.405	16694
912.519	16816
912.633	16843
912.748	16618
912.862	16679
912.976	16409
913.09	16379
913.204	16451
913.318	16447
913.431	16588
913.545	16504
913.659	16538
913.772	16398
913.886	16272
914	16268
914.113	16398
914.226	16291
914.34	16295
914.453	16204
914.566	16257
914.68	16169
914.793	16029
914.906	15987
915.019	15899
915.132	15804
915.245	15922
915.358	15842
915.47	15831
915.583	15717
915.696	15915
915.809	15899
915.921	15854
916.034	15854
916.146	15720
916.259	15728
916.371	15846
916.483	15713
916.595	15724
916.708	15679
916.82	15660
916.932	15633
917.044	15622
917.156	15591
917.268	15469
917.38	15568
917.491	15519
917.603	15492
917.715	15515
917.826	15523
917.938	15401
918.049	15348
918.161	15450
918.272	15572
918.384	15618
918.495	15519
918.606	15222
918.717	15203
918.828	15256
918.939	15230
919.05	15116
919.161	15093
919.272	15028
919.383	15100
919.494	15268
919.604	15454
919.715	15119
919.826	15169
919.936	15081
920.047	15252
920.157	15108
920.267	15302
920.378	15211
920.488	15154
920.598	15481
920.708	15584
920.818	15294
920.928	15264
921.038	15412
921.148	15382
921.258	15066
921.368	15036
921.477	14887
921.587	14910
921.697	14735
921.806	14933
921.916	14750
922.025	14644
922.134	14590
922.244	14537
922.353	14560
922.462	14415
922.571	14366
922.68	14225
922.789	14229
922.898	14142
923.007	14145
923.116	14202
923.224	14145
923.333	14073
923.442	14077
923.55	13951
923.659	14138
923.767	14035
923.876	13898
923.984	14016
924.092	13936
924.201	13970
924.309	13887
924.417	13807
924.525	13841
924.633	13841
924.741	14727
924.849	13533
924.956	13803
925.064	13620
925.172	13499
925.279	13529
925.387	13548
925.494	13495
925.602	13712
925.709	13571
925.816	13468
925.924	13556
926.031	13480
926.138	13521
926.245	13594
926.352	13453
926.459	13445
926.566	13540
926.673	13419
926.779	13339
926.886	13228
926.993	13107
927.099	13095
927.206	13023
927.312	13126
927.419	13122
927.525	13107
927.631	13072
927.737	12954
927.843	12909
927.95	12806
928.056	12837
928.162	12913
928.267	12977
928.373	13384
928.479	12928
928.585	12707
928.69	12859
928.796	12863
928.901	12783
929.007	12608
929.112	12749
929.218	12681
929.323	12604
929.428	12692
929.533	12715
929.638	12551
929.743	12620
929.848	12566
929.953	12521
930.058	12464
930.163	12296
930.267	12235
930.372	12498
930.477	12300
930.581	12422
930.685	12285
930.79	12106
930.894	12216
930.998	12205
931.103	12232
931.207	11942
931.311	11885
931.415	11695
931.519	11577
931.623	11471
