Data from test_V78500241_3680.txt Node
Date: Fri Mar 25 16:07:17 CST 2022
User: usil
Spectrometer: V785-0024
Trigger mode: 0
Integration Time (sec): 4.000000E-1
Scans to average: 1
Nonlinearity correction enabled: false
Boxcar width: 0
Storing dark spectrum: false
XAxis mode: Wavelengths
Number of Pixels in Spectrum: 1024
>>>>>Begin Spectral Data<<<<<
801.071	27922
801.214	27835
801.356	27603
801.499	27507
801.641	27268
801.783	27367
801.926	27557
802.068	27431
802.211	27458
802.353	27439
802.496	27207
802.638	27077
802.78	27138
802.923	27036
803.065	27043
803.208	27173
803.35	27150
803.492	27367
803.635	27218
803.777	27195
803.919	27344
804.061	27736
804.204	27431
804.346	27340
804.488	27222
804.63	27359
804.773	27359
804.915	27466
805.057	27530
805.199	27386
805.341	27462
805.483	27496
805.626	27473
805.768	27359
805.91	27492
806.052	27583
806.194	27344
806.336	27827
806.478	27553
806.62	27435
806.762	27633
806.904	27903
807.046	27937
807.188	27926
807.33	27770
807.472	27937
807.614	27831
807.756	27930
807.898	27720
808.04	27667
808.182	27755
808.324	27903
808.465	27835
808.607	27888
808.749	28067
808.891	28226
809.033	28421
809.174	28242
809.316	28082
809.458	28204
809.6	28086
809.741	28226
809.883	28295
810.025	28538
810.166	28485
810.308	28314
810.45	28421
810.591	28158
810.733	28287
810.875	28173
811.016	28147
811.158	28010
811.299	28352
811.441	28219
811.582	28291
811.724	28036
811.865	28120
812.007	28249
812.148	28120
812.29	28249
812.431	28284
812.573	28489
812.714	28519
812.855	28641
812.997	28710
813.138	28919
813.279	28729
813.421	28660
813.562	28561
813.703	28474
813.845	28246
813.986	28109
814.127	27831
814.268	27728
814.41	27937
814.551	27682
814.692	27941
814.833	27819
814.974	27823
815.115	27812
815.256	27599
815.397	27682
815.539	27800
815.68	27705
815.821	27469
815.962	27572
816.103	27641
816.244	27359
816.385	27283
816.526	27401
816.666	27218
816.807	27093
816.948	27256
817.089	27214
817.23	27062
817.371	26986
817.512	27154
817.653	27096
817.793	27005
817.934	27089
818.075	27058
818.216	27043
818.356	27096
818.497	26891
818.638	26845
818.778	26769
818.919	26853
819.06	26929
819.2	27017
819.341	27192
819.481	27150
819.622	27138
819.762	27462
819.903	27416
820.043	27283
820.184	27093
820.324	27207
820.465	27351
820.605	27268
820.746	27161
820.886	27051
821.026	27188
821.167	27192
821.307	27256
821.447	27165
821.588	26967
821.728	26921
821.868	26667
822.008	26621
822.149	26606
822.289	26461
822.429	26305
822.569	26275
822.709	26290
822.849	26069
822.99	25989
823.13	26073
823.27	26142
823.41	25947
823.55	25818
823.69	25947
823.83	26024
823.97	25761
824.11	25639
824.25	25677
824.389	25670
824.529	25719
824.669	25666
824.809	25795
824.949	25655
825.089	25906
825.228	25830
825.368	25487
825.508	25567
825.648	25616
825.787	25578
825.927	25552
826.067	25651
826.206	25445
826.346	25677
826.485	25597
826.625	25525
826.765	25811
826.904	25571
827.044	25419
827.183	25384
827.323	25377
827.462	25434
827.601	25285
827.741	25255
827.88	25293
828.02	25076
828.159	25301
828.298	25183
828.437	25358
828.577	25202
828.716	25350
828.855	25183
828.994	25034
829.134	24913
829.273	25050
829.412	24795
829.551	24905
829.69	25008
829.829	25000
829.968	24958
830.107	25012
830.246	25160
830.385	24909
830.524	24901
830.663	24817
830.802	24703
830.941	24536
831.08	24490
831.219	24722
831.357	24707
831.496	24814
831.635	24639
831.774	24475
831.913	24414
832.051	24327
832.19	24407
832.329	24410
832.467	24327
832.606	24308
832.744	24251
832.883	24239
833.022	24258
833.16	24262
833.299	24346
833.437	24346
833.576	24350
833.714	24190
833.852	24384
833.991	24308
834.129	24395
834.267	24433
834.406	24342
834.544	24441
834.682	24361
834.821	24330
834.959	24536
835.097	24342
835.235	24353
835.373	24330
835.511	24205
835.65	24167
835.788	24136
835.926	24045
836.064	23912
836.202	24030
836.34	24140
836.478	24133
836.615	24144
836.753	24072
836.891	24243
837.029	24159
837.167	24087
837.305	24011
837.443	24121
837.58	23893
837.718	23984
837.856	24079
837.993	23893
838.131	24011
838.269	23870
838.406	24007
838.544	23809
838.681	23589
838.819	23615
838.956	23391
839.094	23452
839.231	23467
839.369	23570
839.506	23790
839.643	23710
839.781	23562
839.918	23307
840.055	23505
840.193	23364
840.33	23425
840.467	23440
840.604	23277
840.742	23535
840.879	23288
841.016	23231
841.153	23239
841.29	23459
841.427	23429
841.564	23448
841.701	23311
841.838	23254
841.975	23200
842.112	23273
842.249	23185
842.385	23200
842.522	23322
842.659	23162
842.796	23124
842.933	23239
843.069	23178
843.206	23200
843.343	23166
843.479	23189
843.616	23121
843.752	22930
843.889	22949
844.025	23079
844.162	22847
844.298	22995
844.435	22911
844.571	22908
844.708	22885
844.844	23147
844.98	23090
845.117	23048
845.253	22892
845.389	22725
845.525	22759
845.661	22706
845.798	22748
845.934	22733
846.07	22641
846.206	22702
846.342	22786
846.478	22599
846.614	22493
846.75	22409
846.886	22390
847.022	22432
847.158	22413
847.294	22325
847.429	22375
847.565	22295
847.701	22527
847.837	22135
847.972	22097
848.108	22272
848.244	22173
848.379	22059
848.515	21964
848.65	22025
848.786	21895
848.921	21983
849.057	22112
849.192	22055
849.328	21991
849.463	21937
849.598	21983
849.734	21838
849.869	21888
850.004	21759
850.14	21835
850.275	21671
850.41	21595
850.545	21660
850.68	21701
850.815	21857
850.95	21857
851.085	21911
851.22	21755
851.355	21705
851.49	21747
851.625	21629
851.76	21736
851.895	21739
852.03	21766
852.165	21675
852.299	21793
852.434	21850
852.569	21755
852.703	21739
852.838	21793
852.973	21899
853.107	21873
853.242	21686
853.376	21553
853.511	21397
853.645	21511
853.78	21614
853.914	21504
854.048	21542
854.183	21477
854.317	21629
854.451	21812
854.585	21656
854.72	21557
854.854	21701
854.988	21549
855.122	21591
855.256	21325
855.39	21561
855.524	21690
855.658	21572
855.792	21595
855.926	21511
856.06	21705
856.194	21694
856.327	21629
856.461	21416
856.595	21667
856.729	21538
856.862	21534
856.996	21599
857.13	21545
857.263	21728
857.397	21625
857.53	21538
857.664	21580
857.797	21637
857.931	21713
858.064	21656
858.197	21705
858.331	21511
858.464	21515
858.597	21435
858.731	21507
858.864	21580
858.997	21564
859.13	21534
859.263	21633
859.396	21523
859.529	21507
859.662	21507
859.795	21462
859.928	21629
860.061	21675
860.194	21789
860.327	21694
860.46	21622
860.592	21713
860.725	21690
860.858	21770
860.99	21660
861.123	21405
861.256	21454
861.388	21660
861.521	22356
861.653	21481
861.786	21378
861.918	21355
862.05	21469
862.183	21500
862.315	21500
862.447	21553
862.58	21530
862.712	21256
862.844	21237
862.976	21393
863.108	21416
863.24	21732
863.372	21222
863.504	21302
863.636	21268
863.768	21272
863.9	21351
864.032	21294
864.164	21241
864.296	21344
864.428	21393
864.559	21374
864.691	21443
864.823	21169
864.954	21279
865.086	21222
865.217	21222
865.349	21017
865.48	21241
865.612	21192
865.743	21252
865.875	21260
866.006	21173
866.137	21112
866.269	21222
866.4	21218
866.531	21009
866.662	21036
866.793	21058
866.924	21127
867.055	21222
867.186	21150
867.317	21119
867.448	21058
867.579	21005
867.71	21093
867.841	21066
867.972	21131
868.103	21161
868.233	21104
868.364	21055
868.495	21119
868.625	21325
868.756	21420
868.886	21336
869.017	21397
869.147	21374
869.278	21515
869.408	21374
869.539	21268
869.669	21477
869.799	21363
869.929	21439
870.06	21610
870.19	21728
870.32	21732
870.45	21743
870.58	21778
870.71	21827
870.84	21812
870.97	21629
871.1	21800
871.23	21911
871.36	21994
871.489	21880
871.619	21972
871.749	21960
871.879	21968
872.008	22044
872.138	22059
872.267	22025
872.397	21865
872.526	21812
872.656	21774
872.785	21755
872.915	21979
873.044	22078
873.173	22055
873.303	21945
873.432	22135
873.561	22078
873.69	21968
873.819	21918
873.948	22013
874.077	21945
874.206	22002
874.335	21975
874.464	22070
874.593	22272
874.722	22120
874.851	22226
874.979	22196
875.108	22382
875.237	22090
875.365	22291
875.494	22215
875.623	22280
875.751	22128
875.88	22188
876.008	22413
876.136	22360
876.265	22599
876.393	22668
876.521	22748
876.65	22767
876.778	22641
876.906	22580
877.034	22481
877.162	22649
877.29	22512
877.418	22584
877.546	22531
877.674	22622
877.802	22466
877.93	22546
878.058	22542
878.185	22421
878.313	22527
878.441	22573
878.568	22398
878.696	22455
878.824	22653
878.951	22630
879.079	22725
879.206	22965
879.333	22702
879.461	22618
879.588	22618
879.715	22748
879.842	22904
879.97	22512
880.097	22360
880.224	22394
880.351	22417
880.478	22417
880.605	22333
880.732	22234
880.859	22649
880.986	22344
881.112	22421
881.239	22215
881.366	22090
881.493	22143
881.619	21926
881.746	22070
881.872	21945
881.999	21915
882.125	21972
882.252	21991
882.378	22025
882.505	22044
882.631	21808
882.757	21759
882.883	21622
883.01	21774
883.136	21622
883.262	21538
883.388	21462
883.514	21679
883.64	21679
883.766	21523
883.892	21485
884.018	21519
884.143	21561
884.269	21572
884.395	21363
884.52	21180
884.646	21378
884.772	21348
884.897	21256
885.023	21272
885.148	21401
885.274	21344
885.399	21488
885.524	21249
885.65	21310
885.775	21226
885.9	21321
886.025	21317
886.15	21523
886.275	21176
886.4	21176
886.525	21306
886.65	21233
886.775	21150
886.9	21431
887.025	21450
887.149	21173
887.274	21055
887.399	21039
887.523	21081
887.648	20956
887.773	21028
887.897	21180
888.021	21112
888.146	21017
888.27	21173
888.395	21176
888.519	21077
888.643	20979
888.767	21169
888.891	20842
889.015	20815
889.139	20952
889.263	20883
889.387	20918
889.511	20986
889.635	20948
889.759	20941
889.883	20815
890.006	20960
890.13	20815
890.254	20739
890.377	20781
890.501	20739
890.624	20499
890.748	20716
890.871	20427
890.995	20366
891.118	20305
891.241	20389
891.364	20385
891.488	20480
891.611	20560
891.734	20347
891.857	20457
891.98	20438
892.103	20442
892.226	20412
892.349	20339
892.471	20240
892.594	20351
892.717	20457
892.839	20248
892.962	20355
893.085	20301
893.207	20339
893.33	20218
893.452	20301
893.575	20374
893.697	20362
893.819	20446
893.941	20625
894.064	20454
894.186	20324
894.308	20294
894.43	20446
894.552	20461
894.674	20431
894.796	20320
894.918	20240
895.04	20324
895.161	20347
895.283	20339
895.405	20339
895.526	20298
895.648	20351
895.769	20347
895.891	20259
896.012	20351
896.134	20351
896.255	20442
896.376	20199
896.498	20339
896.619	20473
896.74	20309
896.861	20415
896.982	20636
897.103	20697
897.224	20560
897.345	20545
897.466	20507
897.587	20568
897.708	20712
897.828	20708
897.949	20552
898.07	20362
898.19	20415
898.311	20549
898.431	20530
898.552	20560
898.672	20667
898.792	20667
898.913	20514
899.033	20450
899.153	20362
899.273	20149
899.393	20313
899.513	20237
899.633	20290
899.753	20370
899.873	20191
899.993	20332
900.113	20153
900.232	20271
900.352	20145
900.472	20111
900.591	20035
900.711	20119
900.83	20008
900.95	20119
901.069	20225
901.189	19978
901.308	19849
901.427	19609
901.546	19647
901.665	19658
901.784	19681
901.904	19525
902.023	19388
902.141	19259
902.26	19137
902.379	19244
902.498	19160
902.617	19251
902.735	19171
902.854	19053
902.973	19187
903.091	18837
903.21	18757
903.328	18764
903.446	18745
903.565	18703
903.683	18631
903.801	18570
903.919	18597
904.038	18551
904.156	18308
904.274	18521
904.392	18380
904.51	18346
904.627	18437
904.745	18361
904.863	18418
904.981	18235
905.098	18049
905.216	18026
905.334	18034
905.451	17992
905.569	18079
905.686	18087
905.803	18095
905.921	17794
906.038	17969
906.155	17798
906.272	17699
906.389	17710
906.506	17665
906.623	17665
906.74	17554
906.857	17414
906.974	17387
907.091	17573
907.208	17699
907.324	17634
907.441	17391
907.557	17334
907.674	17360
907.79	17288
907.907	17231
908.023	17223
908.139	17235
908.256	17280
908.372	17197
908.488	17151
908.604	17117
908.72	16987
908.836	17025
908.952	17010
909.068	17056
909.184	17140
909.3	17041
909.415	17041
909.531	16953
909.647	16774
909.762	16675
909.878	16626
909.993	16694
910.108	16717
910.224	16683
910.339	16698
910.454	16630
910.57	16489
910.685	16436
910.8	16664
910.915	16740
911.03	16512
911.145	16329
911.259	16249
911.374	16272
911.489	16238
911.604	16207
911.718	16105
911.833	16116
911.947	15915
912.062	15903
912.176	16154
912.291	16090
912.405	16048
912.519	16246
912.633	16253
912.748	16097
912.862	15998
912.976	15911
913.09	15709
913.204	15774
913.318	15838
913.431	15979
913.545	15918
913.659	15979
913.772	15831
913.886	15663
914	15682
914.113	15717
914.226	15793
914.34	15781
914.453	15622
914.566	15774
914.68	15511
914.793	15549
914.906	15386
915.019	15283
915.132	15192
915.245	15287
915.358	15256
915.47	15317
915.583	15317
915.696	15336
915.809	15268
915.921	15321
916.034	15180
916.146	15116
916.259	15169
916.371	15184
916.483	15116
916.595	15024
916.708	15108
916.82	15081
916.932	15055
917.044	14982
917.156	15055
917.268	15009
917.38	14891
917.491	14906
917.603	14944
917.715	14967
917.826	15017
917.938	14834
918.049	14705
918.161	14921
918.272	14921
918.384	14982
918.495	14941
918.606	14750
918.717	14708
918.828	14705
918.939	14720
919.05	14503
919.161	14610
919.272	14454
919.383	14412
919.494	14731
919.604	14857
919.715	14731
919.826	14552
919.936	14667
920.047	14594
920.157	14670
920.267	14834
920.378	14678
920.488	14549
920.598	14785
920.708	14975
920.818	14891
920.928	14727
921.038	14914
921.148	14857
921.258	14640
921.368	14579
921.477	14434
921.587	14473
921.697	14267
921.806	14358
921.916	14259
922.025	14073
922.134	14008
922.244	13955
922.353	14008
922.462	13890
922.571	13837
922.68	13651
922.789	13601
922.898	13601
923.007	13620
923.116	13681
923.224	13620
923.333	13639
923.442	13552
923.55	13521
923.659	13441
923.767	13544
923.876	13487
923.984	13487
924.092	13324
924.201	13476
924.309	13373
924.417	13377
924.525	13297
924.633	13343
924.741	14172
924.849	13152
924.956	13240
925.064	13019
925.172	13019
925.279	13095
925.387	13034
925.494	13099
925.602	13168
925.709	13069
925.816	12989
925.924	13031
926.031	13137
926.138	12954
926.245	13053
926.352	12916
926.459	13019
926.566	13080
926.673	12981
926.779	12802
926.886	12757
926.993	12707
927.099	12631
927.206	12707
927.312	12547
927.419	12715
927.525	12578
927.631	12658
927.737	12464
927.843	12422
927.95	12330
928.056	12498
928.162	12486
928.267	12486
928.373	13152
928.479	12551
928.585	12251
928.69	12388
928.796	12486
928.901	12216
929.007	12045
929.112	12292
929.218	12190
929.323	12167
929.428	12159
929.533	12273
929.638	12133
929.743	12091
929.848	12262
929.953	12076
930.058	12038
930.163	11931
930.267	11824
930.372	11980
930.477	11703
930.581	12041
930.685	11969
930.79	11699
930.894	11672
930.998	11634
931.103	11893
931.207	11512
931.311	11360
931.415	11345
931.519	11140
931.623	11159
