Data from test_V78500241_807.txt Node
Date: Fri Mar 25 15:47:23 CST 2022
User: usil
Spectrometer: V785-0024
Trigger mode: 0
Integration Time (sec): 4.000000E-1
Scans to average: 1
Nonlinearity correction enabled: false
Boxcar width: 0
Storing dark spectrum: false
XAxis mode: Wavelengths
Number of Pixels in Spectrum: 1024
>>>>>Begin Spectral Data<<<<<
801.071	27873
801.214	27876
801.356	27606
801.499	27530
801.641	27523
801.783	27405
801.926	27469
802.068	27564
802.211	27447
802.353	27435
802.496	27294
802.638	27264
802.78	27123
802.923	27161
803.065	27093
803.208	27157
803.35	27074
803.492	27203
803.635	27359
803.777	27108
803.919	27264
804.061	27660
804.204	27523
804.346	27401
804.488	27306
804.63	27279
804.773	27161
804.915	27351
805.057	27545
805.199	27348
805.341	27416
805.483	27447
805.626	27424
805.768	27351
805.91	27431
806.052	27553
806.194	27374
806.336	27709
806.478	27469
806.62	27523
806.762	27629
806.904	27751
807.046	28078
807.188	27907
807.33	27797
807.472	28063
807.614	27857
807.756	27781
807.898	27934
808.04	27694
808.182	27766
808.324	27755
808.465	27880
808.607	27956
808.749	28139
808.891	28166
809.033	28360
809.174	28272
809.316	28219
809.458	28048
809.6	28032
809.741	28272
809.883	28329
810.025	28535
810.166	28478
810.308	28375
810.45	28417
810.591	28204
810.733	28177
810.875	28287
811.016	28120
811.158	28051
811.299	28215
811.441	28284
811.582	28474
811.724	28265
811.865	28090
812.007	28059
812.148	28204
812.29	28185
812.431	28413
812.573	28504
812.714	28573
812.855	28607
812.997	28866
813.138	28930
813.279	28649
813.421	28797
813.562	28729
813.703	28466
813.845	28375
813.986	28082
814.127	28074
814.268	27720
814.41	27854
814.551	27789
814.692	27964
814.833	27876
814.974	27785
815.115	27953
815.256	27656
815.397	27732
815.539	27774
815.68	27682
815.821	27625
815.962	27747
816.103	27663
816.244	27591
816.385	27454
816.526	27408
816.666	27237
816.807	27260
816.948	27161
817.089	27207
817.23	27332
817.371	27154
817.512	27150
817.653	27089
817.793	27032
817.934	27093
818.075	27150
818.216	27119
818.356	27188
818.497	26979
818.638	26895
818.778	26944
818.919	26811
819.06	26918
819.2	27032
819.341	27051
819.481	27142
819.622	27389
819.762	27416
819.903	27382
820.043	27272
820.184	27230
820.324	27222
820.465	27397
820.605	27317
820.746	27241
820.886	27131
821.026	27241
821.167	27241
821.307	27195
821.447	27085
821.588	27047
821.728	26994
821.868	26735
822.008	26602
822.149	26750
822.289	26590
822.429	26366
822.569	26336
822.709	26393
822.849	26267
822.99	26138
823.13	26062
823.27	26111
823.41	26008
823.55	25822
823.69	25875
823.83	25993
823.97	25871
824.11	25696
824.25	25715
824.389	25807
824.529	25750
824.669	25807
824.809	26024
824.949	25864
825.089	25928
825.228	25932
825.368	25750
825.508	25700
825.648	25708
825.787	25765
825.927	25765
826.067	25556
826.206	25700
826.346	25727
826.485	25772
826.625	25628
826.765	25628
826.904	25723
827.044	25468
827.183	25434
827.323	25499
827.462	25316
827.601	25354
827.741	25411
827.88	25396
828.02	25282
828.159	25350
828.298	25343
828.437	25525
828.577	25282
828.716	25430
828.855	25259
828.994	25095
829.134	25004
829.273	25114
829.412	24981
829.551	25065
829.69	25099
829.829	25088
829.968	25156
830.107	25190
830.246	25076
830.385	24985
830.524	24951
830.663	24776
830.802	24833
830.941	24749
831.08	24711
831.219	24700
831.357	24825
831.496	24897
831.635	24608
831.774	24688
831.913	24513
832.051	24547
832.19	24517
832.329	24445
832.467	24403
832.606	24243
832.744	24330
832.883	24395
833.022	24361
833.16	24338
833.299	24376
833.437	24346
833.576	24452
833.714	24448
833.852	24517
833.991	24570
834.129	24281
834.267	24494
834.406	24452
834.544	24559
834.682	24388
834.821	24281
834.959	24597
835.097	24323
835.235	24536
835.373	24422
835.511	24445
835.65	24330
835.788	24315
835.926	24026
836.064	23984
836.202	24095
836.34	24266
836.478	24270
836.615	24197
836.753	24342
836.891	24365
837.029	24350
837.167	24095
837.305	24140
837.443	24110
837.58	24038
837.718	24140
837.856	24140
837.993	24076
838.131	24144
838.269	23916
838.406	24049
838.544	23988
838.681	23752
838.819	23729
838.956	23562
839.094	23623
839.231	23596
839.369	23676
839.506	23961
839.643	23897
839.781	23562
839.918	23436
840.055	23501
840.193	23478
840.33	23482
840.467	23604
840.604	23425
840.742	23817
840.879	23402
841.016	23421
841.153	23349
841.29	23642
841.427	23414
841.564	23436
841.701	23520
841.838	23448
841.975	23341
842.112	23436
842.249	23261
842.385	23303
842.522	23395
842.659	23197
842.796	23242
842.933	23155
843.069	23216
843.206	23189
843.343	23231
843.479	23212
843.616	23200
843.752	22881
843.889	22946
844.025	23189
844.162	23014
844.298	23090
844.435	23003
844.571	22976
844.708	23075
844.844	23147
844.98	23033
845.117	23067
845.253	22934
845.389	22889
845.525	22782
845.661	22873
845.798	22611
845.934	22717
846.07	22721
846.206	22725
846.342	22908
846.478	22755
846.614	22432
846.75	22303
846.886	22318
847.022	22542
847.158	22516
847.294	22341
847.429	22436
847.565	22451
847.701	22733
847.837	22158
847.972	22097
848.108	22147
848.244	22226
848.379	22086
848.515	22082
848.65	22051
848.786	22101
848.921	22200
849.057	22188
849.192	22112
849.328	22086
849.463	22006
849.598	22021
849.734	21915
849.869	21937
850.004	21789
850.14	21960
850.275	21926
850.41	21892
850.545	21759
850.68	21762
850.815	21865
850.95	21922
851.085	22048
851.22	21911
851.355	21800
851.49	21819
851.625	21671
851.76	21846
851.895	21732
852.03	21682
852.165	21850
852.299	21873
852.434	21922
852.569	21823
852.703	21854
852.838	21899
852.973	21876
853.107	22032
853.242	21800
853.376	21595
853.511	21545
853.645	21660
853.78	21732
853.914	21618
854.048	21534
854.183	21591
854.317	21545
854.451	21736
854.585	21656
854.72	21644
854.854	21580
854.988	21629
855.122	21511
855.256	21450
855.39	21625
855.524	21766
855.658	21660
855.792	21599
855.926	21545
856.06	21675
856.194	21614
856.327	21618
856.461	21504
856.595	21496
856.729	21618
856.862	21656
856.996	21652
857.13	21732
857.263	21770
857.397	21709
857.53	21622
857.664	21648
857.797	21778
857.931	21656
858.064	21720
858.197	21698
858.331	21610
858.464	21504
858.597	21545
858.731	21652
858.864	21553
858.997	21641
859.13	21599
859.263	21641
859.396	21682
859.529	21583
859.662	21629
859.795	21545
859.928	21606
860.061	21846
860.194	21865
860.327	21656
860.46	21660
860.592	21781
860.725	21804
860.858	21835
860.99	21667
861.123	21519
861.256	21557
861.388	21728
861.521	22246
861.653	21542
861.786	21355
861.918	21382
862.05	21538
862.183	21534
862.315	21485
862.447	21606
862.58	21557
862.712	21412
862.844	21237
862.976	21435
863.108	21389
863.24	21907
863.372	21268
863.504	21336
863.636	21344
863.768	21408
863.9	21348
864.032	21157
864.164	21272
864.296	21310
864.428	21454
864.559	21412
864.691	21469
864.823	21351
864.954	21336
865.086	21336
865.217	21226
865.349	21176
865.48	21100
865.612	21214
865.743	21454
865.875	21283
866.006	21264
866.137	21249
866.269	21218
866.4	21146
866.531	21180
866.662	21135
866.793	21199
866.924	21291
867.055	21184
867.186	21119
867.317	21180
867.448	21058
867.579	21138
867.71	21081
867.841	21070
867.972	21093
868.103	21169
868.233	21226
868.364	21203
868.495	21161
868.625	21264
868.756	21466
868.886	21199
869.017	21336
869.147	21511
869.278	21504
869.408	21363
869.539	21428
869.669	21549
869.799	21431
869.929	21553
870.06	21511
870.19	21724
870.32	21663
870.45	21728
870.58	21732
870.71	21907
870.84	21842
870.97	21800
871.1	21720
871.23	21964
871.36	22055
871.489	21899
871.619	21911
871.749	21861
871.879	22029
872.008	22025
872.138	22032
872.267	22002
872.397	21857
872.526	21835
872.656	21732
872.785	21785
872.915	21953
873.044	22124
873.173	22067
873.303	22059
873.432	22131
873.561	22120
873.69	22086
873.819	21895
873.948	22013
874.077	22032
874.206	22055
874.335	22021
874.464	22162
874.593	22268
874.722	22226
874.851	22314
874.979	22322
875.108	22413
875.237	22223
875.365	22097
875.494	22246
875.623	22348
875.751	22276
875.88	22287
876.008	22371
876.136	22348
876.265	22729
876.393	22729
876.521	22752
876.65	22748
876.778	22683
876.906	22622
877.034	22653
877.162	22630
877.29	22413
877.418	22557
877.546	22611
877.674	22588
877.802	22542
877.93	22580
878.058	22485
878.185	22462
878.313	22599
878.441	22554
878.568	22440
878.696	22535
878.824	22618
878.951	22504
879.079	22854
879.206	22987
879.333	22805
879.461	22504
879.588	22694
879.715	22713
879.842	22938
879.97	22531
880.097	22538
880.224	22394
880.351	22246
880.478	22424
880.605	22246
880.732	22413
880.859	22752
880.986	22246
881.112	22478
881.239	22234
881.366	22097
881.493	21979
881.619	22059
881.746	21968
881.872	21968
881.999	21831
882.125	21964
882.252	21831
882.378	21869
882.505	22036
882.631	21751
882.757	21724
882.883	21732
883.01	21599
883.136	21644
883.262	21488
883.388	21629
883.514	21576
883.64	21736
883.766	21652
883.892	21526
884.018	21279
884.143	21656
884.269	21747
884.395	21447
884.52	21344
884.646	21313
884.772	21283
884.897	21214
885.023	21249
885.148	21431
885.274	21382
885.399	21477
885.524	21283
885.65	21310
885.775	21389
885.9	21298
886.025	21363
886.15	21454
886.275	21336
886.4	21245
886.525	21211
886.65	21226
886.775	21176
886.9	21412
887.025	21443
887.149	21298
887.274	21047
887.399	20986
887.523	21108
887.648	21039
887.773	20986
887.897	21154
888.021	21020
888.146	20891
888.27	21127
888.395	21112
888.519	21135
888.643	21017
888.767	21157
888.891	20982
889.015	20857
889.139	20872
889.263	20944
889.387	21070
889.511	21085
889.635	21146
889.759	20807
889.883	20731
890.006	20883
890.13	20899
890.254	20777
890.377	20842
890.501	20682
890.624	20511
890.748	20697
890.871	20423
890.995	20374
891.118	20347
891.241	20355
891.364	20423
891.488	20514
891.611	20492
891.734	20442
891.857	20404
891.98	20499
892.103	20484
892.226	20511
892.349	20374
892.471	20161
892.594	20473
892.717	20317
892.839	20210
892.962	20248
893.085	20431
893.207	20332
893.33	20290
893.452	20259
893.575	20499
893.697	20275
893.819	20473
893.941	20530
894.064	20469
894.186	20244
894.308	20191
894.43	20499
894.552	20514
894.674	20480
894.796	20256
894.918	20180
895.04	20263
895.161	20377
895.283	20339
895.405	20324
895.526	20237
895.648	20366
895.769	20317
895.891	20351
896.012	20473
896.134	20507
896.255	20400
896.376	20339
896.498	20351
896.619	20408
896.74	20328
896.861	20377
896.982	20674
897.103	20735
897.224	20499
897.345	20537
897.466	20381
897.587	20598
897.708	20571
897.828	20629
897.949	20465
898.07	20381
898.19	20419
898.311	20602
898.431	20400
898.552	20613
898.672	20602
898.792	20606
898.913	20476
899.033	20423
899.153	20301
899.273	20191
899.393	20320
899.513	20343
899.633	20199
899.753	20168
899.873	20298
899.993	20450
900.113	20153
900.232	20263
900.352	20134
900.472	20130
900.591	20043
900.711	20122
900.83	19944
900.95	20168
901.069	20180
901.189	19944
901.308	19791
901.427	19670
901.546	19647
901.665	19681
901.784	19567
901.904	19537
902.023	19400
902.141	19285
902.26	19194
902.379	19198
902.498	19164
902.617	19164
902.735	19209
902.854	19266
902.973	19053
903.091	18814
903.21	18825
903.328	18760
903.446	18722
903.565	18658
903.683	18616
903.801	18574
903.919	18574
904.038	18582
904.156	18399
904.274	18467
904.392	18403
904.51	18342
904.627	18471
904.745	18429
904.863	18338
904.981	18140
905.098	18022
905.216	17999
905.334	18117
905.451	18129
905.569	18129
905.686	18057
905.803	17950
905.921	17790
906.038	17927
906.155	17942
906.272	17794
906.389	17752
906.506	17634
906.623	17570
906.74	17665
906.857	17444
906.974	17493
907.091	17646
907.208	17760
907.324	17596
907.441	17581
907.557	17250
907.674	17433
907.79	17356
907.907	17258
908.023	17185
908.139	17239
908.256	17303
908.372	17220
908.488	17185
908.604	17102
908.72	17048
908.836	17071
908.952	16961
909.068	16923
909.184	17113
909.3	17029
909.415	17071
909.531	16881
909.647	16767
909.762	16702
909.878	16752
909.993	16790
910.108	16599
910.224	16637
910.339	16683
910.454	16615
910.57	16516
910.685	16474
910.8	16729
910.915	16706
911.03	16626
911.145	16470
911.259	16299
911.374	16318
911.489	16192
911.604	16124
911.718	16010
911.833	16124
911.947	15949
912.062	15945
912.176	16040
912.291	16002
912.405	16071
912.519	16147
912.633	16246
912.748	16131
912.862	16021
912.976	15934
913.09	15812
913.204	15797
913.318	15827
913.431	15953
913.545	15816
913.659	15854
913.772	15846
913.886	15709
914	15724
914.113	15793
914.226	15823
914.34	15701
914.453	15591
914.566	15705
914.68	15591
914.793	15523
914.906	15408
915.019	15283
915.132	15237
915.245	15351
915.358	15313
915.47	15268
915.583	15268
915.696	15332
915.809	15298
915.921	15389
916.034	15123
916.146	15112
916.259	15165
916.371	15165
916.483	15275
916.595	15093
916.708	15180
916.82	15116
916.932	15013
917.044	15112
917.156	14944
917.268	14872
917.38	14960
917.491	14941
917.603	14811
917.715	15001
917.826	15058
917.938	14857
918.049	14765
918.161	14872
918.272	15058
918.384	14971
918.495	14883
918.606	14754
918.717	14629
918.828	14697
918.939	14769
919.05	14602
919.161	14514
919.272	14419
919.383	14492
919.494	14697
919.604	14864
919.715	14625
919.826	14480
919.936	14708
920.047	14727
920.157	14648
920.267	14785
920.378	14689
920.488	14613
920.598	14727
920.708	14918
920.818	14769
920.928	14724
921.038	14990
921.148	14815
921.258	14590
921.368	14549
921.477	14385
921.587	14351
921.697	14191
921.806	14343
921.916	14221
922.025	14115
922.134	14062
922.244	13917
922.353	14103
922.462	13856
922.571	13803
922.68	13693
922.789	13742
922.898	13670
923.007	13624
923.116	13655
923.224	13666
923.333	13670
923.442	13499
923.55	13487
923.659	13506
923.767	13643
923.876	13514
923.984	13506
924.092	13301
924.201	13392
924.309	13422
924.417	13384
924.525	13327
924.633	13384
924.741	14263
924.849	13129
924.956	13285
925.064	13129
925.172	12966
925.279	13053
925.387	13008
925.494	13091
925.602	13240
925.709	13126
925.816	12913
925.924	13080
926.031	13080
926.138	13046
926.245	13031
926.352	12882
926.459	13160
926.566	13129
926.673	12935
926.779	12920
926.886	12825
926.993	12673
927.099	12662
927.206	12749
927.312	12479
927.419	12650
927.525	12589
927.631	12700
927.737	12559
927.843	12456
927.95	12407
928.056	12475
928.162	12448
928.267	12502
928.373	13209
928.479	12532
928.585	12350
928.69	12399
928.796	12433
928.901	12334
929.007	12163
929.112	12315
929.218	12254
929.323	12232
929.428	12197
929.533	12357
929.638	12057
929.743	12186
929.848	12201
929.953	12178
930.058	12011
930.163	11889
930.267	11916
930.372	11996
930.477	11790
930.581	11988
930.685	11950
930.79	11741
930.894	11805
930.998	11737
931.103	11828
931.207	11535
931.311	11490
931.415	11372
931.519	11105
931.623	11048
