Data from test_V78500241_2904.txt Node
Date: Fri Mar 25 16:01:55 CST 2022
User: usil
Spectrometer: V785-0024
Trigger mode: 0
Integration Time (sec): 4.000000E-1
Scans to average: 1
Nonlinearity correction enabled: false
Boxcar width: 0
Storing dark spectrum: false
XAxis mode: Wavelengths
Number of Pixels in Spectrum: 1024
>>>>>Begin Spectral Data<<<<<
801.071	28535
801.214	28538
801.356	28348
801.499	28363
801.641	28207
801.783	28192
801.926	28219
802.068	28029
802.211	28211
802.353	28150
802.496	27960
802.638	27865
802.78	27774
802.923	27838
803.065	27846
803.208	27888
803.35	27876
803.492	27949
803.635	28177
803.777	28109
803.919	28059
804.061	28310
804.204	28230
804.346	28139
804.488	27911
804.63	28131
804.773	28105
804.915	28147
805.057	28223
805.199	27960
805.341	28299
805.483	28188
805.626	28280
805.768	28253
805.91	28371
806.052	28409
806.194	28173
806.336	28356
806.478	28173
806.62	28390
806.762	28459
806.904	28538
807.046	28809
807.188	28755
807.33	28881
807.472	28824
807.614	28691
807.756	28664
807.898	28500
808.04	28428
808.182	28550
808.324	28618
808.465	28626
808.607	28729
808.749	29029
808.891	29056
809.033	29086
809.174	29113
809.316	28854
809.458	28919
809.6	29014
809.741	29132
809.883	28991
810.025	29136
810.166	29208
810.308	29375
810.45	29166
810.591	29098
810.733	29025
810.875	28957
811.016	29029
811.158	28831
811.299	29117
811.441	29006
811.582	29048
811.724	28877
811.865	28831
812.007	29079
812.148	29159
812.29	28949
812.431	29143
812.573	29311
812.714	29330
812.855	29490
812.997	29623
813.138	29444
813.279	29539
813.421	29520
813.562	29356
813.703	29337
813.845	29280
813.986	29067
814.127	28786
814.268	28675
814.41	28721
814.551	28421
814.692	28805
814.833	28554
814.974	28649
815.115	28660
815.256	28519
815.397	28538
815.539	28527
815.68	28459
815.821	28424
815.962	28622
816.103	28447
816.244	28318
816.385	28211
816.526	28242
816.666	28055
816.807	27991
816.948	28006
817.089	28063
817.23	28059
817.371	27945
817.512	27979
817.653	27979
817.793	27808
817.934	28063
818.075	27991
818.216	28051
818.356	27937
818.497	27926
818.638	27660
818.778	27736
818.919	27736
819.06	27800
819.2	27892
819.341	27941
819.481	27975
819.622	28029
819.762	28303
819.903	28154
820.043	28082
820.184	28135
820.324	28131
820.465	28181
820.605	28162
820.746	28109
820.886	27979
821.026	28040
821.167	27953
821.307	28109
821.447	28044
821.588	27972
821.728	27911
821.868	27618
822.008	27412
822.149	27534
822.289	27447
822.429	27272
822.569	27195
822.709	27195
822.849	26937
822.99	26906
823.13	26834
823.27	27001
823.41	26663
823.55	26663
823.69	26804
823.83	26838
823.97	26864
824.11	26590
824.25	26522
824.389	26579
824.529	26651
824.669	26514
824.809	26617
824.949	26568
825.089	26674
825.228	26697
825.368	26476
825.508	26461
825.648	26484
825.787	26450
825.927	26560
826.067	26552
826.206	26537
826.346	26484
826.485	26552
826.625	26400
826.765	26598
826.904	26549
827.044	26248
827.183	26286
827.323	26370
827.462	26252
827.601	26157
827.741	26199
827.88	26305
828.02	26069
828.159	26183
828.298	26286
828.437	26225
828.577	26039
828.716	26263
828.855	26278
828.994	25883
829.134	25936
829.273	25947
829.412	25982
829.551	25890
829.69	25849
829.829	25833
829.968	25871
830.107	25951
830.246	25955
830.385	25727
830.524	25811
830.663	25738
830.802	25552
830.941	25578
831.08	25506
831.219	25487
831.357	25491
831.496	25742
831.635	25483
831.774	25529
831.913	25559
832.051	25327
832.19	25343
832.329	25335
832.467	25225
832.606	25050
832.744	25080
832.883	25118
833.022	25175
833.16	25232
833.299	25171
833.437	25152
833.576	25251
833.714	25282
833.852	25244
833.991	25263
834.129	25350
834.267	25365
834.406	25244
834.544	25270
834.682	25320
834.821	25190
834.959	25350
835.097	25206
835.235	25282
835.373	25065
835.511	25183
835.65	25126
835.788	25065
835.926	24977
836.064	24928
836.202	24924
836.34	25004
836.478	25285
836.615	24996
836.753	25141
836.891	25088
837.029	24939
837.167	25107
837.305	24992
837.443	25019
837.58	24882
837.718	24962
837.856	24951
837.993	24939
838.131	24871
838.269	24833
838.406	24772
838.544	24840
838.681	24471
838.819	24570
838.956	24513
839.094	24254
839.231	24426
839.369	24486
839.506	24852
839.643	24642
839.781	24388
839.918	24338
840.055	24429
840.193	24285
840.33	24209
840.467	24395
840.604	24163
840.742	24536
840.879	24076
841.016	24243
841.153	24095
841.29	24270
841.427	24350
841.564	24369
841.701	24254
841.838	24232
841.975	24121
842.112	24209
842.249	24110
842.385	23969
842.522	24266
842.659	24243
842.796	23920
842.933	23855
843.069	24106
843.206	23961
843.343	24178
843.479	24125
843.616	23977
843.752	23847
843.889	23813
844.025	23901
844.162	23863
844.298	23980
844.435	23836
844.571	23798
844.708	23802
844.844	23931
844.98	23912
845.117	24026
845.253	23657
845.389	23676
845.525	23718
845.661	23680
845.798	23509
845.934	23771
846.07	23448
846.206	23596
846.342	23585
846.478	23554
846.614	23368
846.75	23254
846.886	23124
847.022	23288
847.158	23318
847.294	23296
847.429	23303
847.565	23246
847.701	23452
847.837	23083
847.972	22831
848.108	23075
848.244	23041
848.379	22873
848.515	22828
848.65	22679
848.786	22763
848.921	22892
849.057	22877
849.192	22957
849.328	22889
849.463	22698
849.598	22831
849.734	22717
849.869	22615
850.004	22687
850.14	22706
850.275	22599
850.41	22641
850.545	22519
850.68	22607
850.815	22622
850.95	22618
851.085	22805
851.22	22793
851.355	22611
851.49	22588
851.625	22497
851.76	22618
851.895	22516
852.03	22489
852.165	22489
852.299	22752
852.434	22668
852.569	22607
852.703	22599
852.838	22660
852.973	22660
853.107	22778
853.242	22436
853.376	22428
853.511	22360
853.645	22432
853.78	22443
853.914	22329
854.048	22348
854.183	22363
854.317	22493
854.451	22588
854.585	22436
854.72	22322
854.854	22440
854.988	22360
855.122	22409
855.256	22352
855.39	22386
855.524	22470
855.658	22485
855.792	22440
855.926	22337
856.06	22523
856.194	22592
856.327	22371
856.461	22306
856.595	22398
856.729	22451
856.862	22615
856.996	22375
857.13	22569
857.263	22497
857.397	22535
857.53	22310
857.664	22405
857.797	22432
857.931	22466
858.064	22405
858.197	22500
858.331	22459
858.464	22375
858.597	22314
858.731	22394
858.864	22379
858.997	22303
859.13	22451
859.263	22470
859.396	22497
859.529	22314
859.662	22405
859.795	22409
859.928	22577
860.061	22573
860.194	22596
860.327	22523
860.46	22428
860.592	22421
860.725	22577
860.858	22542
860.99	22535
861.123	22386
861.256	22371
861.388	22489
861.521	23075
861.653	22192
861.786	22207
861.918	22192
862.05	22303
862.183	22242
862.315	22204
862.447	22455
862.58	22405
862.712	22143
862.844	21968
862.976	22226
863.108	22303
863.24	22573
863.372	22082
863.504	22200
863.636	22063
863.768	22112
863.9	22093
864.032	22048
864.164	22097
864.296	22177
864.428	22158
864.559	22177
864.691	22162
864.823	22230
864.954	22162
865.086	22173
865.217	22055
865.349	21850
865.48	22025
865.612	22086
865.743	22093
865.875	22063
866.006	21930
866.137	22086
866.269	22067
866.4	22169
866.531	22040
866.662	21854
866.793	21979
866.924	21930
867.055	21873
867.186	22013
867.317	21987
867.448	21831
867.579	21922
867.71	22006
867.841	21842
867.972	21918
868.103	21876
868.233	21994
868.364	21800
868.495	22074
868.625	22188
868.756	22147
868.886	22040
869.017	22082
869.147	22310
869.278	22276
869.408	22177
869.539	22219
869.669	22188
869.799	22265
869.929	22329
870.06	22310
870.19	22538
870.32	22478
870.45	22527
870.58	22580
870.71	22668
870.84	22634
870.97	22565
871.1	22588
871.23	22767
871.36	22790
871.489	22691
871.619	22801
871.749	22615
871.879	22755
872.008	22809
872.138	22774
872.267	22786
872.397	22683
872.526	22577
872.656	22565
872.785	22599
872.915	22809
873.044	22843
873.173	22866
873.303	22927
873.432	22991
873.561	22858
873.69	22774
873.819	22759
873.948	22923
874.077	22801
874.206	22664
874.335	22759
874.464	23022
874.593	22900
874.722	22934
874.851	23086
874.979	23029
875.108	23124
875.237	22999
875.365	22869
875.494	22881
875.623	23174
875.751	22999
875.88	23014
876.008	23151
876.136	23170
876.265	23387
876.393	23581
876.521	23573
876.65	23474
876.778	23455
876.906	23387
877.034	23368
877.162	23337
877.29	23204
877.418	23486
877.546	23337
877.674	23372
877.802	23414
877.93	23448
878.058	23261
878.185	23307
878.313	23265
878.441	23292
878.568	23235
878.696	23364
878.824	23414
878.951	23345
879.079	23516
879.206	23611
879.333	23570
879.461	23368
879.588	23501
879.715	23531
879.842	23547
879.97	23474
880.097	23208
880.224	23136
880.351	23132
880.478	22999
880.605	23048
880.732	23132
880.859	23486
880.986	23239
881.112	23185
881.239	23098
881.366	22976
881.493	22843
881.619	22710
881.746	22801
881.872	22771
881.999	22725
882.125	22584
882.252	22900
882.378	22653
882.505	22809
882.631	22523
882.757	22428
882.883	22542
883.01	22474
883.136	22428
883.262	22230
883.388	22337
883.514	22470
883.64	22432
883.766	22303
883.892	22211
884.018	22162
884.143	22329
884.269	22424
884.395	22188
884.52	22059
884.646	22181
884.772	21953
884.897	22036
885.023	22067
885.148	22287
885.274	22124
885.399	22101
885.524	22131
885.65	22040
885.775	22188
885.9	22017
886.025	22177
886.15	22086
886.275	21953
886.4	21945
886.525	21945
886.65	21922
886.775	21911
886.9	22211
887.025	22230
887.149	22032
887.274	21972
887.399	21656
887.523	21850
887.648	21709
887.773	21660
887.897	21918
888.021	21918
888.146	21667
888.27	21808
888.395	21884
888.519	21800
888.643	21819
888.767	21770
888.891	21633
889.015	21500
889.139	21637
889.263	21583
889.387	21732
889.511	21778
889.635	21625
889.759	21625
889.883	21507
890.006	21675
890.13	21675
890.254	21477
890.377	21481
890.501	21317
890.624	21367
890.748	21332
890.871	21279
890.995	21066
891.118	21100
891.241	21112
891.364	21085
891.488	21264
891.611	21066
891.734	21169
891.857	21233
891.98	21169
892.103	21207
892.226	21055
892.349	21157
892.471	20880
892.594	21150
892.717	21013
892.839	20941
892.962	21017
893.085	21127
893.207	21001
893.33	20853
893.452	21058
893.575	21116
893.697	21028
893.819	21135
893.941	21283
894.064	21272
894.186	20998
894.308	20914
894.43	21081
894.552	21142
894.674	21135
894.796	20899
894.918	20914
895.04	20956
895.161	21070
895.283	20963
895.405	20929
895.526	20948
895.648	20895
895.769	21058
895.891	21058
896.012	21127
896.134	21062
896.255	21077
896.376	21028
896.498	21001
896.619	21017
896.74	20849
896.861	21100
896.982	21279
897.103	21431
897.224	21355
897.345	21131
897.466	21036
897.587	21180
897.708	21325
897.828	21310
897.949	21135
898.07	21085
898.19	21176
898.311	21237
898.431	21188
898.552	21211
898.672	21184
898.792	21283
898.913	21237
899.033	21184
899.153	20975
899.273	20967
899.393	20944
899.513	21036
899.633	20857
899.753	20925
899.873	20948
899.993	20861
900.113	20925
900.232	20975
900.352	20845
900.472	20857
900.591	20682
900.711	20743
900.83	20636
900.95	20830
901.069	20670
901.189	20571
901.308	20332
901.427	20259
901.546	20252
901.665	20168
901.784	20313
901.904	20111
902.023	20031
902.141	19871
902.26	19803
902.379	19757
902.498	19791
902.617	19681
902.735	19750
902.854	19765
902.973	19841
903.091	19499
903.21	19392
903.328	19480
903.446	19263
903.565	19312
903.683	19175
903.801	19137
903.919	19236
904.038	19202
904.156	18924
904.274	19126
904.392	18973
904.51	18928
904.627	19072
904.745	19164
904.863	19061
904.981	18692
905.098	18620
905.216	18700
905.334	18764
905.451	18616
905.569	18661
905.686	18635
905.803	18757
905.921	18311
906.038	18547
906.155	18426
906.272	18357
906.389	18399
906.506	18228
906.623	18152
906.74	18334
906.857	18117
906.974	18213
907.091	18311
907.208	18285
907.324	18186
907.441	18117
907.557	17893
907.674	17965
907.79	17813
907.907	17851
908.023	17904
908.139	17863
908.256	17798
908.372	17718
908.488	17695
908.604	17623
908.72	17520
908.836	17585
908.952	17562
909.068	17634
909.184	17729
909.3	17573
909.415	17600
909.531	17570
909.647	17326
909.762	17398
909.878	17296
909.993	17376
910.108	17227
910.224	17315
910.339	17261
910.454	17170
910.57	17105
910.685	17166
910.8	17379
910.915	17269
911.03	17166
911.145	16942
911.259	16991
911.374	16908
911.489	16797
911.604	16797
911.718	16615
911.833	16512
911.947	16561
912.062	16500
912.176	16740
912.291	16675
912.405	16645
912.519	16885
912.633	16843
912.748	16656
912.862	16668
912.976	16500
913.09	16284
913.204	16352
913.318	16538
913.431	16527
913.545	16519
913.659	16615
913.772	16363
913.886	16230
914	16200
914.113	16325
914.226	16375
914.34	16226
914.453	16177
914.566	16177
914.68	16097
914.793	16090
914.906	15934
915.019	15812
915.132	15759
915.245	15846
915.358	15846
915.47	15819
915.583	15892
915.696	15846
915.809	15953
915.921	15998
916.034	15831
916.146	15694
916.259	15625
916.371	15747
916.483	15724
916.595	15686
916.708	15652
916.82	15728
916.932	15644
917.044	15667
917.156	15435
917.268	15340
917.38	15424
917.491	15443
917.603	15576
917.715	15599
917.826	15507
917.938	15443
918.049	15329
918.161	15378
918.272	15564
918.384	15519
918.495	15329
918.606	15237
918.717	15180
918.828	15214
918.939	15199
919.05	15039
919.161	15062
919.272	15020
919.383	14982
919.494	15226
919.604	15389
919.715	15116
919.826	15032
919.936	15104
920.047	15237
920.157	15135
920.267	15367
920.378	15154
920.488	15077
920.598	15344
920.708	15435
920.818	15260
920.928	15256
921.038	15492
921.148	15363
921.258	15100
921.368	14906
921.477	14849
921.587	14849
921.697	14720
921.806	14819
921.916	14686
922.025	14507
922.134	14518
922.244	14393
922.353	14533
922.462	14347
922.571	14218
922.68	14225
922.789	14130
922.898	14126
923.007	14100
923.116	14183
923.224	14065
923.333	14107
923.442	14008
923.55	13974
923.659	14024
923.767	14046
923.876	13917
923.984	13982
924.092	13856
924.201	14001
924.309	13864
924.417	13807
924.525	13738
924.633	13788
924.741	14720
924.849	13594
924.956	13753
925.064	13605
925.172	13499
925.279	13495
925.387	13594
925.494	13403
925.602	13601
925.709	13529
925.816	13464
925.924	13476
926.031	13605
926.138	13441
926.245	13464
926.352	13285
926.459	13472
926.566	13544
926.673	13297
926.779	13240
926.886	13335
926.993	13160
927.099	13152
927.206	12951
927.312	12897
927.419	13038
927.525	13031
927.631	13072
927.737	12939
927.843	12947
927.95	12768
928.056	12886
928.162	12916
928.267	12932
928.373	13567
928.479	12981
928.585	12760
928.69	12753
928.796	12829
928.901	12688
929.007	12673
929.112	12734
929.218	12696
929.323	12566
929.428	12517
929.533	12631
929.638	12536
929.743	12547
929.848	12441
929.953	12681
930.058	12391
930.163	12292
930.267	12273
930.372	12403
930.477	12270
930.581	12467
930.685	12239
930.79	12155
930.894	12190
930.998	12087
931.103	12205
931.207	11847
931.311	11798
931.415	11729
931.519	11524
931.623	11547
