Data from test_V78500241_2309.txt Node
Date: Fri Mar 25 15:57:47 CST 2022
User: usil
Spectrometer: V785-0024
Trigger mode: 0
Integration Time (sec): 4.000000E-1
Scans to average: 1
Nonlinearity correction enabled: false
Boxcar width: 0
Storing dark spectrum: false
XAxis mode: Wavelengths
Number of Pixels in Spectrum: 1024
>>>>>Begin Spectral Data<<<<<
801.071	28816
801.214	28664
801.356	28470
801.499	28428
801.641	28405
801.783	28516
801.926	28497
802.068	28382
802.211	28249
802.353	28147
802.496	28128
802.638	28101
802.78	28067
802.923	27979
803.065	28162
803.208	28067
803.35	27949
803.492	28249
803.635	28356
803.777	28211
803.919	28436
804.061	28626
804.204	28455
804.346	28196
804.488	28139
804.63	28306
804.773	28428
804.915	28489
805.057	28440
805.199	28303
805.341	28303
805.483	28535
805.626	28470
805.768	28455
805.91	28474
806.052	28588
806.194	28341
806.336	28710
806.478	28455
806.62	28535
806.762	28599
806.904	28801
807.046	28965
807.188	28980
807.33	28942
807.472	29064
807.614	28782
807.756	28923
807.898	28721
808.04	28744
808.182	28736
808.324	28896
808.465	28847
808.607	28934
808.749	29307
808.891	29311
809.033	29261
809.174	29166
809.316	29239
809.458	29136
809.6	29231
809.741	29292
809.883	29364
810.025	29463
810.166	29379
810.308	29471
810.45	29299
810.591	29322
810.733	29124
810.875	29121
811.016	29204
811.158	29185
811.299	29307
811.441	29398
811.582	29322
811.724	29208
811.865	29235
812.007	29223
812.148	29189
812.29	29341
812.431	29474
812.573	29630
812.714	29554
812.855	29783
812.997	29878
813.138	29992
813.279	29737
813.421	29619
813.562	29642
813.703	29493
813.845	29520
813.986	29220
814.127	28911
814.268	28888
814.41	28915
814.551	28968
814.692	29014
814.833	28915
814.974	28885
815.115	28953
815.256	28759
815.397	28858
815.539	28710
815.68	28744
815.821	28748
815.962	28706
816.103	28755
816.244	28599
816.385	28542
816.526	28504
816.666	28314
816.807	28318
816.948	28375
817.089	28234
817.23	28276
817.371	28067
817.512	28242
817.653	28181
817.793	28257
817.934	28074
818.075	28337
818.216	28181
818.356	28044
818.497	28078
818.638	27960
818.778	27876
818.919	27914
819.06	28055
819.2	28112
819.341	28211
819.481	28162
819.622	28337
819.762	28588
819.903	28398
820.043	28500
820.184	28299
820.324	28428
820.465	28440
820.605	28291
820.746	28333
820.886	28185
821.026	28268
821.167	28204
821.307	28272
821.447	28261
821.588	28082
821.728	28051
821.868	27785
822.008	27774
822.149	27720
822.289	27713
822.429	27466
822.569	27275
822.709	27291
822.849	27298
822.99	27222
823.13	27112
823.27	27157
823.41	27051
823.55	27070
823.69	27039
823.83	26925
823.97	27055
824.11	26773
824.25	26773
824.389	26819
824.529	27043
824.669	26876
824.809	27112
824.949	26906
825.089	26998
825.228	26925
825.368	26655
825.508	26743
825.648	26834
825.787	26708
825.927	26823
826.067	26693
826.206	26830
826.346	26842
826.485	26804
826.625	26689
826.765	26796
826.904	26887
827.044	26606
827.183	26564
827.323	26507
827.462	26473
827.601	26484
827.741	26450
827.88	26568
828.02	26461
828.159	26495
828.298	26537
828.437	26511
828.577	26404
828.716	26541
828.855	26362
828.994	26149
829.134	26096
829.273	26218
829.412	26084
829.551	26069
829.69	26138
829.829	26183
829.968	26168
830.107	26191
830.246	26062
830.385	26191
830.524	26119
830.663	25902
830.802	25814
830.941	25655
831.08	25700
831.219	25932
831.357	25928
831.496	26088
831.635	25894
831.774	25658
831.913	25655
832.051	25552
832.19	25521
832.329	25601
832.467	25499
832.606	25415
832.744	25312
832.883	25472
833.022	25434
833.16	25468
833.299	25457
833.437	25506
833.576	25544
833.714	25479
833.852	25556
833.991	25422
834.129	25677
834.267	25624
834.406	25510
834.544	25537
834.682	25472
834.821	25354
834.959	25639
835.097	25476
835.235	25449
835.373	25483
835.511	25540
835.65	25274
835.788	25213
835.926	25251
836.064	25122
836.202	25031
836.34	25373
836.478	25384
836.615	25396
836.753	25396
836.891	25354
837.029	25419
837.167	25266
837.305	25179
837.443	25133
837.58	25122
837.718	25217
837.856	25236
837.993	25126
838.131	25069
838.269	24939
838.406	24916
838.544	24970
838.681	24711
838.819	24802
838.956	24642
839.094	24536
839.231	24532
839.369	24749
839.506	25053
839.643	24779
839.781	24532
839.918	24642
840.055	24483
840.193	24570
840.33	24509
840.467	24445
840.604	24555
840.742	24768
840.879	24296
841.016	24475
841.153	24513
841.29	24479
841.427	24388
841.564	24525
841.701	24490
841.838	24334
841.975	24327
842.112	24403
842.249	24277
842.385	24235
842.522	24490
842.659	24171
842.796	24125
842.933	24239
843.069	24182
843.206	24106
843.343	24403
843.479	24171
843.616	24361
843.752	24076
843.889	24106
844.025	24205
844.162	24083
844.298	24060
844.435	24011
844.571	23939
844.708	24022
844.844	24178
844.98	24171
845.117	24083
845.253	24087
845.389	23931
845.525	24015
845.661	23874
845.798	23779
845.934	23840
846.07	23756
846.206	23726
846.342	23836
846.478	23726
846.614	23551
846.75	23493
846.886	23459
847.022	23524
847.158	23535
847.294	23512
847.429	23512
847.565	23471
847.701	23672
847.837	23216
847.972	23181
848.108	23280
848.244	23185
848.379	23060
848.515	23083
848.65	22991
848.786	23048
848.921	23143
849.057	23143
849.192	23105
849.328	23086
849.463	23022
849.598	22934
849.734	22972
849.869	22972
850.004	22824
850.14	22786
850.275	22824
850.41	22736
850.545	22847
850.68	22744
850.815	22919
850.95	22812
851.085	23014
851.22	22949
851.355	22869
851.49	22771
851.625	22710
851.76	22740
851.895	22679
852.03	22664
852.165	22835
852.299	22881
852.434	22889
852.569	22850
852.703	22839
852.838	22881
852.973	22869
853.107	22934
853.242	22752
853.376	22679
853.511	22493
853.645	22596
853.78	22790
853.914	22687
854.048	22588
854.183	22725
854.317	22645
854.451	22873
854.585	22733
854.72	22634
854.854	22717
854.988	22607
855.122	22618
855.256	22493
855.39	22538
855.524	22698
855.658	22710
855.792	22634
855.926	22725
856.06	22729
856.194	22729
856.327	22592
856.461	22443
856.595	22584
856.729	22698
856.862	22740
856.996	22717
857.13	22797
857.263	22713
857.397	22683
857.53	22691
857.664	22736
857.797	22664
857.931	22702
858.064	22637
858.197	22721
858.331	22546
858.464	22478
858.597	22481
858.731	22550
858.864	22577
858.997	22542
859.13	22744
859.263	22694
859.396	22755
859.529	22626
859.662	22523
859.795	22569
859.928	22584
860.061	22683
860.194	22889
860.327	22771
860.46	22717
860.592	22873
860.725	22812
860.858	22694
860.99	22596
861.123	22554
861.256	22664
861.388	22706
861.521	23402
861.653	22588
861.786	22455
861.918	22432
862.05	22508
862.183	22466
862.315	22607
862.447	22660
862.58	22584
862.712	22352
862.844	22451
862.976	22512
863.108	22413
863.24	22946
863.372	22295
863.504	22276
863.636	22284
863.768	22344
863.9	22394
864.032	22291
864.164	22322
864.296	22272
864.428	22440
864.559	22303
864.691	22432
864.823	22268
864.954	22333
865.086	22367
865.217	22139
865.349	22181
865.48	22344
865.612	22181
865.743	22303
865.875	22101
866.006	22158
866.137	22280
866.269	22173
866.4	22173
866.531	22162
866.662	22234
866.793	22131
866.924	22048
867.055	22173
867.186	22261
867.317	22158
867.448	22040
867.579	22090
867.71	22006
867.841	22021
867.972	22116
868.103	22192
868.233	22147
868.364	22090
868.495	22352
868.625	22333
868.756	22379
868.886	22204
869.017	22363
869.147	22348
869.278	22630
869.408	22417
869.539	22398
869.669	22462
869.799	22356
869.929	22546
870.06	22504
870.19	22660
870.32	22698
870.45	22706
870.58	22839
870.71	22778
870.84	22900
870.97	22660
871.1	22740
871.23	22881
871.36	22946
871.489	22786
871.619	22927
871.749	22999
871.879	22995
872.008	23174
872.138	23098
872.267	22896
872.397	22835
872.526	22710
872.656	22759
872.785	22839
872.915	22957
873.044	23162
873.173	23010
873.303	23075
873.432	23056
873.561	22904
873.69	22934
873.819	22938
873.948	23029
874.077	22980
874.206	22976
874.335	23010
874.464	23204
874.593	23197
874.722	23155
874.851	23204
874.979	23227
875.108	23212
875.237	23189
875.365	23067
875.494	23261
875.623	23239
875.751	23105
875.88	23258
876.008	23292
876.136	23395
876.265	23611
876.393	23577
876.521	23630
876.65	23649
876.778	23531
876.906	23570
877.034	23611
877.162	23577
877.29	23486
877.418	23592
877.546	23501
877.674	23452
877.802	23551
877.93	23554
878.058	23497
878.185	23387
878.313	23615
878.441	23600
878.568	23421
878.696	23539
878.824	23608
878.951	23691
879.079	23718
879.206	23805
879.333	23608
879.461	23589
879.588	23623
879.715	23756
879.842	23813
879.97	23680
880.097	23258
880.224	23356
880.351	23353
880.478	23360
880.605	23360
880.732	23315
880.859	23573
880.986	23334
881.112	23497
881.239	23208
881.366	23003
881.493	23037
881.619	22927
881.746	23159
881.872	23010
881.999	22858
882.125	22839
882.252	22862
882.378	22942
882.505	22991
882.631	22797
882.757	22687
882.883	22626
883.01	22603
883.136	22546
883.262	22527
883.388	22398
883.514	22561
883.64	22580
883.766	22478
883.892	22322
884.018	22329
884.143	22470
884.269	22577
884.395	22280
884.52	22162
884.646	22150
884.772	22204
884.897	22169
885.023	22234
885.148	22341
885.274	22462
885.399	22284
885.524	22284
885.65	22249
885.775	22272
885.9	22223
886.025	22440
886.15	22291
886.275	22181
886.4	21998
886.525	22135
886.65	22177
886.775	22051
886.9	22344
887.025	22413
887.149	22257
887.274	22036
887.399	22021
887.523	22051
887.648	21930
887.773	21854
887.897	22211
888.021	21983
888.146	21903
888.27	22109
888.395	22101
888.519	21949
888.643	22097
888.767	21994
888.891	21922
889.015	21800
889.139	21880
889.263	21686
889.387	21934
889.511	22025
889.635	21865
889.759	21854
889.883	21812
890.006	21831
890.13	21785
890.254	21629
890.377	21781
890.501	21420
890.624	21481
890.748	21576
890.871	21321
890.995	21264
891.118	21252
891.241	21310
891.364	21237
891.488	21382
891.611	21252
891.734	21405
891.857	21431
891.98	21317
892.103	21355
892.226	21382
892.349	21348
892.471	21142
892.594	21275
892.717	21260
892.839	21226
892.962	21154
893.085	21222
893.207	21249
893.33	21173
893.452	21104
893.575	21252
893.697	21192
893.819	21351
893.941	21351
894.064	21306
894.186	21230
894.308	21089
894.43	21336
894.552	21359
894.674	21279
894.796	21058
894.918	21176
895.04	21131
895.161	21138
895.283	21138
895.405	21169
895.526	21135
895.648	21085
895.769	21252
895.891	21192
896.012	21230
896.134	21195
896.255	21123
896.376	21188
896.498	21195
896.619	21245
896.74	21146
896.861	21218
896.982	21538
897.103	21690
897.224	21447
897.345	21450
897.466	21310
897.587	21336
897.708	21435
897.828	21325
897.949	21283
898.07	21230
898.19	21363
898.311	21458
898.431	21249
898.552	21351
898.672	21443
898.792	21401
898.913	21363
899.033	21264
899.153	21275
899.273	21093
899.393	21173
899.513	21260
899.633	21081
899.753	21062
899.873	21062
899.993	21100
900.113	20990
900.232	21055
900.352	21066
900.472	20963
900.591	20876
900.711	20952
900.83	20891
900.95	20899
901.069	21051
901.189	20788
901.308	20560
901.427	20499
901.546	20404
901.665	20476
901.784	20393
901.904	20298
902.023	20199
902.141	20027
902.26	19967
902.379	20122
902.498	19898
902.617	19894
902.735	19944
902.854	19776
902.973	19868
903.091	19548
903.21	19674
903.328	19537
903.446	19407
903.565	19263
903.683	19301
903.801	19179
903.919	19331
904.038	19343
904.156	19171
904.274	19240
904.392	19282
904.51	19114
904.627	19114
904.745	19076
904.863	19114
904.981	19008
905.098	18878
905.216	18901
905.334	18810
905.451	18825
905.569	18726
905.686	18852
905.803	18795
905.921	18635
906.038	18631
906.155	18654
906.272	18445
906.389	18494
906.506	18403
906.623	18334
906.74	18311
906.857	18292
906.974	18342
907.091	18391
907.208	18494
907.324	18346
907.441	18350
907.557	18216
907.674	17965
907.79	17946
907.907	17999
908.023	18060
908.139	18038
908.256	17988
908.372	17996
908.488	17878
908.604	17912
908.72	17802
908.836	17809
908.952	17676
909.068	17737
909.184	17863
909.3	17855
909.415	17703
909.531	17729
909.647	17581
909.762	17493
909.878	17429
909.993	17440
910.108	17459
910.224	17337
910.339	17387
910.454	17326
910.57	17307
910.685	17208
910.8	17436
910.915	17467
911.03	17337
911.145	16949
911.259	17014
911.374	16987
911.489	16850
911.604	16915
911.718	16820
911.833	16839
911.947	16752
912.062	16618
912.176	16725
912.291	16801
912.405	16717
912.519	17006
912.633	16949
912.748	16771
912.862	16767
912.976	16577
913.09	16443
913.204	16497
913.318	16599
913.431	16767
913.545	16577
913.659	16641
913.772	16508
913.886	16329
914	16314
914.113	16424
914.226	16554
914.34	16348
914.453	16333
914.566	16432
914.68	16230
914.793	16246
914.906	16029
915.019	15994
915.132	15907
915.245	15941
915.358	15937
915.47	15968
915.583	15895
915.696	15869
915.809	16150
915.921	16116
916.034	15838
916.146	15838
916.259	15918
916.371	15842
916.483	15915
916.595	15892
916.708	15804
916.82	15751
916.932	15694
917.044	15690
917.156	15698
917.268	15584
917.38	15504
917.491	15603
917.603	15595
917.715	15603
917.826	15633
917.938	15549
918.049	15428
918.161	15530
918.272	15603
918.384	15618
918.495	15557
918.606	15382
918.717	15336
918.828	15378
918.939	15294
919.05	15199
919.161	15211
919.272	15154
919.383	15203
919.494	15298
919.604	15416
919.715	15249
919.826	15233
919.936	15207
920.047	15241
920.157	15188
920.267	15568
920.378	15291
920.488	15245
920.598	15466
920.708	15492
920.818	15382
920.928	15363
921.038	15534
921.148	15496
921.258	15199
921.368	15157
921.477	15032
921.587	14975
921.697	14826
921.806	14948
921.916	14838
922.025	14762
922.134	14632
922.244	14613
922.353	14659
922.462	14393
922.571	14438
922.68	14328
922.789	14351
922.898	14317
923.007	14210
923.116	14317
923.224	14237
923.333	14214
923.442	14065
923.55	14096
923.659	14077
923.767	14123
923.876	14073
923.984	14058
924.092	13967
924.201	14039
924.309	14020
924.417	14054
924.525	13959
924.633	13902
924.741	14872
924.849	13750
924.956	13765
925.064	13658
925.172	13723
925.279	13681
925.387	13715
925.494	13715
925.602	13757
925.709	13704
925.816	13597
925.924	13529
926.031	13731
926.138	13658
926.245	13643
926.352	13521
926.459	13571
926.566	13609
926.673	13658
926.779	13411
926.886	13362
926.993	13228
927.099	13198
927.206	13179
927.312	13137
927.419	13255
927.525	13209
927.631	13198
927.737	13107
927.843	13091
927.95	12962
928.056	13012
928.162	13008
928.267	13141
928.373	13689
928.479	13091
928.585	12772
928.69	12996
928.796	12977
928.901	12863
929.007	12764
929.112	12886
929.218	12791
929.323	12795
929.428	12700
929.533	12833
929.638	12753
929.743	12730
929.848	12703
929.953	12681
930.058	12662
930.163	12448
930.267	12380
930.372	12506
930.477	12315
930.581	12563
930.685	12410
930.79	12304
930.894	12224
930.998	12262
931.103	12365
931.207	12026
931.311	11874
931.415	11764
931.519	11733
931.623	11646
