Data from test_V78500241_3693.txt Node
Date: Fri Mar 25 16:07:23 CST 2022
User: usil
Spectrometer: V785-0024
Trigger mode: 0
Integration Time (sec): 4.000000E-1
Scans to average: 1
Nonlinearity correction enabled: false
Boxcar width: 0
Storing dark spectrum: false
XAxis mode: Wavelengths
Number of Pixels in Spectrum: 1024
>>>>>Begin Spectral Data<<<<<
801.071	28451
801.214	28470
801.356	28200
801.499	28090
801.641	28116
801.783	27956
801.926	28082
802.068	28051
802.211	28086
802.353	27987
802.496	27876
802.638	27705
802.78	27660
802.923	27770
803.065	27660
803.208	27717
803.35	27823
803.492	27895
803.635	27937
803.777	27876
803.919	27918
804.061	28226
804.204	28063
804.346	27934
804.488	27785
804.63	27956
804.773	27705
804.915	28086
805.057	28150
805.199	28074
805.341	28036
805.483	28112
805.626	28188
805.768	27979
805.91	28112
806.052	28120
806.194	28101
806.336	28348
806.478	28181
806.62	28200
806.762	28215
806.904	28428
807.046	28706
807.188	28649
807.33	28607
807.472	28622
807.614	28584
807.756	28516
807.898	28596
808.04	28257
808.182	28310
808.324	28497
808.465	28493
808.607	28694
808.749	28892
808.891	29098
809.033	28900
809.174	28900
809.316	28767
809.458	28713
809.6	28816
809.741	28801
809.883	29018
810.025	29067
810.166	29079
810.308	29025
810.45	28869
810.591	28991
810.733	28908
810.875	28691
811.016	28774
811.158	28706
811.299	29044
811.441	28927
811.582	29003
811.724	28892
811.865	28904
812.007	28862
812.148	28866
812.29	28949
812.431	28980
812.573	29231
812.714	29322
812.855	29387
812.997	29322
813.138	29619
813.279	29592
813.421	29387
813.562	29345
813.703	29273
813.845	29056
813.986	28740
814.127	28740
814.268	28645
814.41	28622
814.551	28592
814.692	28596
814.833	28489
814.974	28485
815.115	28531
815.256	28462
815.397	28401
815.539	28401
815.68	28405
815.821	28299
815.962	28303
816.103	28451
816.244	28223
816.385	28120
816.526	28097
816.666	27994
816.807	27937
816.948	27789
817.089	27914
817.23	27903
817.371	27800
817.512	27823
817.653	27838
817.793	27743
817.934	27846
818.075	27720
818.216	27922
818.356	27831
818.497	27667
818.638	27572
818.778	27545
818.919	27557
819.06	27759
819.2	27739
819.341	27835
819.481	27770
819.622	28029
819.762	28238
819.903	28207
820.043	27960
820.184	28097
820.324	27998
820.465	27869
820.605	27865
820.746	27819
820.886	27854
821.026	27914
821.167	28006
821.307	28067
821.447	28002
821.588	27808
821.728	27618
821.868	27515
822.008	27351
822.149	27340
822.289	27291
822.429	26990
822.569	26944
822.709	26902
822.849	26864
822.99	26891
823.13	26785
823.27	26769
823.41	26731
823.55	26533
823.69	26632
823.83	26636
823.97	26648
824.11	26488
824.25	26408
824.389	26511
824.529	26552
824.669	26434
824.809	26579
824.949	26583
825.089	26621
825.228	26541
825.368	26237
825.508	26313
825.648	26313
825.787	26362
825.927	26465
826.067	26374
826.206	26393
826.346	26377
826.485	26499
826.625	26393
826.765	26549
826.904	26370
827.044	26252
827.183	26092
827.323	26016
827.462	26062
827.601	26134
827.741	26043
827.88	26145
828.02	26031
828.159	26149
828.298	26115
828.437	26107
828.577	26062
828.716	26138
828.855	26001
828.994	25818
829.134	25734
829.273	25776
829.412	25677
829.551	25719
829.69	25811
829.829	25871
829.968	25753
830.107	25978
830.246	25803
830.385	25666
830.524	25674
830.663	25502
830.802	25457
830.941	25240
831.08	25464
831.219	25529
831.357	25529
831.496	25715
831.635	25552
831.774	25350
831.913	25270
832.051	25156
832.19	25061
832.329	25228
832.467	25061
832.606	25012
832.744	25015
832.883	24897
833.022	25088
833.16	25004
833.299	25000
833.437	25065
833.576	25251
833.714	24989
833.852	25099
833.991	25304
834.129	25217
834.267	25259
834.406	25114
834.544	25122
834.682	25217
834.821	25217
834.959	25381
835.097	25145
835.235	25110
835.373	25034
835.511	25091
835.65	24924
835.788	24867
835.926	24932
836.064	24768
836.202	24783
836.34	24973
836.478	24996
836.615	25000
836.753	24996
836.891	25110
837.029	24924
837.167	24863
837.305	24970
837.443	24856
837.58	24749
837.718	24833
837.856	24810
837.993	24741
838.131	24844
838.269	24608
838.406	24806
838.544	24665
838.681	24429
838.819	24429
838.956	24334
839.094	24266
839.231	24239
839.369	24494
839.506	24612
839.643	24414
839.781	24205
839.918	24171
840.055	24194
840.193	24125
840.33	24148
840.467	24121
840.604	24270
840.742	24464
840.879	24060
841.016	24083
841.153	24159
841.29	24251
841.427	24182
841.564	24155
841.701	24235
841.838	24205
841.975	24079
842.112	24106
842.249	23840
842.385	23980
842.522	24106
842.659	24026
842.796	23939
842.933	23931
843.069	23950
843.206	23923
843.343	24018
843.479	23885
843.616	24022
843.752	23760
843.889	23684
844.025	23988
844.162	23657
844.298	23805
844.435	23608
844.571	23767
844.708	23756
844.844	23916
844.98	23809
845.117	23851
845.253	23562
845.389	23653
845.525	23642
845.661	23611
845.798	23497
845.934	23440
846.07	23364
846.206	23391
846.342	23520
846.478	23402
846.614	23288
846.75	23098
846.886	23102
847.022	23258
847.158	23337
847.294	23155
847.429	23109
847.565	23166
847.701	23376
847.837	22866
847.972	22942
848.108	23037
848.244	22908
848.379	22850
848.515	22801
848.65	22755
848.786	22771
848.921	22858
849.057	22915
849.192	22847
849.328	22767
849.463	22672
849.598	22649
849.734	22626
849.869	22519
850.004	22557
850.14	22538
850.275	22512
850.41	22565
850.545	22436
850.68	22645
850.815	22675
850.95	22379
851.085	22725
851.22	22721
851.355	22580
851.49	22462
851.625	22440
851.76	22512
851.895	22489
852.03	22504
852.165	22527
852.299	22634
852.434	22618
852.569	22630
852.703	22489
852.838	22645
852.973	22634
853.107	22577
853.242	22531
853.376	22413
853.511	22200
853.645	22253
853.78	22447
853.914	22325
854.048	22265
854.183	22382
854.317	22318
854.451	22508
854.585	22341
854.72	22295
854.854	22455
854.988	22348
855.122	22428
855.256	22185
855.39	22249
855.524	22390
855.658	22447
855.792	22421
855.926	22375
856.06	22398
856.194	22497
856.327	22166
856.461	22295
856.595	22299
856.729	22276
856.862	22466
856.996	22314
857.13	22329
857.263	22432
857.397	22424
857.53	22375
857.664	22550
857.797	22478
857.931	22432
858.064	22348
858.197	22538
858.331	22352
858.464	22322
858.597	22166
858.731	22314
858.864	22306
858.997	22428
859.13	22246
859.263	22295
859.396	22402
859.529	22318
859.662	22318
859.795	22238
859.928	22459
860.061	22516
860.194	22527
860.327	22443
860.46	22390
860.592	22432
860.725	22421
860.858	22481
860.99	22268
861.123	22246
861.256	22284
861.388	22344
861.521	23094
861.653	22124
861.786	22059
861.918	22135
862.05	22230
862.183	22219
862.315	22394
862.447	22535
862.58	22333
862.712	22162
862.844	22116
862.976	22192
863.108	22181
863.24	22592
863.372	22093
863.504	22078
863.636	22086
863.768	22093
863.9	22093
864.032	22067
864.164	21956
864.296	21987
864.428	22059
864.559	22090
864.691	22093
864.823	22166
864.954	22055
865.086	22044
865.217	21941
865.349	21850
865.48	21903
865.612	22002
865.743	22078
865.875	22021
866.006	21876
866.137	21983
866.269	21998
866.4	21922
866.531	21956
866.662	21789
866.793	21781
866.924	21850
867.055	21899
867.186	22029
867.317	21781
867.448	21728
867.579	21823
867.71	21717
867.841	21660
867.972	21827
868.103	21873
868.233	21835
868.364	21816
868.495	21979
868.625	22048
868.756	22051
868.886	22109
869.017	22070
869.147	22154
869.278	22219
869.408	22063
869.539	22139
869.669	22200
869.799	22131
869.929	22299
870.06	22166
870.19	22398
870.32	22367
870.45	22497
870.58	22455
870.71	22683
870.84	22694
870.97	22523
871.1	22504
871.23	22592
871.36	22679
871.489	22561
871.619	22706
871.749	22713
871.879	22759
872.008	22881
872.138	22733
872.267	22748
872.397	22637
872.526	22523
872.656	22531
872.785	22538
872.915	22752
873.044	22771
873.173	22767
873.303	22672
873.432	22778
873.561	22877
873.69	22668
873.819	22653
873.948	22752
874.077	22607
874.206	22687
874.335	22672
874.464	22850
874.593	22854
874.722	22942
874.851	22942
874.979	22885
875.108	22991
875.237	22809
875.365	22835
875.494	22847
875.623	22991
875.751	22767
875.88	22980
876.008	23162
876.136	23121
876.265	23292
876.393	23490
876.521	23379
876.65	23395
876.778	23417
876.906	23296
877.034	23265
877.162	23143
877.29	23322
877.418	23330
877.546	23265
877.674	23261
877.802	23303
877.93	23136
878.058	23193
878.185	23071
878.313	23261
878.441	23181
878.568	23064
878.696	23220
878.824	23280
878.951	23387
879.079	23372
879.206	23570
879.333	23436
879.461	23296
879.588	23334
879.715	23463
879.842	23478
879.97	23379
880.097	23181
880.224	23048
880.351	23121
880.478	23181
880.605	23029
880.732	23048
880.859	23303
880.986	23113
881.112	22980
881.239	22984
881.366	22877
881.493	22790
881.619	22767
881.746	22694
881.872	22584
881.999	22698
882.125	22565
882.252	22637
882.378	22569
882.505	22767
882.631	22546
882.757	22390
882.883	22329
883.01	22356
883.136	22344
883.262	22188
883.388	22169
883.514	22268
883.64	22428
883.766	22158
883.892	22090
884.018	22177
884.143	22303
884.269	22428
884.395	22063
884.52	21911
884.646	21903
884.772	21793
884.897	21861
885.023	21930
885.148	22051
885.274	22105
885.399	22044
885.524	21945
885.65	22078
885.775	22097
885.9	22059
886.025	22188
886.15	21945
886.275	21949
886.4	21911
886.525	21918
886.65	21922
886.775	21827
886.9	22109
887.025	22215
887.149	21949
887.274	21770
887.399	21705
887.523	21728
887.648	21762
887.773	21720
887.897	21778
888.021	21720
888.146	21709
888.27	21800
888.395	21827
888.519	21675
888.643	21789
888.767	21899
888.891	21610
889.015	21583
889.139	21511
889.263	21511
889.387	21705
889.511	21747
889.635	21595
889.759	21477
889.883	21450
890.006	21580
890.13	21637
890.254	21450
890.377	21329
890.501	21241
890.624	21142
890.748	21275
890.871	21085
890.995	20982
891.118	21062
891.241	21169
891.364	21013
891.488	21222
891.611	21131
891.734	21135
891.857	21237
891.98	21127
892.103	21138
892.226	21051
892.349	20982
892.471	20781
892.594	20830
892.717	21005
892.839	20960
892.962	21055
893.085	21043
893.207	20967
893.33	20971
893.452	21024
893.575	20994
893.697	21043
893.819	21157
893.941	21089
894.064	21043
894.186	20891
894.308	21001
894.43	21142
894.552	21039
894.674	21051
894.796	20864
894.918	20941
895.04	20906
895.161	21039
895.283	21089
895.405	20864
895.526	20933
895.648	20948
895.769	21043
895.891	20944
896.012	21058
896.134	20994
896.255	20986
896.376	20933
896.498	20998
896.619	20864
896.74	20971
896.861	21096
896.982	21157
897.103	21389
897.224	21214
897.345	21119
897.466	21024
897.587	21199
897.708	21272
897.828	21169
897.949	21104
898.07	20971
898.19	21039
898.311	21249
898.431	21001
898.552	21089
898.672	21135
898.792	21336
898.913	21154
899.033	21062
899.153	20830
899.273	20762
899.393	20891
899.513	20975
899.633	20998
899.753	20857
899.873	20910
899.993	20918
900.113	20811
900.232	20758
900.352	20777
900.472	20636
900.591	20549
900.711	20701
900.83	20621
900.95	20769
901.069	20651
901.189	20541
901.308	20415
901.427	20259
901.546	20134
901.665	20282
901.784	20218
901.904	19974
902.023	19978
902.141	19837
902.26	19677
902.379	19833
902.498	19662
902.617	19723
902.735	19674
902.854	19639
902.973	19525
903.091	19350
903.21	19407
903.328	19449
903.446	19381
903.565	19152
903.683	19259
903.801	19038
903.919	19137
904.038	19255
904.156	19038
904.274	18989
904.392	18954
904.51	18875
904.627	18943
904.745	19019
904.863	18947
904.981	18711
905.098	18673
905.216	18684
905.334	18669
905.451	18684
905.569	18566
905.686	18688
905.803	18692
905.921	18273
906.038	18467
906.155	18517
906.272	18251
906.389	18407
906.506	18125
906.623	18258
906.74	18091
906.857	18064
906.974	18091
907.091	18148
907.208	18308
907.324	18129
907.441	18095
907.557	17866
907.674	17866
907.79	17733
907.907	17878
908.023	17923
908.139	17851
908.256	17805
908.372	17794
908.488	17802
908.604	17554
908.72	17600
908.836	17547
908.952	17455
909.068	17570
909.184	17642
909.3	17547
909.415	17516
909.531	17562
909.647	17330
909.762	17387
909.878	17143
909.993	17239
910.108	17216
910.224	17246
910.339	17212
910.454	17197
910.57	17071
910.685	17014
910.8	17239
910.915	17208
911.03	16995
911.145	16892
911.259	16866
911.374	16748
911.489	16812
911.604	16729
911.718	16474
911.833	16626
911.947	16546
912.062	16417
912.176	16577
912.291	16592
912.405	16679
912.519	16778
912.633	16778
912.748	16645
912.862	16645
912.976	16428
913.09	16390
913.204	16337
913.318	16500
913.431	16440
913.545	16546
913.659	16481
913.772	16230
913.886	16265
914	16181
914.113	16303
914.226	16348
914.34	16257
914.453	16036
914.566	16246
914.68	16086
914.793	16017
914.906	15835
915.019	15766
915.132	15705
915.245	15770
915.358	15812
915.47	15816
915.583	15778
915.696	15846
915.809	15789
915.921	15854
916.034	15610
916.146	15625
916.259	15564
916.371	15717
916.483	15701
916.595	15625
916.708	15606
916.82	15660
916.932	15504
917.044	15568
917.156	15526
917.268	15424
917.38	15477
917.491	15420
917.603	15412
917.715	15431
917.826	15492
917.938	15348
918.049	15302
918.161	15370
918.272	15458
918.384	15485
918.495	15389
918.606	15154
918.717	15169
918.828	15112
918.939	15157
919.05	15097
919.161	15161
919.272	14941
919.383	14990
919.494	15138
919.604	15367
919.715	15150
919.826	15020
919.936	15127
920.047	15100
920.157	15131
920.267	15268
920.378	15138
920.488	14933
920.598	15268
920.708	15321
920.818	15294
920.928	15275
921.038	15348
921.148	15351
921.258	14929
921.368	15032
921.477	14800
921.587	14823
921.697	14724
921.806	14815
921.916	14670
922.025	14518
922.134	14438
922.244	14492
922.353	14511
922.462	14332
922.571	14275
922.68	14100
922.789	14123
922.898	14103
923.007	14012
923.116	14130
923.224	14111
923.333	14024
923.442	14005
923.55	13856
923.659	13913
923.767	13967
923.876	13780
923.984	13951
924.092	13780
924.201	13917
924.309	13860
924.417	13784
924.525	13719
924.633	13803
924.741	14750
924.849	13575
924.956	13769
925.064	13556
925.172	13533
925.279	13537
925.387	13480
925.494	13415
925.602	13632
925.709	13548
925.816	13362
925.924	13453
926.031	13438
926.138	13384
926.245	13453
926.352	13316
926.459	13438
926.566	13480
926.673	13316
926.779	13266
926.886	13217
926.993	13012
927.099	13057
927.206	12947
927.312	13061
927.419	12954
927.525	13069
927.631	13072
927.737	12935
927.843	12901
927.95	12760
928.056	12825
928.162	12901
928.267	12875
928.373	13468
928.479	12947
928.585	12646
928.69	12715
928.796	12806
928.901	12787
929.007	12578
929.112	12734
929.218	12582
929.323	12471
929.428	12532
929.533	12684
929.638	12506
929.743	12479
929.848	12566
929.953	12422
930.058	12403
930.163	12239
930.267	12254
930.372	12433
930.477	12197
930.581	12437
930.685	12201
930.79	12049
930.894	12098
930.998	12083
931.103	12121
931.207	11893
931.311	11836
931.415	11653
931.519	11490
931.623	11493
