Data from test_V78500241_2023.txt Node
Date: Fri Mar 25 15:55:48 CST 2022
User: usil
Spectrometer: V785-0024
Trigger mode: 0
Integration Time (sec): 4.000000E-1
Scans to average: 1
Nonlinearity correction enabled: false
Boxcar width: 0
Storing dark spectrum: false
XAxis mode: Wavelengths
Number of Pixels in Spectrum: 1024
>>>>>Begin Spectral Data<<<<<
801.071	28398
801.214	28356
801.356	28128
801.499	28211
801.641	27987
801.783	27903
801.926	28074
802.068	27994
802.211	27903
802.353	28063
802.496	27793
802.638	27778
802.78	27686
802.923	27492
803.065	27572
803.208	27492
803.35	27561
803.492	27759
803.635	27979
803.777	27720
803.919	27934
804.061	28196
804.204	27945
804.346	27838
804.488	27755
804.63	27930
804.773	27804
804.915	28051
805.057	28002
805.199	27724
805.341	28055
805.483	28169
805.626	28093
805.768	27926
805.91	28074
806.052	28090
806.194	28013
806.336	28192
806.478	28078
806.62	28010
806.762	28207
806.904	28356
807.046	28527
807.188	28481
807.33	28557
807.472	28596
807.614	28481
807.756	28455
807.898	28352
808.04	28333
808.182	28246
808.324	28500
808.465	28375
808.607	28546
808.749	28710
808.891	28888
809.033	28820
809.174	28702
809.316	28656
809.458	28869
809.6	28736
809.741	28759
809.883	28873
810.025	29044
810.166	29044
810.308	29121
810.45	28904
810.591	29022
810.733	28729
810.875	28740
811.016	28710
811.158	28607
811.299	28710
811.441	28816
811.582	28797
811.724	28809
811.865	28713
812.007	28740
812.148	28721
812.29	28733
812.431	28999
812.573	29143
812.714	29014
812.855	29113
812.997	29330
813.138	29398
813.279	29372
813.421	29337
813.562	29159
813.703	29052
813.845	28991
813.986	28653
814.127	28440
814.268	28333
814.41	28546
814.551	28379
814.692	28447
814.833	28417
814.974	28455
815.115	28481
815.256	28257
815.397	28375
815.539	28253
815.68	28265
815.821	28078
815.962	28200
816.103	28196
816.244	28086
816.385	28059
816.526	28032
816.666	27892
816.807	27709
816.948	27759
817.089	27861
817.23	27728
817.371	27720
817.512	27641
817.653	27705
817.793	27732
817.934	27694
818.075	27766
818.216	27637
818.356	27572
818.497	27667
818.638	27485
818.778	27583
818.919	27507
819.06	27595
819.2	27724
819.341	27793
819.481	27762
819.622	27800
819.762	28010
819.903	28017
820.043	27979
820.184	27888
820.324	27816
820.465	27854
820.605	27842
820.746	27774
820.886	27694
821.026	27846
821.167	27808
821.307	27998
821.447	27789
821.588	27732
821.728	27511
821.868	27378
822.008	27287
822.149	27154
822.289	27252
822.429	26963
822.569	26868
822.709	26891
822.849	26762
822.99	26762
823.13	26701
823.27	26765
823.41	26564
823.55	26374
823.69	26522
823.83	26579
823.97	26499
824.11	26415
824.25	26408
824.389	26324
824.529	26484
824.669	26336
824.809	26461
824.949	26495
825.089	26518
825.228	26400
825.368	26180
825.508	26153
825.648	26149
825.787	26389
825.927	26362
826.067	26199
826.206	26214
826.346	26229
826.485	26294
826.625	26153
826.765	26271
826.904	26161
827.044	25963
827.183	26062
827.323	26043
827.462	26035
827.601	25974
827.741	25883
827.88	26062
828.02	25925
828.159	25947
828.298	25898
828.437	25978
828.577	25784
828.716	26039
828.855	25818
828.994	25662
829.134	25791
829.273	25708
829.412	25514
829.551	25651
829.69	25586
829.829	25624
829.968	25780
830.107	25689
830.246	25670
830.385	25521
830.524	25533
830.663	25426
830.802	25358
830.941	25346
831.08	25145
831.219	25251
831.357	25304
831.496	25396
831.635	25122
831.774	25187
831.913	25107
832.051	25008
832.19	25065
832.329	25088
832.467	25012
832.606	24951
832.744	24859
832.883	24897
833.022	24859
833.16	24985
833.299	25042
833.437	25019
833.576	24920
833.714	24897
833.852	24909
833.991	24981
834.129	25008
834.267	25004
834.406	25019
834.544	25031
834.682	25057
834.821	25031
834.959	25217
835.097	24897
835.235	25031
835.373	24954
835.511	25038
835.65	24852
835.788	24764
835.926	24734
836.064	24677
836.202	24715
836.34	24700
836.478	24939
836.615	24802
836.753	24848
836.891	24939
837.029	24707
837.167	24711
837.305	24734
837.443	24627
837.58	24517
837.718	24589
837.856	24623
837.993	24551
838.131	24578
838.269	24494
838.406	24601
838.544	24422
838.681	24270
838.819	24201
838.956	24110
839.094	24178
839.231	24114
839.369	24224
839.506	24342
839.643	24388
839.781	23988
839.918	23969
840.055	24114
840.193	24068
840.33	24026
840.467	23908
840.604	24163
840.742	24342
840.879	23847
841.016	23756
841.153	23954
841.29	24007
841.427	23908
841.564	24076
841.701	24007
841.838	23840
841.975	23885
842.112	23916
842.249	23790
842.385	23672
842.522	24015
842.659	23897
842.796	23646
842.933	23703
843.069	23748
843.206	23786
843.343	23817
843.479	23668
843.616	23661
843.752	23520
843.889	23509
844.025	23676
844.162	23524
844.298	23558
844.435	23547
844.571	23535
844.708	23589
844.844	23611
844.98	23623
845.117	23611
845.253	23444
845.389	23467
845.525	23448
845.661	23417
845.798	23356
845.934	23372
846.07	23181
846.206	23395
846.342	23429
846.478	23242
846.614	23075
846.75	23010
846.886	23071
847.022	23083
847.158	22946
847.294	22968
847.429	23044
847.565	22999
847.701	23223
847.837	22717
847.972	22588
848.108	22744
848.244	22713
848.379	22706
848.515	22527
848.65	22607
848.786	22550
848.921	22592
849.057	22637
849.192	22637
849.328	22557
849.463	22580
849.598	22538
849.734	22459
849.869	22322
850.004	22314
850.14	22409
850.275	22447
850.41	22272
850.545	22204
850.68	22192
850.815	22367
850.95	22314
851.085	22413
851.22	22440
851.355	22371
851.49	22382
851.625	22337
851.76	22322
851.895	22276
852.03	22200
852.165	22436
852.299	22314
852.434	22512
852.569	22417
852.703	22295
852.838	22352
852.973	22443
853.107	22451
853.242	22310
853.376	22185
853.511	22040
853.645	22101
853.78	22265
853.914	22181
854.048	22101
854.183	22181
854.317	22295
854.451	22272
854.585	22185
854.72	22120
854.854	22166
854.988	22196
855.122	22166
855.256	22090
855.39	22135
855.524	22246
855.658	22230
855.792	22280
855.926	22082
856.06	22242
856.194	22162
856.327	22025
856.461	22090
856.595	22048
856.729	22154
856.862	22322
856.996	22116
857.13	22226
857.263	22303
857.397	22303
857.53	22124
857.664	22169
857.797	22177
857.931	22215
858.064	22261
858.197	22276
858.331	22101
858.464	22124
858.597	21994
858.731	22169
858.864	22139
858.997	22128
859.13	22215
859.263	22086
859.396	22230
859.529	22131
859.662	22162
859.795	22109
859.928	22086
860.061	22215
860.194	22402
860.327	22177
860.46	22169
860.592	22390
860.725	22154
860.858	22299
860.99	22139
861.123	22021
861.256	22082
861.388	22177
861.521	22923
861.653	22025
861.786	21907
861.918	21960
862.05	22055
862.183	22093
862.315	22086
862.447	22150
862.58	22036
862.712	21789
862.844	21800
862.976	22021
863.108	22032
863.24	22398
863.372	21804
863.504	21888
863.636	21865
863.768	21842
863.9	21804
864.032	21930
864.164	21827
864.296	21850
864.428	21972
864.559	22006
864.691	21922
864.823	21873
864.954	21816
865.086	21857
865.217	21732
865.349	21564
865.48	21732
865.612	21797
865.743	21854
865.875	21812
866.006	21766
866.137	21770
866.269	21720
866.4	21629
866.531	21747
866.662	21747
866.793	21747
866.924	21701
867.055	21641
867.186	21755
867.317	21618
867.448	21633
867.579	21660
867.71	21576
867.841	21580
867.972	21728
868.103	21587
868.233	21614
868.364	21603
868.495	21827
868.625	21949
868.756	21953
868.886	21888
869.017	21846
869.147	22048
869.278	22090
869.408	21873
869.539	21907
869.669	22067
869.799	21979
869.929	21937
870.06	22173
870.19	22242
870.32	22166
870.45	22242
870.58	22409
870.71	22299
870.84	22394
870.97	22356
871.1	22322
871.23	22489
871.36	22607
871.489	22287
871.619	22538
871.749	22527
871.879	22508
872.008	22504
872.138	22527
872.267	22611
872.397	22333
872.526	22295
872.656	22344
872.785	22291
872.915	22584
873.044	22694
873.173	22561
873.303	22493
873.432	22519
873.561	22649
873.69	22573
873.819	22497
873.948	22538
874.077	22672
874.206	22489
874.335	22641
874.464	22687
874.593	22755
874.722	22668
874.851	22839
874.979	22717
875.108	22660
875.237	22618
875.365	22778
875.494	22786
875.623	22793
875.751	22694
875.88	22725
876.008	22816
876.136	23018
876.265	23159
876.393	23174
876.521	23204
876.65	23280
876.778	23204
876.906	23109
877.034	23121
877.162	23025
877.29	23159
877.418	23086
877.546	23018
877.674	23064
877.802	23079
877.93	23022
878.058	22980
878.185	22965
878.313	23056
878.441	23098
878.568	22915
878.696	23090
878.824	23181
878.951	23231
879.079	23318
879.206	23345
879.333	23227
879.461	23037
879.588	23208
879.715	23227
879.842	23440
879.97	23041
880.097	22957
880.224	22930
880.351	22896
880.478	22877
880.605	22763
880.732	22786
880.859	23124
880.986	22923
881.112	22828
881.239	22759
881.366	22596
881.493	22508
881.619	22493
881.746	22417
881.872	22478
881.999	22428
882.125	22455
882.252	22592
882.378	22565
882.505	22561
882.631	22333
882.757	22097
882.883	22257
883.01	22223
883.136	22162
883.262	22040
883.388	21888
883.514	22177
883.64	22158
883.766	22036
883.892	21964
884.018	21987
884.143	22192
884.269	22101
884.395	21968
884.52	21827
884.646	21934
884.772	21739
884.897	21739
885.023	21835
885.148	21953
885.274	21922
885.399	21979
885.524	21800
885.65	21808
885.775	21846
885.9	21793
886.025	21926
886.15	21991
886.275	21705
886.4	21713
886.525	21846
886.65	21743
886.775	21698
886.9	21884
887.025	21975
887.149	21838
887.274	21568
887.399	21610
887.523	21542
887.648	21561
887.773	21462
887.897	21660
888.021	21538
888.146	21488
888.27	21694
888.395	21675
888.519	21580
888.643	21583
888.767	21553
888.891	21462
889.015	21378
889.139	21405
889.263	21405
889.387	21424
889.511	21614
889.635	21435
889.759	21252
889.883	21447
890.006	21443
890.13	21443
890.254	21401
890.377	21340
890.501	21036
890.624	21138
890.748	21142
890.871	21043
890.995	21001
891.118	20826
891.241	20937
891.364	20952
891.488	20986
891.611	20990
891.734	20918
891.857	20956
891.98	20937
892.103	20876
892.226	20929
892.349	21020
892.471	20815
892.594	20887
892.717	20796
892.839	20739
892.962	20868
893.085	20933
893.207	20948
893.33	20693
893.452	20830
893.575	20929
893.697	20777
893.819	21036
893.941	21051
894.064	20933
894.186	20838
894.308	20735
894.43	20815
894.552	20941
894.674	20929
894.796	20773
894.918	20796
895.04	20727
895.161	20861
895.283	20876
895.405	20735
895.526	20853
895.648	20804
895.769	20880
895.891	20864
896.012	20906
896.134	20891
896.255	20804
896.376	20705
896.498	20838
896.619	20773
896.74	20731
896.861	20929
896.982	21119
897.103	21279
897.224	21058
897.345	20967
897.466	20918
897.587	21055
897.708	21207
897.828	21131
897.949	20975
898.07	20842
898.19	20864
898.311	21108
898.431	21051
898.552	20967
898.672	20990
898.792	21252
898.913	21138
899.033	20849
899.153	20800
899.273	20594
899.393	20746
899.513	20720
899.633	20811
899.753	20785
899.873	20621
899.993	20765
900.113	20796
900.232	20720
900.352	20674
900.472	20587
900.591	20476
900.711	20541
900.83	20571
900.95	20549
901.069	20648
901.189	20488
901.308	20282
901.427	20172
901.546	20115
901.665	20077
901.784	20153
901.904	19963
902.023	19932
902.141	19605
902.26	19712
902.379	19814
902.498	19559
902.617	19632
902.735	19533
902.854	19571
902.973	19525
903.091	19206
903.21	19304
903.328	19247
903.446	19103
903.565	19107
903.683	19110
903.801	18970
903.919	19027
904.038	18920
904.156	18867
904.274	18897
904.392	18776
904.51	18890
904.627	18837
904.745	18916
904.863	18768
904.981	18608
905.098	18566
905.216	18627
905.334	18547
905.451	18582
905.569	18517
905.686	18437
905.803	18369
905.921	18323
906.038	18372
906.155	18342
906.272	18148
906.389	18148
906.506	18022
906.623	18015
906.74	18125
906.857	17939
906.974	17954
907.091	18038
907.208	18083
907.324	18083
907.441	17904
907.557	17786
907.674	17718
907.79	17798
907.907	17623
908.023	17893
908.139	17722
908.256	17665
908.372	17608
908.488	17691
908.604	17463
908.72	17467
908.836	17478
908.952	17448
909.068	17452
909.184	17642
909.3	17467
909.415	17444
909.531	17410
909.647	17254
909.762	17151
909.878	17140
909.993	17166
910.108	17246
910.224	17109
910.339	17113
910.454	16957
910.57	16957
910.685	16854
910.8	17098
910.915	17083
911.03	16866
911.145	16729
911.259	16706
911.374	16713
911.489	16622
911.604	16596
911.718	16500
911.833	16558
911.947	16402
912.062	16284
912.176	16409
912.291	16497
912.405	16432
912.519	16634
912.633	16782
912.748	16466
912.862	16462
912.976	16226
913.09	16223
913.204	16200
913.318	16284
913.431	16272
913.545	16287
913.659	16291
913.772	16306
913.886	16063
914	16143
914.113	16097
914.226	16173
914.34	16101
914.453	16013
914.566	16051
914.68	15903
914.793	15884
914.906	15686
915.019	15606
915.132	15637
915.245	15584
915.358	15709
915.47	15648
915.583	15614
915.696	15667
915.809	15778
915.921	15774
916.034	15534
916.146	15526
916.259	15568
916.371	15603
916.483	15568
916.595	15485
916.708	15477
916.82	15443
916.932	15458
917.044	15500
917.156	15363
917.268	15344
917.38	15264
917.491	15332
917.603	15370
917.715	15363
917.826	15348
917.938	15237
918.049	15173
918.161	15252
918.272	15382
918.384	15317
918.495	15275
918.606	15085
918.717	14956
918.828	15032
918.939	15146
919.05	14998
919.161	15005
919.272	14842
919.383	14906
919.494	14986
919.604	15283
919.715	15055
919.826	14975
919.936	14914
920.047	15036
920.157	15028
920.267	15184
920.378	15020
920.488	14872
920.598	15146
920.708	15294
920.818	15097
920.928	15135
921.038	15310
921.148	15230
921.258	14880
921.368	14918
921.477	14708
921.587	14640
921.697	14575
921.806	14720
921.916	14511
922.025	14351
922.134	14396
922.244	14252
922.353	14404
922.462	14263
922.571	14206
922.68	14084
922.789	14024
922.898	14024
923.007	13833
923.116	13997
923.224	13997
923.333	13887
923.442	13921
923.55	13837
923.659	13902
923.767	13913
923.876	13719
923.984	13826
924.092	13681
924.201	13731
924.309	13616
924.417	13784
924.525	13639
924.633	13746
924.741	14339
924.849	13533
924.956	13582
925.064	13472
925.172	13365
925.279	13487
925.387	13369
925.494	13491
925.602	13495
925.709	13453
925.816	13270
925.924	13304
926.031	13419
926.138	13285
926.245	13434
926.352	13263
926.459	13396
926.566	13301
926.673	13232
926.779	13042
926.886	13110
926.993	13023
927.099	12909
927.206	12943
927.312	12894
927.419	13000
927.525	12966
927.631	12973
927.737	12795
927.843	12753
927.95	12616
928.056	12715
928.162	12719
928.267	12772
928.373	13441
928.479	12798
928.585	12650
928.69	12757
928.796	12688
928.901	12681
929.007	12410
929.112	12570
929.218	12528
929.323	12471
929.428	12464
929.533	12608
929.638	12376
929.743	12403
929.848	12517
929.953	12464
930.058	12334
930.163	12197
930.267	12201
930.372	12330
930.477	12091
930.581	12330
930.685	12216
930.79	12041
930.894	12038
930.998	11920
931.103	12175
931.207	11752
931.311	11756
931.415	11638
931.519	11421
931.623	11341
