Data from test_V78500241_3277.txt Node
Date: Fri Mar 25 16:04:30 CST 2022
User: usil
Spectrometer: V785-0024
Trigger mode: 0
Integration Time (sec): 4.000000E-1
Scans to average: 1
Nonlinearity correction enabled: false
Boxcar width: 0
Storing dark spectrum: false
XAxis mode: Wavelengths
Number of Pixels in Spectrum: 1024
>>>>>Begin Spectral Data<<<<<
801.071	28561
801.214	28713
801.356	28516
801.499	28523
801.641	28287
801.783	28367
801.926	28329
802.068	28295
802.211	28090
802.353	28116
802.496	27949
802.638	27831
802.78	27937
802.923	27998
803.065	27857
803.208	27785
803.35	27987
803.492	28261
803.635	28135
803.777	28044
803.919	28238
804.061	28538
804.204	28249
804.346	28169
804.488	28158
804.63	28196
804.773	28169
804.915	28242
805.057	28295
805.199	28238
805.341	28352
805.483	28424
805.626	28352
805.768	28284
805.91	28348
806.052	28314
806.194	28268
806.336	28596
806.478	28413
806.62	28478
806.762	28470
806.904	28607
807.046	28927
807.188	28691
807.33	28835
807.472	28778
807.614	28713
807.756	28691
807.898	28618
808.04	28504
808.182	28641
808.324	28611
808.465	28767
808.607	28824
808.749	29064
808.891	29048
809.033	29136
809.174	29223
809.316	29018
809.458	29090
809.6	28927
809.741	29143
809.883	29178
810.025	29311
810.166	29345
810.308	29315
810.45	29307
810.591	29193
810.733	29235
810.875	28976
811.016	29105
811.158	28972
811.299	29140
811.441	29284
811.582	29189
811.724	28953
811.865	29029
812.007	29083
812.148	29143
812.29	28961
812.431	29341
812.573	29505
812.714	29414
812.855	29562
812.997	29668
813.138	29927
813.279	29737
813.421	29653
813.562	29562
813.703	29349
813.845	29261
813.986	29071
814.127	28869
814.268	28744
814.41	28831
814.551	28919
814.692	28984
814.833	28618
814.974	28717
815.115	28725
815.256	28778
815.397	28694
815.539	28793
815.68	28557
815.821	28592
815.962	28660
816.103	28626
816.244	28535
816.385	28367
816.526	28440
816.666	28128
816.807	28139
816.948	28219
817.089	28143
817.23	28226
817.371	28101
817.512	28128
817.653	28051
817.793	28154
817.934	28226
818.075	28226
818.216	28112
818.356	28013
818.497	27903
818.638	27899
818.778	27808
818.919	27911
819.06	27884
819.2	28124
819.341	28188
819.481	28006
819.622	28257
819.762	28478
819.903	28394
820.043	28234
820.184	28291
820.324	28287
820.465	28303
820.605	28185
820.746	28173
820.886	28101
821.026	28215
821.167	28169
821.307	28207
821.447	28158
821.588	28021
821.728	27903
821.868	27800
822.008	27641
822.149	27511
822.289	27561
822.429	27310
822.569	27207
822.709	27344
822.849	27188
822.99	27123
823.13	27154
823.27	27013
823.41	26872
823.55	26758
823.69	27005
823.83	26956
823.97	26921
824.11	26739
824.25	26800
824.389	26743
824.529	26914
824.669	26853
824.809	26883
824.949	26853
825.089	26716
825.228	26872
825.368	26598
825.508	26602
825.648	26705
825.787	26606
825.927	26621
826.067	26678
826.206	26689
826.346	26701
826.485	26712
826.625	26739
826.765	26716
826.904	26678
827.044	26625
827.183	26431
827.323	26240
827.462	26480
827.601	26320
827.741	26389
827.88	26511
828.02	26286
828.159	26358
828.298	26484
828.437	26434
828.577	26263
828.716	26492
828.855	26286
828.994	26046
829.134	25963
829.273	26035
829.412	25974
829.551	25966
829.69	25974
829.829	26035
829.968	26073
830.107	26077
830.246	25997
830.385	25970
830.524	25925
830.663	25894
830.802	25727
830.941	25556
831.08	25670
831.219	25578
831.357	25811
831.496	25750
831.635	25704
831.774	25537
831.913	25483
832.051	25460
832.19	25487
832.329	25540
832.467	25422
832.606	25240
832.744	25198
832.883	25312
833.022	25263
833.16	25251
833.299	25301
833.437	25377
833.576	25316
833.714	25346
833.852	25453
833.991	25483
834.129	25453
834.267	25445
834.406	25460
834.544	25495
834.682	25396
834.821	25324
834.959	25567
835.097	25407
835.235	25453
835.373	25350
835.511	25415
835.65	25282
835.788	25259
835.926	25202
836.064	24985
836.202	24992
836.34	25160
836.478	25308
836.615	25202
836.753	25282
836.891	25343
837.029	25244
837.167	25126
837.305	25057
837.443	25160
837.58	24958
837.718	25084
837.856	25061
837.993	25038
838.131	25023
838.269	24829
838.406	24939
838.544	24878
838.681	24859
838.819	24707
838.956	24456
839.094	24681
839.231	24547
839.369	24829
839.506	24867
839.643	24745
839.781	24486
839.918	24528
840.055	24460
840.193	24357
840.33	24388
840.467	24456
840.604	24433
840.742	24631
840.879	24292
841.016	24205
841.153	24209
841.29	24494
841.427	24330
841.564	24521
841.701	24433
841.838	24517
841.975	24304
842.112	24209
842.249	24201
842.385	24114
842.522	24441
842.659	24186
842.796	24152
842.933	24155
843.069	24144
843.206	24060
843.343	24327
843.479	24144
843.616	24159
843.752	23885
843.889	23942
844.025	24136
844.162	23958
844.298	24003
844.435	23847
844.571	23817
844.708	23931
844.844	24045
844.98	24087
845.117	24057
845.253	23977
845.389	23832
845.525	23893
845.661	23843
845.798	23687
845.934	23718
846.07	23699
846.206	23714
846.342	23737
846.478	23547
846.614	23497
846.75	23326
846.886	23402
847.022	23440
847.158	23459
847.294	23436
847.429	23493
847.565	23315
847.701	23551
847.837	23075
847.972	23048
848.108	23265
848.244	23155
848.379	22934
848.515	22965
848.65	22847
848.786	23006
848.921	22889
849.057	23140
849.192	23079
849.328	23159
849.463	22961
849.598	22934
849.734	22771
849.869	22896
850.004	22710
850.14	22824
850.275	22694
850.41	22733
850.545	22691
850.68	22672
850.815	22828
850.95	22717
851.085	22972
851.22	22812
851.355	22717
851.49	22702
851.625	22694
851.76	22725
851.895	22668
852.03	22691
852.165	22748
852.299	22736
852.434	22786
852.569	22748
852.703	22820
852.838	22755
852.973	22820
853.107	22892
853.242	22778
853.376	22565
853.511	22443
853.645	22538
853.78	22653
853.914	22554
854.048	22531
854.183	22592
854.317	22550
854.451	22725
854.585	22573
854.72	22744
854.854	22782
854.988	22554
855.122	22542
855.256	22386
855.39	22607
855.524	22573
855.658	22588
855.792	22630
855.926	22660
856.06	22615
856.194	22733
856.327	22527
856.461	22538
856.595	22462
856.729	22516
856.862	22713
856.996	22588
857.13	22611
857.263	22668
857.397	22599
857.53	22622
857.664	22626
857.797	22679
857.931	22683
858.064	22611
858.197	22687
858.331	22546
858.464	22554
858.597	22447
858.731	22504
858.864	22497
858.997	22588
859.13	22687
859.263	22596
859.396	22649
859.529	22660
859.662	22535
859.795	22554
859.928	22637
860.061	22668
860.194	22748
860.327	22546
860.46	22687
860.592	22569
860.725	22668
860.858	22748
860.99	22580
861.123	22622
861.256	22565
861.388	22436
861.521	23273
861.653	22500
861.786	22299
861.918	22371
862.05	22523
862.183	22497
862.315	22527
862.447	22615
862.58	22519
862.712	22280
862.844	22299
862.976	22341
863.108	22314
863.24	22653
863.372	22246
863.504	22204
863.636	22310
863.768	22314
863.9	22348
864.032	22287
864.164	22249
864.296	22367
864.428	22481
864.559	22169
864.691	22432
864.823	22272
864.954	22207
865.086	22265
865.217	22143
865.349	22044
865.48	22188
865.612	22139
865.743	22272
865.875	22238
866.006	22188
866.137	22101
866.269	22166
866.4	22105
866.531	22032
866.662	22048
866.793	22044
866.924	22101
867.055	22169
867.186	22128
867.317	22067
867.448	21987
867.579	22036
867.71	22086
867.841	22032
867.972	22120
868.103	22093
868.233	21998
868.364	22044
868.495	22219
868.625	22310
868.756	22375
868.886	22341
869.017	22318
869.147	22337
869.278	22382
869.408	22306
869.539	22356
869.669	22485
869.799	22443
869.929	22409
870.06	22546
870.19	22588
870.32	22527
870.45	22645
870.58	22752
870.71	22759
870.84	22755
870.97	22588
871.1	22694
871.23	22774
871.36	22919
871.489	22755
871.619	22809
871.749	22828
871.879	22995
872.008	23018
872.138	22793
872.267	22812
872.397	22683
872.526	22767
872.656	22797
872.785	22782
872.915	22896
873.044	22995
873.173	22984
873.303	22889
873.432	22942
873.561	23056
873.69	22949
873.819	22949
873.948	23159
874.077	22847
874.206	22820
874.335	23048
874.464	23083
874.593	23151
874.722	23071
874.851	23170
874.979	23200
875.108	23113
875.237	23155
875.365	22987
875.494	23086
875.623	23216
875.751	23200
875.88	23098
876.008	23231
876.136	23254
876.265	23478
876.393	23627
876.521	23531
876.65	23665
876.778	23524
876.906	23562
877.034	23562
877.162	23486
877.29	23311
877.418	23436
877.546	23646
877.674	23474
877.802	23459
877.93	23558
878.058	23387
878.185	23337
878.313	23482
878.441	23570
878.568	23261
878.696	23471
878.824	23528
878.951	23528
879.079	23649
879.206	23805
879.333	23718
879.461	23600
879.588	23611
879.715	23554
879.842	23805
879.97	23547
880.097	23395
880.224	23280
880.351	23376
880.478	23414
880.605	23372
880.732	23231
880.859	23444
880.986	23254
881.112	23414
881.239	23223
881.366	23022
881.493	22946
881.619	22767
881.746	22881
881.872	22900
881.999	22672
882.125	22839
882.252	22847
882.378	22820
882.505	22904
882.631	22782
882.757	22645
882.883	22580
883.01	22538
883.136	22493
883.262	22436
883.388	22348
883.514	22573
883.64	22637
883.766	22626
883.892	22287
884.018	22295
884.143	22459
884.269	22550
884.395	22405
884.52	22253
884.646	22200
884.772	22291
884.897	22093
885.023	22188
885.148	22261
885.274	22322
885.399	22181
885.524	22238
885.65	22169
885.775	22105
885.9	22207
886.025	22280
886.15	22211
886.275	22086
886.4	22120
886.525	22090
886.65	22021
886.775	22105
886.9	22265
887.025	22341
887.149	22101
887.274	21941
887.399	21850
887.523	21972
887.648	21831
887.773	21793
887.897	21972
888.021	21960
888.146	21766
888.27	21953
888.395	22036
888.519	21956
888.643	21953
888.767	21888
888.891	21804
889.015	21736
889.139	21778
889.263	21622
889.387	21892
889.511	21964
889.635	21895
889.759	21663
889.883	21671
890.006	21736
890.13	21835
890.254	21622
890.377	21587
890.501	21599
890.624	21473
890.748	21473
890.871	21336
890.995	21199
891.118	21173
891.241	21298
891.364	21321
891.488	21424
891.611	21218
891.734	21329
891.857	21420
891.98	21176
892.103	21252
892.226	21313
892.349	21283
892.471	21150
892.594	21135
892.717	21165
892.839	21104
892.962	21184
893.085	21119
893.207	21131
893.33	21157
893.452	21043
893.575	21165
893.697	21211
893.819	21310
893.941	21313
894.064	21230
894.186	21135
894.308	21039
894.43	21161
894.552	21237
894.674	21135
894.796	21043
894.918	21230
895.04	21085
895.161	21226
895.283	21081
895.405	21161
895.526	21169
895.648	21135
895.769	21233
895.891	20986
896.012	21218
896.134	21058
896.255	21123
896.376	21085
896.498	21176
896.619	21184
896.74	21169
896.861	21093
896.982	21507
897.103	21637
897.224	21412
897.345	21359
897.466	21150
897.587	21420
897.708	21511
897.828	21340
897.949	21230
898.07	21104
898.19	21313
898.311	21344
898.431	21233
898.552	21336
898.672	21408
898.792	21443
898.913	21374
899.033	21237
899.153	21036
899.273	20941
899.393	20963
899.513	21028
899.633	21051
899.753	21055
899.873	21074
899.993	20948
900.113	20971
900.232	20979
900.352	20880
900.472	20823
900.591	20788
900.711	20933
900.83	20807
900.95	20891
901.069	20823
901.189	20712
901.308	20499
901.427	20282
901.546	20305
901.665	20431
901.784	20446
901.904	20168
902.023	20107
902.141	19974
902.26	19955
902.379	20043
902.498	19875
902.617	19902
902.735	19936
902.854	19890
902.973	19772
903.091	19540
903.21	19567
903.328	19620
903.446	19499
903.565	19445
903.683	19449
903.801	19369
903.919	19213
904.038	19339
904.156	19160
904.274	19198
904.392	19103
904.51	19000
904.627	19099
904.745	19156
904.863	19072
904.981	18973
905.098	18871
905.216	18802
905.334	18901
905.451	18833
905.569	18639
905.686	18798
905.803	18844
905.921	18479
906.038	18719
906.155	18627
906.272	18471
906.389	18544
906.506	18251
906.623	18292
906.74	18228
906.857	18346
906.974	18224
907.091	18429
907.208	18369
907.324	18350
907.441	18174
907.557	18053
907.674	18053
907.79	17977
907.907	18121
908.023	17946
908.139	18038
908.256	17870
908.372	17824
908.488	17874
908.604	17726
908.72	17657
908.836	17729
908.952	17703
909.068	17764
909.184	17745
909.3	17733
909.415	17764
909.531	17676
909.647	17497
909.762	17524
909.878	17402
909.993	17535
910.108	17265
910.224	17334
910.339	17395
910.454	17284
910.57	17322
910.685	17132
910.8	17398
910.915	17387
911.03	17216
911.145	17033
911.259	16976
911.374	17006
911.489	16934
911.604	16976
911.718	16797
911.833	16831
911.947	16611
912.062	16527
912.176	16759
912.291	16767
912.405	16656
912.519	17025
912.633	17018
912.748	16820
912.862	16653
912.976	16546
913.09	16443
913.204	16481
913.318	16599
913.431	16641
913.545	16546
913.659	16675
913.772	16432
913.886	16379
914	16333
914.113	16405
914.226	16421
914.34	16344
914.453	16219
914.566	16470
914.68	16242
914.793	16169
914.906	15884
915.019	15945
915.132	15934
915.245	15972
915.358	15964
915.47	15857
915.583	15903
915.696	15956
915.809	15964
915.921	15975
916.034	15949
916.146	15766
916.259	15797
916.371	15842
916.483	15835
916.595	15690
916.708	15751
916.82	15743
916.932	15705
917.044	15675
917.156	15667
917.268	15447
917.38	15545
917.491	15466
917.603	15603
917.715	15584
917.826	15633
917.938	15557
918.049	15420
918.161	15504
918.272	15633
918.384	15481
918.495	15496
918.606	15367
918.717	15192
918.828	15351
918.939	15268
919.05	15165
919.161	15245
919.272	15013
919.383	15135
919.494	15291
919.604	15428
919.715	15245
919.826	15093
919.936	15233
920.047	15264
920.157	15241
920.267	15443
920.378	15245
920.488	15112
920.598	15359
920.708	15462
920.818	15393
920.928	15370
921.038	15526
921.148	15515
921.258	15222
921.368	15100
921.477	14956
921.587	14918
921.697	14876
921.806	14990
921.916	14826
922.025	14655
922.134	14522
922.244	14556
922.353	14663
922.462	14533
922.571	14415
922.68	14248
922.789	14168
922.898	14267
923.007	14278
923.116	14290
923.224	14229
923.333	14248
923.442	14050
923.55	14024
923.659	14145
923.767	14088
923.876	13974
923.984	14058
924.092	13951
924.201	14001
924.309	13906
924.417	13940
924.525	13879
924.633	13757
924.741	14590
924.849	13723
924.956	13742
925.064	13624
925.172	13540
925.279	13571
925.387	13605
925.494	13567
925.602	13772
925.709	13685
925.816	13476
925.924	13540
926.031	13757
926.138	13529
926.245	13624
926.352	13320
926.459	13601
926.566	13559
926.673	13415
926.779	13354
926.886	13297
926.993	13187
927.099	13156
927.206	13080
927.312	13091
927.419	13152
927.525	13061
927.631	13088
927.737	13034
927.843	13004
927.95	12932
928.056	12867
928.162	12920
928.267	13015
928.373	13521
928.479	13008
928.585	12837
928.69	12909
928.796	12928
928.901	12867
929.007	12715
929.112	12833
929.218	12795
929.323	12707
929.428	12601
929.533	12760
929.638	12540
929.743	12616
929.848	12654
929.953	12593
930.058	12471
930.163	12285
930.267	12365
930.372	12403
930.477	12330
930.581	12506
930.685	12369
930.79	12155
930.894	12254
930.998	12159
931.103	12270
931.207	11946
931.311	11870
931.415	11745
931.519	11619
931.623	11600
