Data from test_V78500241_140.txt Node
Date: Fri Mar 25 15:42:46 CST 2022
User: usil
Spectrometer: V785-0024
Trigger mode: 0
Integration Time (sec): 4.000000E-1
Scans to average: 1
Nonlinearity correction enabled: false
Boxcar width: 0
Storing dark spectrum: false
XAxis mode: Wavelengths
Number of Pixels in Spectrum: 1024
>>>>>Begin Spectral Data<<<<<
801.071	29794
801.214	29767
801.356	29642
801.499	29615
801.641	29414
801.783	29311
801.926	29478
802.068	29452
802.211	29303
802.353	29269
802.496	28984
802.638	28919
802.78	29079
802.923	28805
803.065	28904
803.208	28904
803.35	29025
803.492	29083
803.635	29200
803.777	28984
803.919	29159
804.061	29326
804.204	29098
804.346	28991
804.488	29041
804.63	29132
804.773	29003
804.915	29079
805.057	29227
805.199	29155
805.341	29052
805.483	29136
805.626	29216
805.768	28991
805.91	29060
806.052	29090
806.194	29117
806.336	29216
806.478	29242
806.62	29166
806.762	29185
806.904	29531
807.046	29604
807.188	29535
807.33	29478
807.472	29581
807.614	29482
807.756	29486
807.898	29486
808.04	29402
808.182	29410
808.324	29318
808.465	29417
808.607	29627
808.749	29722
808.891	29931
809.033	29809
809.174	29821
809.316	29707
809.458	29707
809.6	29592
809.741	29722
809.883	29786
810.025	29878
810.166	29859
810.308	29942
810.45	29969
810.591	29977
810.733	29707
810.875	29752
811.016	29570
811.158	29646
811.299	29923
811.441	29809
811.582	29729
811.724	29710
811.865	29726
812.007	29630
812.148	29691
812.29	29665
812.431	29939
812.573	30110
812.714	30045
812.855	30258
812.997	30357
813.138	30388
813.279	30216
813.421	30171
813.562	30102
813.703	29992
813.845	29878
813.986	29657
814.127	29486
814.268	29379
814.41	29258
814.551	29330
814.692	29383
814.833	29212
814.974	29212
815.115	29242
815.256	29223
815.397	29079
815.539	29121
815.68	29086
815.821	29022
815.962	29044
816.103	29090
816.244	28854
816.385	28729
816.526	28824
816.666	28554
816.807	28405
816.948	28386
817.089	28561
817.23	28474
817.371	28417
817.512	28527
817.653	28344
817.793	28268
817.934	28702
818.075	28565
818.216	28451
818.356	28337
818.497	28230
818.638	27979
818.778	28215
818.919	28048
819.06	28230
819.2	28226
819.341	28440
819.481	28337
819.622	28550
819.762	28733
819.903	28603
820.043	28478
820.184	28348
820.324	28310
820.465	28428
820.605	28401
820.746	28394
820.886	28265
821.026	28299
821.167	28192
821.307	28535
821.447	28207
821.588	28181
821.728	28097
821.868	27888
822.008	27838
822.149	27800
822.289	27644
822.429	27466
822.569	27477
822.709	27351
822.849	27195
822.99	27169
823.13	27131
823.27	27195
823.41	26994
823.55	26853
823.69	26994
823.83	27001
823.97	26883
824.11	26701
824.25	26689
824.389	26765
824.529	26777
824.669	26811
824.809	26754
824.949	26887
825.089	26811
825.228	26868
825.368	26632
825.508	26651
825.648	26609
825.787	26606
825.927	26594
826.067	26598
826.206	26526
826.346	26632
826.485	26583
826.625	26564
826.765	26632
826.904	26522
827.044	26343
827.183	26393
827.323	26191
827.462	26320
827.601	26153
827.741	26278
827.88	26202
828.02	26149
828.159	26202
828.298	26313
828.437	26233
828.577	26214
828.716	26313
828.855	26168
828.994	26081
829.134	25811
829.273	25951
829.412	25947
829.551	25738
829.69	25757
829.829	25879
829.968	25970
830.107	25841
830.246	25894
830.385	25761
830.524	25708
830.663	25693
830.802	25628
830.941	25457
831.08	25362
831.219	25396
831.357	25571
831.496	25700
831.635	25457
831.774	25373
831.913	25308
832.051	25263
832.19	25255
832.329	25301
832.467	25217
832.606	24875
832.744	24894
832.883	25038
833.022	24859
833.16	25008
833.299	25129
833.437	25076
833.576	25091
833.714	24886
833.852	25099
833.991	25141
834.129	25061
834.267	25095
834.406	24932
834.544	25095
834.682	25198
834.821	25038
834.959	25213
835.097	24943
835.235	25042
835.373	25050
835.511	24954
835.65	24867
835.788	24878
835.926	24871
836.064	24722
836.202	24700
836.34	24932
836.478	24882
836.615	24715
836.753	24798
836.891	24928
837.029	24856
837.167	24734
837.305	24829
837.443	24738
837.58	24646
837.718	24722
837.856	24650
837.993	24555
838.131	24525
838.269	24475
838.406	24582
838.544	24414
838.681	24380
838.819	24216
838.956	24076
839.094	23988
839.231	24106
839.369	24270
839.506	24460
839.643	24399
839.781	24053
839.918	23920
840.055	24003
840.193	23836
840.33	23805
840.467	23950
840.604	23980
840.742	24334
840.879	23790
841.016	23859
841.153	23882
841.29	23969
841.427	23809
841.564	23878
841.701	23863
841.838	23897
841.975	23695
842.112	23863
842.249	23608
842.385	23604
842.522	23965
842.659	23745
842.796	23665
842.933	23547
843.069	23562
843.206	23455
843.343	23695
843.479	23482
843.616	23501
843.752	23372
843.889	23265
844.025	23486
844.162	23395
844.298	23429
844.435	23349
844.571	23265
844.708	23341
844.844	23376
844.98	23512
845.117	23356
845.253	23337
845.389	23166
845.525	23200
845.661	23170
845.798	23064
845.934	22976
846.07	23014
846.206	23060
846.342	23193
846.478	23014
846.614	22904
846.75	22710
846.886	22683
847.022	22831
847.158	22687
847.294	22698
847.429	22694
847.565	22691
847.701	22896
847.837	22546
847.972	22382
848.108	22607
848.244	22656
848.379	22447
848.515	22299
848.65	22284
848.786	22257
848.921	22246
849.057	22325
849.192	22421
849.328	22360
849.463	22322
849.598	22268
849.734	22226
849.869	22048
850.004	22074
850.14	22040
850.275	22097
850.41	21892
850.545	21945
850.68	22044
850.815	22017
850.95	22063
851.085	22070
851.22	22097
851.355	21930
851.49	22051
851.625	21972
851.76	22059
851.895	21937
852.03	21937
852.165	21876
852.299	21930
852.434	22078
852.569	22063
852.703	22013
852.838	22070
852.973	22021
853.107	22120
853.242	21884
853.376	21884
853.511	21534
853.645	21759
853.78	21956
853.914	21808
854.048	21781
854.183	21698
854.317	21789
854.451	21949
854.585	21846
854.72	21759
854.854	21812
854.988	21743
855.122	21831
855.256	21568
855.39	21808
855.524	21774
855.658	21724
855.792	21755
855.926	21724
856.06	21960
856.194	21964
856.327	21766
856.461	21694
856.595	21797
856.729	21816
856.862	21823
856.996	21732
857.13	21755
857.263	22017
857.397	21895
857.53	21656
857.664	21698
857.797	21804
857.931	21873
858.064	21842
858.197	21857
858.331	21660
858.464	21583
858.597	21648
858.731	21686
858.864	21656
858.997	21724
859.13	21823
859.263	21717
859.396	21751
859.529	21637
859.662	21804
859.795	21576
859.928	21732
860.061	21922
860.194	22040
860.327	21633
860.46	21720
860.592	21831
860.725	21876
860.858	21774
860.99	21755
861.123	21652
861.256	21545
861.388	21633
861.521	22192
861.653	21625
861.786	21549
861.918	21701
862.05	21667
862.183	21720
862.315	21770
862.447	21739
862.58	21728
862.712	21492
862.844	21466
862.976	21557
863.108	21538
863.24	21937
863.372	21291
863.504	21408
863.636	21336
863.768	21477
863.9	21401
864.032	21279
864.164	21241
864.296	21450
864.428	21473
864.559	21538
864.691	21408
864.823	21332
864.954	21367
865.086	21279
865.217	21420
865.349	21268
865.48	21230
865.612	21226
865.743	21416
865.875	21344
866.006	21298
866.137	21344
866.269	21310
866.4	21264
866.531	21226
866.662	21184
866.793	21089
866.924	21264
867.055	21321
867.186	21165
867.317	21085
867.448	21165
867.579	21203
867.71	21093
867.841	21176
867.972	21283
868.103	21260
868.233	21192
868.364	21192
868.495	21249
868.625	21378
868.756	21576
868.886	21310
869.017	21336
869.147	21606
869.278	21587
869.408	21428
869.539	21515
869.669	21393
869.799	21545
869.929	21603
870.06	21538
870.19	21892
870.32	21690
870.45	21713
870.58	21850
870.71	21941
870.84	21846
870.97	21895
871.1	21842
871.23	22002
871.36	22006
871.489	21953
871.619	22112
871.749	21994
871.879	22097
872.008	22067
872.138	22032
872.267	22116
872.397	22021
872.526	21857
872.656	21895
872.785	21869
872.915	22025
873.044	22162
873.173	22036
873.303	22147
873.432	22070
873.561	22234
873.69	22082
873.819	22025
873.948	22162
874.077	22032
874.206	22048
874.335	22067
874.464	22200
874.593	22337
874.722	22352
874.851	22299
874.979	22246
875.108	22310
875.237	22257
875.365	22219
875.494	22291
875.623	22325
875.751	22253
875.88	22333
876.008	22382
876.136	22432
876.265	22706
876.393	22965
876.521	22691
876.65	22786
876.778	22816
876.906	22592
877.034	22645
877.162	22672
877.29	22596
877.418	22618
877.546	22599
877.674	22622
877.802	22649
877.93	22786
878.058	22675
878.185	22542
878.313	22641
878.441	22599
878.568	22462
878.696	22596
878.824	22599
878.951	22801
879.079	22801
879.206	22915
879.333	22778
879.461	22668
879.588	22771
879.715	22854
879.842	22938
879.97	22599
880.097	22554
880.224	22421
880.351	22443
880.478	22394
880.605	22341
880.732	22459
880.859	22786
880.986	22348
881.112	22432
881.239	22402
881.366	22219
881.493	22135
881.619	22120
881.746	22097
881.872	22109
881.999	22006
882.125	22044
882.252	22074
882.378	21987
882.505	22128
882.631	21953
882.757	21751
882.883	21778
883.01	21766
883.136	21774
883.262	21690
883.388	21652
883.514	21728
883.64	21759
883.766	21724
883.892	21660
884.018	21469
884.143	21622
884.269	21793
884.395	21488
884.52	21420
884.646	21458
884.772	21374
884.897	21310
885.023	21370
885.148	21382
885.274	21458
885.399	21439
885.524	21359
885.65	21393
885.775	21454
885.9	21291
886.025	21431
886.15	21458
886.275	21310
886.4	21252
886.525	21431
886.65	21230
886.775	21325
886.9	21439
887.025	21523
887.149	21420
887.274	21039
887.399	21127
887.523	21184
887.648	21009
887.773	20941
887.897	21184
888.021	21203
888.146	20963
888.27	21207
888.395	21237
888.519	21043
888.643	21077
888.767	21123
888.891	21036
889.015	20910
889.139	20906
889.263	20876
889.387	21070
889.511	21154
889.635	20975
889.759	20914
889.883	20845
890.006	20921
890.13	21020
890.254	20906
890.377	20792
890.501	20655
890.624	20644
890.748	20708
890.871	20667
890.995	20377
891.118	20377
891.241	20431
891.364	20541
891.488	20590
891.611	20396
891.734	20423
891.857	20522
891.98	20552
892.103	20431
892.226	20431
892.349	20412
892.471	20176
892.594	20419
892.717	20355
892.839	20358
892.962	20442
893.085	20370
893.207	20374
893.33	20309
893.452	20187
893.575	20446
893.697	20355
893.819	20446
893.941	20476
894.064	20488
894.186	20248
894.308	20218
894.43	20503
894.552	20393
894.674	20423
894.796	20305
894.918	20381
895.04	20202
895.161	20370
895.283	20313
895.405	20317
895.526	20415
895.648	20377
895.769	20351
895.891	20366
896.012	20476
896.134	20503
896.255	20358
896.376	20362
896.498	20499
896.619	20290
896.74	20427
896.861	20423
896.982	20823
897.103	20815
897.224	20708
897.345	20644
897.466	20423
897.587	20632
897.708	20693
897.828	20571
897.949	20594
898.07	20408
898.19	20545
898.311	20731
898.431	20541
898.552	20579
898.672	20629
898.792	20655
898.913	20590
899.033	20427
899.153	20343
899.273	20153
899.393	20271
899.513	20324
899.633	20214
899.753	20229
899.873	20183
899.993	20180
900.113	20126
900.232	20229
900.352	20187
900.472	20081
900.591	19967
900.711	20058
900.83	20012
900.95	20168
901.069	20191
901.189	20054
901.308	19719
901.427	19704
901.546	19696
901.665	19658
901.784	19658
901.904	19419
902.023	19346
902.141	19251
902.26	19145
902.379	19240
902.498	19141
902.617	19137
902.735	19202
902.854	19103
902.973	19023
903.091	18749
903.21	18768
903.328	18795
903.446	18673
903.565	18513
903.683	18658
903.801	18418
903.919	18589
904.038	18410
904.156	18498
904.274	18475
904.392	18315
904.51	18224
904.627	18296
904.745	18403
904.863	18243
904.981	18110
905.098	17988
905.216	17916
905.334	18049
905.451	18079
905.569	17984
905.686	18076
905.803	17942
905.921	17722
906.038	17931
906.155	17874
906.272	17680
906.389	17676
906.506	17547
906.623	17524
906.74	17551
906.857	17341
906.974	17307
907.091	17516
907.208	17760
907.324	17512
907.441	17406
907.557	17292
907.674	17185
907.79	17128
907.907	17181
908.023	17109
908.139	17265
908.256	17140
908.372	17003
908.488	17052
908.604	16828
908.72	16873
908.836	16953
908.952	16793
909.068	16915
909.184	16953
909.3	16892
909.415	16923
909.531	16801
909.647	16630
909.762	16558
909.878	16611
909.993	16516
910.108	16603
910.224	16580
910.339	16550
910.454	16421
910.57	16276
910.685	16253
910.8	16489
910.915	16626
911.03	16280
911.145	16131
911.259	16051
911.374	16150
911.489	16078
911.604	15941
911.718	15846
911.833	15835
911.947	15755
912.062	15762
912.176	15895
912.291	15873
912.405	15846
912.519	15956
912.633	16055
912.748	15987
912.862	15869
912.976	15641
913.09	15507
913.204	15656
913.318	15595
913.431	15759
913.545	15751
913.659	15694
913.772	15656
913.886	15587
914	15511
914.113	15572
914.226	15564
914.34	15507
914.453	15374
914.566	15515
914.68	15424
914.793	15291
914.906	15123
915.019	15028
915.132	15135
915.245	15036
915.358	15100
915.47	15104
915.583	15081
915.696	15123
915.809	15272
915.921	15230
916.034	15127
916.146	14971
916.259	15036
916.371	15066
916.483	15017
916.595	14899
916.708	14918
916.82	14918
916.932	14826
917.044	14891
917.156	14842
917.268	14712
917.38	14727
917.491	14735
917.603	14727
917.715	14800
917.826	14823
917.938	14667
918.049	14511
918.161	14621
918.272	14792
918.384	14880
918.495	14667
918.606	14518
918.717	14404
918.828	14507
918.939	14503
919.05	14461
919.161	14476
919.272	14278
919.383	14351
919.494	14465
919.604	14598
919.715	14454
919.826	14271
919.936	14313
920.047	14492
920.157	14469
920.267	14556
920.378	14400
920.488	14313
920.598	14571
920.708	14629
920.818	14545
920.928	14469
921.038	14648
921.148	14613
921.258	14313
921.368	14164
921.477	14145
921.587	14050
921.697	13982
921.806	14138
921.916	14084
922.025	13841
922.134	13799
922.244	13761
922.353	13849
922.462	13811
922.571	13525
922.68	13419
922.789	13381
922.898	13339
923.007	13365
923.116	13514
923.224	13419
923.333	13400
923.442	13278
923.55	13282
923.659	13247
923.767	13312
923.876	13232
923.984	13278
924.092	13053
924.201	13190
924.309	13175
924.417	13129
924.525	13095
924.633	13114
924.741	13811
924.849	12897
924.956	13031
925.064	12935
925.172	12817
925.279	12859
925.387	12859
925.494	12817
925.602	12973
925.709	12825
925.816	12764
925.924	12764
926.031	12897
926.138	12802
926.245	12901
926.352	12711
926.459	12795
926.566	12840
926.673	12665
926.779	12582
926.886	12658
926.993	12448
927.099	12334
927.206	12323
927.312	12414
927.419	12422
927.525	12407
927.631	12483
927.737	12353
927.843	12251
927.95	12190
928.056	12190
928.162	12205
928.267	12315
928.373	12875
928.479	12304
928.585	12083
928.69	12186
928.796	12239
928.901	12129
929.007	11889
929.112	12114
929.218	12038
929.323	11984
929.428	11965
929.533	12186
929.638	11942
929.743	11885
929.848	12030
929.953	11950
930.058	11794
930.163	11695
930.267	11729
930.372	11821
930.477	11585
930.581	11813
930.685	11619
930.79	11440
930.894	11543
930.998	11528
931.103	11581
931.207	11345
931.311	11162
931.415	11143
931.519	10881
931.623	10919
