Data from test_V78500241_201.txt Node
Date: Fri Mar 25 15:43:11 CST 2022
User: usil
Spectrometer: V785-0024
Trigger mode: 0
Integration Time (sec): 4.000000E-1
Scans to average: 1
Nonlinearity correction enabled: false
Boxcar width: 0
Storing dark spectrum: false
XAxis mode: Wavelengths
Number of Pixels in Spectrum: 1024
>>>>>Begin Spectral Data<<<<<
801.071	29098
801.214	29246
801.356	28942
801.499	28835
801.641	28710
801.783	28752
801.926	28771
802.068	28694
802.211	28649
802.353	28592
802.496	28394
802.638	28424
802.78	28356
802.923	28257
803.065	28272
803.208	28382
803.35	28306
803.492	28390
803.635	28485
803.777	28401
803.919	28664
804.061	28877
804.204	28478
804.346	28306
804.488	28284
804.63	28394
804.773	28352
804.915	28386
805.057	28694
805.199	28478
805.341	28474
805.483	28489
805.626	28481
805.768	28443
805.91	28554
806.052	28580
806.194	28542
806.336	28668
806.478	28577
806.62	28470
806.762	28729
806.904	28713
807.046	28987
807.188	28885
807.33	28862
807.472	29060
807.614	28858
807.756	28809
807.898	28683
808.04	28672
808.182	28763
808.324	28725
808.465	28691
808.607	29003
808.749	29086
808.891	29315
809.033	29151
809.174	29121
809.316	28949
809.458	29083
809.6	28968
809.741	29083
809.883	29204
810.025	29353
810.166	29463
810.308	29315
810.45	29216
810.591	29326
810.733	28999
810.875	29075
811.016	29006
811.158	28972
811.299	29181
811.441	29204
811.582	29246
811.724	29067
811.865	28934
812.007	29060
812.148	28904
812.29	29033
812.431	29166
812.573	29345
812.714	29349
812.855	29471
812.997	29596
813.138	29851
813.279	29604
813.421	29417
813.562	29307
813.703	29299
813.845	29269
813.986	28869
814.127	28801
814.268	28683
814.41	28736
814.551	28557
814.692	28778
814.833	28538
814.974	28459
815.115	28721
815.256	28497
815.397	28421
815.539	28451
815.68	28367
815.821	28268
815.962	28299
816.103	28398
816.244	28265
816.385	28143
816.526	28177
816.666	27945
816.807	27793
816.948	27922
817.089	27983
817.23	27911
817.371	27846
817.512	27854
817.653	27682
817.793	27766
817.934	27857
818.075	27861
818.216	27644
818.356	27648
818.497	27599
818.638	27545
818.778	27530
818.919	27492
819.06	27751
819.2	27675
819.341	27667
819.481	27644
819.622	27808
819.762	28109
819.903	27918
820.043	27835
820.184	27911
820.324	27766
820.465	27911
820.605	27895
820.746	27949
820.886	27663
821.026	27789
821.167	27724
821.307	27800
821.447	27823
821.588	27599
821.728	27545
821.868	27336
822.008	27085
822.149	27100
822.289	27100
822.429	26830
822.569	26773
822.709	26815
822.849	26663
822.99	26693
823.13	26514
823.27	26453
823.41	26446
823.55	26206
823.69	26427
823.83	26442
823.97	26347
824.11	26221
824.25	26221
824.389	26218
824.529	26351
824.669	26191
824.809	26301
824.949	26294
825.089	26214
825.228	26195
825.368	26180
825.508	26115
825.648	26001
825.787	26161
825.927	26024
826.067	26100
826.206	26001
826.346	25993
826.485	26016
826.625	26069
826.765	26111
826.904	26062
827.044	25807
827.183	25727
827.323	25776
827.462	25742
827.601	25666
827.741	25639
827.88	25689
828.02	25643
828.159	25563
828.298	25495
828.437	25597
828.577	25445
828.716	25784
828.855	25529
828.994	25365
829.134	25354
829.273	25381
829.412	25358
829.551	25259
829.69	25297
829.829	25377
829.968	25327
830.107	25479
830.246	25377
830.385	25194
830.524	25202
830.663	25114
830.802	25050
830.941	24992
831.08	24779
831.219	24966
831.357	24859
831.496	25015
831.635	24772
831.774	24738
831.913	24791
832.051	24631
832.19	24639
832.329	24593
832.467	24612
832.606	24578
832.744	24509
832.883	24467
833.022	24551
833.16	24585
833.299	24570
833.437	24566
833.576	24601
833.714	24547
833.852	24730
833.991	24646
834.129	24547
834.267	24589
834.406	24547
834.544	24601
834.682	24612
834.821	24547
834.959	24757
835.097	24494
835.235	24578
835.373	24551
835.511	24597
835.65	24327
835.788	24388
835.926	24308
836.064	24159
836.202	24224
836.34	24277
836.478	24414
836.615	24384
836.753	24437
836.891	24483
837.029	24346
837.167	24266
837.305	24140
837.443	24304
837.58	24121
837.718	24281
837.856	24174
837.993	24163
838.131	24194
838.269	23923
838.406	24117
838.544	23885
838.681	23817
838.819	23786
838.956	23703
839.094	23653
839.231	23672
839.369	23904
839.506	23942
839.643	23870
839.781	23535
839.918	23520
840.055	23516
840.193	23497
840.33	23406
840.467	23539
840.604	23570
840.742	23775
840.879	23372
841.016	23436
841.153	23277
841.29	23672
841.427	23299
841.564	23539
841.701	23425
841.838	23463
841.975	23303
842.112	23284
842.249	23334
842.385	23124
842.522	23497
842.659	23223
842.796	23212
842.933	23197
843.069	23109
843.206	23067
843.343	23258
843.479	23231
843.616	23105
843.752	23025
843.889	22934
844.025	23098
844.162	22858
844.298	23018
844.435	22953
844.571	22835
844.708	22991
844.844	22995
844.98	23006
845.117	22991
845.253	22748
845.389	22790
845.525	22858
845.661	22797
845.798	22683
845.934	22717
846.07	22618
846.206	22592
846.342	22660
846.478	22664
846.614	22375
846.75	22390
846.886	22432
847.022	22478
847.158	22318
847.294	22356
847.429	22424
847.565	22318
847.701	22561
847.837	22131
847.972	22097
848.108	22204
848.244	22070
848.379	21968
848.515	21907
848.65	21941
848.786	21907
848.921	21922
849.057	21911
849.192	21994
849.328	21953
849.463	21926
849.598	21876
849.734	21842
849.869	21774
850.004	21553
850.14	21804
850.275	21660
850.41	21568
850.545	21538
850.68	21561
850.815	21614
850.95	21576
851.085	21751
851.22	21675
851.355	21519
851.49	21587
851.625	21614
851.76	21709
851.895	21534
852.03	21443
852.165	21606
852.299	21663
852.434	21739
852.569	21709
852.703	21656
852.838	21682
852.973	21785
853.107	21724
853.242	21496
853.376	21488
853.511	21496
853.645	21454
853.78	21477
853.914	21534
854.048	21458
854.183	21351
854.317	21458
854.451	21603
854.585	21386
854.72	21405
854.854	21587
854.988	21367
855.122	21405
855.256	21211
855.39	21485
855.524	21580
855.658	21526
855.792	21496
855.926	21462
856.06	21523
856.194	21454
856.327	21374
856.461	21272
856.595	21382
856.729	21485
856.862	21534
856.996	21393
857.13	21561
857.263	21443
857.397	21420
857.53	21401
857.664	21351
857.797	21447
857.931	21488
858.064	21492
858.197	21523
858.331	21336
858.464	21313
858.597	21218
858.731	21378
858.864	21287
858.997	21302
859.13	21367
859.263	21340
859.396	21389
859.529	21439
859.662	21294
859.795	21264
859.928	21363
860.061	21542
860.194	21534
860.327	21249
860.46	21359
860.592	21481
860.725	21450
860.858	21397
860.99	21272
861.123	21348
861.256	21405
861.388	21386
861.521	22040
861.653	21195
861.786	21176
861.918	21313
862.05	21336
862.183	21393
862.315	21450
862.447	21450
862.58	21287
862.712	21116
862.844	21062
862.976	21085
863.108	21195
863.24	21374
863.372	20937
863.504	21047
863.636	20979
863.768	21074
863.9	20967
864.032	21070
864.164	20960
864.296	21104
864.428	21096
864.559	21127
864.691	21154
864.823	21036
864.954	20998
865.086	20994
865.217	20880
865.349	20845
865.48	20933
865.612	20994
865.743	21169
865.875	20937
866.006	21055
866.137	20948
866.269	21047
866.4	20933
866.531	20826
866.662	20735
866.793	20868
866.924	20864
867.055	20864
867.186	20819
867.317	20861
867.448	20735
867.579	20868
867.71	20765
867.841	20891
867.972	20849
868.103	20811
868.233	20834
868.364	20849
868.495	20902
868.625	21066
868.756	21066
868.886	21017
869.017	21108
869.147	21150
869.278	21195
869.408	21001
869.539	21104
869.669	21157
869.799	21150
869.929	21233
870.06	21184
870.19	21325
870.32	21431
870.45	21454
870.58	21519
870.71	21572
870.84	21580
870.97	21435
871.1	21481
871.23	21538
871.36	21553
871.489	21587
871.619	21557
871.749	21679
871.879	21789
872.008	21918
872.138	21713
872.267	21701
872.397	21603
872.526	21454
872.656	21515
872.785	21462
872.915	21713
873.044	21770
873.173	21675
873.303	21747
873.432	21785
873.561	21785
873.69	21785
873.819	21686
873.948	21778
874.077	21770
874.206	21724
874.335	21614
874.464	21827
874.593	21979
874.722	21983
874.851	21945
874.979	21972
875.108	21945
875.237	21941
875.365	21812
875.494	21842
875.623	22147
875.751	21987
875.88	22029
876.008	22029
876.136	22135
876.265	22329
876.393	22535
876.521	22538
876.65	22360
876.778	22459
876.906	22268
877.034	22143
877.162	22379
877.29	22322
877.418	22371
877.546	22280
877.674	22207
877.802	22230
877.93	22390
878.058	22150
878.185	22169
878.313	22261
878.441	22192
878.568	22131
878.696	22093
878.824	22402
878.951	22405
879.079	22459
879.206	22542
879.333	22500
879.461	22306
879.588	22474
879.715	22500
879.842	22630
879.97	22352
880.097	22143
880.224	22124
880.351	22135
880.478	22185
880.605	21953
880.732	22135
880.859	22219
880.986	22181
881.112	22188
881.239	22013
881.366	21918
881.493	21755
881.619	21667
881.746	21797
881.872	21603
881.999	21720
882.125	21663
882.252	21759
882.378	21743
882.505	21888
882.631	21412
882.757	21462
882.883	21523
883.01	21462
883.136	21397
883.262	21203
883.388	21329
883.514	21462
883.64	21515
883.766	21348
883.892	21165
884.018	21203
884.143	21485
884.269	21488
884.395	21119
884.52	20986
884.646	21058
884.772	21047
884.897	20906
885.023	21108
885.148	21249
885.274	21161
885.399	21108
885.524	20998
885.65	21104
885.775	20914
885.9	21051
886.025	21173
886.15	21176
886.275	20906
886.4	20929
886.525	20960
886.65	20960
886.775	20963
886.9	21108
887.025	21199
887.149	21066
887.274	20872
887.399	20830
887.523	20815
887.648	20682
887.773	20864
887.897	20921
888.021	20838
888.146	20762
888.27	20845
888.395	20819
888.519	20777
888.643	20765
888.767	20788
888.891	20811
889.015	20621
889.139	20598
889.263	20644
889.387	20697
889.511	20788
889.635	20602
889.759	20598
889.883	20499
890.006	20571
890.13	20651
890.254	20336
890.377	20518
890.501	20366
890.624	20153
890.748	20305
890.871	20267
890.995	20100
891.118	20005
891.241	20263
891.364	20191
891.488	20313
891.611	20214
891.734	20237
891.857	20225
891.98	20168
892.103	20271
892.226	20100
892.349	20176
892.471	19993
892.594	20134
892.717	20161
892.839	20096
892.962	20062
893.085	20096
893.207	20248
893.33	20001
893.452	20027
893.575	20119
893.697	20065
893.819	20199
893.941	20191
894.064	20168
894.186	20065
894.308	20027
894.43	20031
894.552	20142
894.674	20164
894.796	20008
894.918	19986
895.04	20077
895.161	20210
895.283	20103
895.405	19940
895.526	20058
895.648	19963
895.769	20145
895.891	20134
896.012	20172
896.134	20012
896.255	20092
896.376	20115
896.498	20069
896.619	20138
896.74	20069
896.861	20294
896.982	20511
897.103	20617
897.224	20404
897.345	20336
897.466	20248
897.587	20301
897.708	20427
897.828	20404
897.949	20275
898.07	19997
898.19	20202
898.311	20347
898.431	20161
898.552	20248
898.672	20450
898.792	20362
898.913	20221
899.033	20161
899.153	20062
899.273	19967
899.393	20001
899.513	20043
899.633	19967
899.753	20065
899.873	20001
899.993	20058
900.113	19852
900.232	20031
900.352	19947
900.472	19772
900.591	19776
900.711	19734
900.83	19609
900.95	19879
901.069	19993
901.189	19734
901.308	19415
901.427	19358
901.546	19293
901.665	19354
901.784	19358
901.904	19221
902.023	19148
902.141	18993
902.26	18909
902.379	18928
902.498	18795
902.617	18738
902.735	18897
902.854	18886
902.973	18738
903.091	18483
903.21	18540
903.328	18544
903.446	18448
903.565	18338
903.683	18357
903.801	18232
903.919	18220
904.038	18304
904.156	18163
904.274	18182
904.392	18152
904.51	18060
904.627	18102
904.745	18068
904.863	18079
904.981	17866
905.098	17809
905.216	17752
905.334	17767
905.451	17752
905.569	17752
905.686	17859
905.803	17657
905.921	17573
906.038	17558
906.155	17482
906.272	17414
906.389	17490
906.506	17227
906.623	17273
906.74	17227
906.857	17136
906.974	17193
907.091	17269
907.208	17299
907.324	17208
907.441	17094
907.557	17064
907.674	17006
907.79	16908
907.907	17037
908.023	17010
908.139	16968
908.256	16972
908.372	16877
908.488	16797
908.604	16656
908.72	16702
908.836	16649
908.952	16653
909.068	16721
909.184	16615
909.3	16523
909.415	16672
909.531	16649
909.647	16436
909.762	16379
909.878	16333
909.993	16424
910.108	16329
910.224	16211
910.339	16291
910.454	16150
910.57	16207
910.685	16055
910.8	16421
910.915	16325
911.03	16071
911.145	16010
911.259	15846
911.374	15960
911.489	15869
911.604	15751
911.718	15549
911.833	15751
911.947	15564
912.062	15564
912.176	15656
912.291	15800
912.405	15667
912.519	15953
912.633	15812
912.748	15705
912.862	15584
912.976	15523
913.09	15344
913.204	15416
913.318	15504
913.431	15496
913.545	15561
913.659	15580
913.772	15393
913.886	15268
914	15275
914.113	15443
914.226	15325
914.34	15329
914.453	15138
914.566	15359
914.68	15173
914.793	15058
914.906	14982
915.019	14941
915.132	14872
915.245	14921
915.358	14960
915.47	14781
915.583	14891
915.696	14937
915.809	15085
915.921	15081
916.034	14830
916.146	14785
916.259	14811
916.371	14960
916.483	14830
916.595	14724
916.708	14754
916.82	14697
916.932	14632
917.044	14739
917.156	14594
917.268	14457
917.38	14590
917.491	14552
917.603	14606
917.715	14598
917.826	14621
917.938	14488
918.049	14404
918.161	14427
918.272	14621
918.384	14575
918.495	14552
918.606	14415
918.717	14343
918.828	14328
918.939	14412
919.05	14271
919.161	14218
919.272	14092
919.383	14069
919.494	14298
919.604	14530
919.715	14351
919.826	14157
919.936	14206
920.047	14377
920.157	14275
920.267	14457
920.378	14244
920.488	14256
920.598	14511
920.708	14545
920.818	14438
920.928	14332
921.038	14469
921.148	14393
921.258	14138
921.368	14039
921.477	13982
921.587	13982
921.697	13925
921.806	14039
921.916	13822
922.025	13677
922.134	13636
922.244	13643
922.353	13689
922.462	13483
922.571	13396
922.68	13285
922.789	13263
922.898	13225
923.007	13251
923.116	13266
923.224	13171
923.333	13213
923.442	13015
923.55	13053
923.659	13027
923.767	13103
923.876	13084
923.984	13122
924.092	13004
924.201	12989
924.309	13034
924.417	13038
924.525	12966
924.633	12947
924.741	13712
924.849	12738
924.956	12993
925.064	12730
925.172	12623
925.279	12719
925.387	12741
925.494	12783
925.602	12882
925.709	12757
925.816	12623
925.924	12696
926.031	12745
926.138	12681
926.245	12673
926.352	12490
926.459	12597
926.566	12707
926.673	12551
926.779	12399
926.886	12441
926.993	12289
927.099	12228
927.206	12289
927.312	12121
927.419	12262
927.525	12190
927.631	12315
927.737	12102
927.843	12102
927.95	11973
928.056	12098
928.162	12091
928.267	12049
928.373	12730
928.479	12194
928.585	11855
928.69	12030
928.796	12068
928.901	11889
929.007	11790
929.112	11904
929.218	11859
929.323	11775
929.428	11790
929.533	11904
929.638	11592
929.743	11726
929.848	11779
929.953	11695
930.058	11668
930.163	11459
930.267	11509
930.372	11585
930.477	11543
930.581	11680
930.685	11539
930.79	11455
930.894	11414
930.998	11360
931.103	11414
931.207	11067
931.311	11014
931.415	10972
931.519	10755
931.623	10729
