Data from test_V78500241_2239.txt Node
Date: Fri Mar 25 15:57:18 CST 2022
User: usil
Spectrometer: V785-0024
Trigger mode: 0
Integration Time (sec): 4.000000E-1
Scans to average: 1
Nonlinearity correction enabled: false
Boxcar width: 0
Storing dark spectrum: false
XAxis mode: Wavelengths
Number of Pixels in Spectrum: 1024
>>>>>Begin Spectral Data<<<<<
801.071	28790
801.214	28637
801.356	28436
801.499	28394
801.641	28394
801.783	28299
801.926	28367
802.068	28211
802.211	28211
802.353	28078
802.496	27968
802.638	27922
802.78	27865
802.923	27873
803.065	27694
803.208	27991
803.35	27846
803.492	28112
803.635	28173
803.777	28078
803.919	28181
804.061	28344
804.204	28276
804.346	28124
804.488	27983
804.63	28158
804.773	28082
804.915	28116
805.057	28303
805.199	28188
805.341	28230
805.483	28322
805.626	28466
805.768	28226
805.91	28504
806.052	28280
806.194	28276
806.336	28527
806.478	28401
806.62	28382
806.762	28607
806.904	28523
807.046	28805
807.188	28774
807.33	28812
807.472	28820
807.614	28683
807.756	28698
807.898	28546
808.04	28542
808.182	28577
808.324	28580
808.465	28744
808.607	28949
808.749	29041
808.891	29193
809.033	29124
809.174	29037
809.316	28900
809.458	28930
809.6	28942
809.741	29094
809.883	29109
810.025	29421
810.166	29284
810.308	29223
810.45	29242
810.591	29250
810.733	29117
810.875	28991
811.016	28999
811.158	28835
811.299	29037
811.441	29143
811.582	29269
811.724	28991
811.865	29044
812.007	29098
812.148	28953
812.29	29029
812.431	29132
812.573	29315
812.714	29421
812.855	29512
812.997	29581
813.138	29661
813.279	29684
813.421	29539
813.562	29326
813.703	29444
813.845	29140
813.986	28915
814.127	28843
814.268	28752
814.41	28820
814.551	28717
814.692	28694
814.833	28672
814.974	28733
815.115	28812
815.256	28561
815.397	28557
815.539	28634
815.68	28440
815.821	28542
815.962	28519
816.103	28535
816.244	28363
816.385	28295
816.526	28325
816.666	28131
816.807	28078
816.948	28086
817.089	28192
817.23	27937
817.371	28006
817.512	28143
817.653	28040
817.793	27998
817.934	28082
818.075	28029
818.216	28128
818.356	28006
818.497	27899
818.638	27819
818.778	27751
818.919	27762
819.06	27873
819.2	27873
819.341	28040
819.481	28109
819.622	28105
819.762	28500
819.903	28314
820.043	28242
820.184	28128
820.324	28181
820.465	28086
820.605	28169
820.746	28109
820.886	28059
821.026	28063
821.167	28017
821.307	28196
821.447	28207
821.588	27937
821.728	27819
821.868	27728
822.008	27599
822.149	27408
822.289	27454
822.429	27348
822.569	27241
822.709	27222
822.849	27096
822.99	27028
823.13	27024
823.27	27017
823.41	26788
823.55	26644
823.69	26880
823.83	26834
823.97	26891
824.11	26724
824.25	26636
824.389	26701
824.529	26705
824.669	26682
824.809	26769
824.949	26785
825.089	26800
825.228	26712
825.368	26473
825.508	26724
825.648	26518
825.787	26560
825.927	26530
826.067	26442
826.206	26625
826.346	26560
826.485	26590
826.625	26537
826.765	26697
826.904	26503
827.044	26282
827.183	26301
827.323	26202
827.462	26419
827.601	26176
827.741	26157
827.88	26374
828.02	26119
828.159	26278
828.298	26244
828.437	26286
828.577	26126
828.716	26328
828.855	26153
828.994	25921
829.134	26005
829.273	26054
829.412	25989
829.551	25997
829.69	25951
829.829	25845
829.968	26069
830.107	26134
830.246	26058
830.385	25856
830.524	25936
830.663	25715
830.802	25738
830.941	25483
831.08	25506
831.219	25601
831.357	25510
831.496	25788
831.635	25556
831.774	25491
831.913	25422
832.051	25441
832.19	25346
832.329	25434
832.467	25312
832.606	25084
832.744	25126
832.883	25259
833.022	25160
833.16	25114
833.299	25183
833.437	25263
833.576	25160
833.714	25244
833.852	25426
833.991	25365
834.129	25327
834.267	25316
834.406	25164
834.544	25183
834.682	25346
834.821	25343
834.959	25308
835.097	25228
835.235	25403
835.373	25141
835.511	25354
835.65	25088
835.788	25171
835.926	24863
836.064	24973
836.202	24863
836.34	25076
836.478	25095
836.615	25217
836.753	25145
836.891	25202
837.029	25050
837.167	24897
837.305	24920
837.443	24939
837.58	24947
837.718	24878
837.856	24958
837.993	24772
838.131	24871
838.269	24817
838.406	24878
838.544	24779
838.681	24658
838.819	24570
838.956	24304
839.094	24388
839.231	24422
839.369	24585
839.506	24688
839.643	24654
839.781	24502
839.918	24323
840.055	24437
840.193	24350
840.33	24327
840.467	24327
840.604	24422
840.742	24585
840.879	24098
841.016	24270
841.153	24098
841.29	24384
841.427	24247
841.564	24308
841.701	24369
841.838	24330
841.975	24224
842.112	24106
842.249	24102
842.385	24018
842.522	24243
842.659	24041
842.796	23969
842.933	24125
843.069	23939
843.206	23973
843.343	24125
843.479	24064
843.616	24083
843.752	23870
843.889	23836
844.025	23764
844.162	23771
844.298	23950
844.435	23703
844.571	23832
844.708	23767
844.844	24049
844.98	23958
845.117	23927
845.253	23733
845.389	23676
845.525	23691
845.661	23630
845.798	23433
845.934	23646
846.07	23562
846.206	23551
846.342	23642
846.478	23474
846.614	23406
846.75	23227
846.886	23216
847.022	23235
847.158	23326
847.294	23200
847.429	23376
847.565	23204
847.701	23554
847.837	22961
847.972	23022
848.108	23025
848.244	23128
848.379	22862
848.515	22923
848.65	22839
848.786	22892
848.921	22938
849.057	23010
849.192	22980
849.328	22710
849.463	22873
849.598	22679
849.734	22653
849.869	22668
850.004	22626
850.14	22603
850.275	22672
850.41	22599
850.545	22573
850.68	22599
850.815	22710
850.95	22519
851.085	22786
851.22	22763
851.355	22660
851.49	22592
851.625	22478
851.76	22554
851.895	22542
852.03	22538
852.165	22535
852.299	22645
852.434	22793
852.569	22660
852.703	22656
852.838	22733
852.973	22592
853.107	22607
853.242	22535
853.376	22531
853.511	22367
853.645	22462
853.78	22512
853.914	22436
854.048	22409
854.183	22500
854.317	22531
854.451	22622
854.585	22493
854.72	22455
854.854	22649
854.988	22344
855.122	22409
855.256	22265
855.39	22394
855.524	22546
855.658	22500
855.792	22493
855.926	22519
856.06	22379
856.194	22554
856.327	22352
856.461	22360
856.595	22341
856.729	22512
856.862	22550
856.996	22398
857.13	22561
857.263	22554
857.397	22451
857.53	22500
857.664	22497
857.797	22630
857.931	22531
858.064	22474
858.197	22569
858.331	22451
858.464	22394
858.597	22432
858.731	22344
858.864	22341
858.997	22390
859.13	22352
859.263	22295
859.396	22474
859.529	22447
859.662	22459
859.795	22478
859.928	22413
860.061	22519
860.194	22622
860.327	22531
860.46	22577
860.592	22588
860.725	22561
860.858	22592
860.99	22363
861.123	22367
861.256	22440
861.388	22394
861.521	23083
861.653	22253
861.786	22295
861.918	22363
862.05	22371
862.183	22291
862.315	22337
862.447	22428
862.58	22337
862.712	22093
862.844	22150
862.976	22272
863.108	22120
863.24	22622
863.372	22051
863.504	22268
863.636	22166
863.768	22200
863.9	22234
864.032	22029
864.164	22192
864.296	22090
864.428	22147
864.559	22325
864.691	22090
864.823	22181
864.954	22188
865.086	22128
865.217	21930
865.349	21930
865.48	22013
865.612	22097
865.743	22070
865.875	21934
866.006	22006
866.137	21949
866.269	21975
866.4	21941
866.531	21865
866.662	21819
866.793	21892
866.924	22017
867.055	21987
867.186	21926
867.317	21987
867.448	21850
867.579	21949
867.71	21895
867.841	21934
867.972	21968
868.103	21846
868.233	21953
868.364	21850
868.495	22086
868.625	22158
868.756	22318
868.886	22200
869.017	22158
869.147	22268
869.278	22284
869.408	22284
869.539	22188
869.669	22238
869.799	22116
869.929	22223
870.06	22322
870.19	22360
870.32	22478
870.45	22592
870.58	22626
870.71	22641
870.84	22630
870.97	22523
871.1	22649
871.23	22873
871.36	22831
871.489	22717
871.619	22733
871.749	22831
871.879	22835
872.008	22847
872.138	22801
872.267	22934
872.397	22630
872.526	22641
872.656	22691
872.785	22607
872.915	22748
873.044	22869
873.173	22881
873.303	22797
873.432	22896
873.561	22839
873.69	22923
873.819	22820
873.948	22881
874.077	22778
874.206	22698
874.335	22721
874.464	22976
874.593	23037
874.722	22991
874.851	23117
874.979	23086
875.108	23136
875.237	22976
875.365	22915
875.494	22976
875.623	23090
875.751	22980
875.88	22934
876.008	23029
876.136	23200
876.265	23414
876.393	23535
876.521	23486
876.65	23501
876.778	23482
876.906	23326
877.034	23391
877.162	23398
877.29	23231
877.418	23364
877.546	23379
877.674	23303
877.802	23292
877.93	23326
878.058	23311
878.185	23284
878.313	23337
878.441	23383
878.568	23174
878.696	23200
878.824	23288
878.951	23471
879.079	23406
879.206	23627
879.333	23570
879.461	23322
879.588	23512
879.715	23505
879.842	23680
879.97	23356
880.097	23132
880.224	23258
880.351	23212
880.478	23174
880.605	23204
880.732	23197
880.859	23421
880.986	23178
881.112	23185
881.239	22957
881.366	22938
881.493	22889
881.619	22793
881.746	22702
881.872	22816
881.999	22645
882.125	22702
882.252	22778
882.378	22729
882.505	22744
882.631	22531
882.757	22470
882.883	22405
883.01	22466
883.136	22485
883.262	22268
883.388	22219
883.514	22440
883.64	22398
883.766	22181
883.892	22291
884.018	22169
884.143	22306
884.269	22428
884.395	22048
884.52	22090
884.646	22147
884.772	21972
884.897	21854
885.023	21945
885.148	22063
885.274	22147
885.399	22139
885.524	22025
885.65	21964
885.775	22029
885.9	22055
886.025	22196
886.15	22238
886.275	22010
886.4	21956
886.525	21949
886.65	22044
886.775	22013
886.9	22185
887.025	22230
887.149	21949
887.274	21888
887.399	21816
887.523	21873
887.648	21762
887.773	21819
887.897	21747
888.021	21835
888.146	21812
888.27	21926
888.395	21918
888.519	21797
888.643	21812
888.767	21800
888.891	21599
889.015	21564
889.139	21686
889.263	21488
889.387	21774
889.511	21709
889.635	21751
889.759	21557
889.883	21587
890.006	21614
890.13	21667
890.254	21496
890.377	21610
890.501	21355
890.624	21302
890.748	21378
890.871	21298
890.995	21077
891.118	21157
891.241	21119
891.364	21100
891.488	21176
891.611	21074
891.734	21070
891.857	21218
891.98	21157
892.103	21252
892.226	21096
892.349	21028
892.471	20986
892.594	21074
892.717	21135
892.839	20937
892.962	21047
893.085	21157
893.207	21100
893.33	20845
893.452	20937
893.575	21180
893.697	20975
893.819	21195
893.941	21272
894.064	21127
894.186	20918
894.308	21036
894.43	21020
894.552	21188
894.674	21036
894.796	20967
894.918	21032
895.04	21024
895.161	21169
895.283	21062
895.405	20902
895.526	21043
895.648	20998
895.769	21100
895.891	21127
896.012	21020
896.134	21138
896.255	21024
896.376	20861
896.498	21020
896.619	21116
896.74	21001
896.861	21058
896.982	21252
897.103	21530
897.224	21279
897.345	21264
897.466	21100
897.587	21214
897.708	21374
897.828	21275
897.949	21184
898.07	21077
898.19	21146
898.311	21329
898.431	21173
898.552	21321
898.672	21313
898.792	21325
898.913	21192
899.033	21074
899.153	21009
899.273	20842
899.393	20994
899.513	20975
899.633	20929
899.753	20990
899.873	20853
899.993	20861
900.113	20872
900.232	20906
900.352	20899
900.472	20792
900.591	20609
900.711	20701
900.83	20602
900.95	20807
901.069	20796
901.189	20636
901.308	20450
901.427	20221
901.546	20370
901.665	20206
901.784	20339
901.904	20164
902.023	20088
902.141	19947
902.26	19731
902.379	19974
902.498	19849
902.617	19757
902.735	19795
902.854	19894
902.973	19647
903.091	19457
903.21	19499
903.328	19403
903.446	19415
903.565	19358
903.683	19327
903.801	19168
903.919	19164
904.038	19228
904.156	19031
904.274	19198
904.392	18958
904.51	18837
904.627	18962
904.745	19019
904.863	19034
904.981	18783
905.098	18669
905.216	18597
905.334	18646
905.451	18734
905.569	18646
905.686	18673
905.803	18635
905.921	18456
906.038	18585
906.155	18486
906.272	18365
906.389	18403
906.506	18171
906.623	18243
906.74	18129
906.857	18171
906.974	18136
907.091	18262
907.208	18327
907.324	18289
907.441	18129
907.557	18007
907.674	17935
907.79	17828
907.907	17889
908.023	17912
908.139	17942
908.256	17893
908.372	17916
908.488	17863
908.604	17672
908.72	17505
908.836	17608
908.952	17592
909.068	17630
909.184	17748
909.3	17649
909.415	17657
909.531	17589
909.647	17368
909.762	17421
909.878	17277
909.993	17341
910.108	17353
910.224	17322
910.339	17341
910.454	17128
910.57	17197
910.685	16946
910.8	17265
910.915	17284
911.03	17162
911.145	16934
911.259	16889
911.374	16934
911.489	16869
911.604	16797
911.718	16637
911.833	16653
911.947	16584
912.062	16508
912.176	16615
912.291	16546
912.405	16672
912.519	16771
912.633	16820
912.748	16763
912.862	16554
912.976	16481
913.09	16428
913.204	16474
913.318	16413
913.431	16569
913.545	16569
913.659	16626
913.772	16382
913.886	16348
914	16268
914.113	16299
914.226	16363
914.34	16268
914.453	16032
914.566	16253
914.68	16211
914.793	16040
914.906	15930
915.019	15709
915.132	15698
915.245	15778
915.358	15808
915.47	15812
915.583	15869
915.696	15831
915.809	15918
915.921	15876
916.034	15793
916.146	15774
916.259	15762
916.371	15751
916.483	15762
916.595	15713
916.708	15622
916.82	15637
916.932	15625
917.044	15523
917.156	15633
917.268	15439
917.38	15393
917.491	15488
917.603	15378
917.715	15481
917.826	15606
917.938	15351
918.049	15291
918.161	15321
918.272	15447
918.384	15603
918.495	15370
918.606	15108
918.717	15230
918.828	15161
918.939	15214
919.05	15123
919.161	15207
919.272	14921
919.383	15081
919.494	15226
919.604	15336
919.715	15165
919.826	15131
919.936	15100
920.047	15218
920.157	15135
920.267	15386
920.378	15150
920.488	15119
920.598	15405
920.708	15382
920.818	15264
920.928	15230
921.038	15374
921.148	15443
921.258	15089
921.368	14986
921.477	14971
921.587	14811
921.697	14735
921.806	14845
921.916	14735
922.025	14617
922.134	14495
922.244	14571
922.353	14473
922.462	14374
922.571	14301
922.68	14103
922.789	14050
922.898	14168
923.007	14001
923.116	14176
923.224	14134
923.333	14107
923.442	13989
923.55	14031
923.659	13982
923.767	14027
923.876	13780
923.984	14012
924.092	13860
924.201	13986
924.309	13799
924.417	13837
924.525	13750
924.633	13761
924.741	14541
924.849	13544
924.956	13674
925.064	13616
925.172	13468
925.279	13483
925.387	13445
925.494	13460
925.602	13643
925.709	13567
925.816	13441
925.924	13487
926.031	13449
926.138	13445
926.245	13430
926.352	13240
926.459	13575
926.566	13578
926.673	13419
926.779	13194
926.886	13293
926.993	13149
927.099	13080
927.206	12981
927.312	12996
927.419	13107
927.525	13008
927.631	13076
927.737	12932
927.843	12848
927.95	12798
928.056	12932
928.162	12871
928.267	12951
928.373	13510
928.479	12951
928.585	12707
928.69	12863
928.796	12916
928.901	12707
929.007	12620
929.112	12867
929.218	12597
929.323	12665
929.428	12559
929.533	12673
929.638	12635
929.743	12471
929.848	12517
929.953	12525
930.058	12445
930.163	12277
930.267	12235
930.372	12502
930.477	12182
930.581	12422
930.685	12353
930.79	12117
930.894	12201
930.998	12079
931.103	12292
931.207	11847
931.311	11813
931.415	11684
931.519	11570
931.623	11493
