Data from test_V78500241_169.txt Node
Date: Fri Mar 25 15:42:58 CST 2022
User: usil
Spectrometer: V785-0024
Trigger mode: 0
Integration Time (sec): 4.000000E-1
Scans to average: 1
Nonlinearity correction enabled: false
Boxcar width: 0
Storing dark spectrum: false
XAxis mode: Wavelengths
Number of Pixels in Spectrum: 1024
>>>>>Begin Spectral Data<<<<<
801.071	29455
801.214	29273
801.356	29277
801.499	29140
801.641	28911
801.783	28999
801.926	29060
802.068	29006
802.211	28866
802.353	28748
802.496	28725
802.638	28580
802.78	28512
802.923	28428
803.065	28428
803.208	28577
803.35	28599
803.492	28626
803.635	28767
803.777	28569
803.919	28702
804.061	28999
804.204	28618
804.346	28630
804.488	28645
804.63	28500
804.773	28626
804.915	28683
805.057	28649
805.199	28550
805.341	28683
805.483	28694
805.626	28656
805.768	28752
805.91	28763
806.052	28911
806.194	28622
806.336	28809
806.478	28961
806.62	28721
806.762	29003
806.904	28987
807.046	29162
807.188	29079
807.33	29105
807.472	29280
807.614	29056
807.756	29067
807.898	29086
808.04	28892
808.182	28991
808.324	28968
808.465	28965
808.607	29204
808.749	29318
808.891	29444
809.033	29524
809.174	29326
809.316	29292
809.458	29375
809.6	29174
809.741	29482
809.883	29478
810.025	29562
810.166	29596
810.308	29573
810.45	29520
810.591	29334
810.733	29345
810.875	29299
811.016	29151
811.158	29216
811.299	29334
811.441	29570
811.582	29467
811.724	29159
811.865	29155
812.007	29261
812.148	29143
812.29	29372
812.431	29463
812.573	29486
812.714	29691
812.855	29790
812.997	29786
813.138	30045
813.279	30045
813.421	29786
813.562	29764
813.703	29615
813.845	29547
813.986	29098
814.127	29094
814.268	28850
814.41	28961
814.551	28824
814.692	29029
814.833	28869
814.974	29018
815.115	28862
815.256	28831
815.397	28759
815.539	28831
815.68	28713
815.821	28592
815.962	28862
816.103	28519
816.244	28459
816.385	28386
816.526	28466
816.666	28265
816.807	27991
816.948	28086
817.089	28128
817.23	28109
817.371	28135
817.512	28063
817.653	28093
817.793	27861
817.934	28082
818.075	28105
818.216	27899
818.356	28029
818.497	27876
818.638	27759
818.778	27766
818.919	27747
819.06	27800
819.2	27911
819.341	27941
819.481	27892
819.622	28120
819.762	28268
819.903	28192
820.043	28120
820.184	27972
820.324	27972
820.465	28192
820.605	28036
820.746	28101
820.886	27797
821.026	28029
821.167	28105
821.307	28173
821.447	27884
821.588	27907
821.728	27747
821.868	27515
822.008	27393
822.149	27321
822.289	27294
822.429	27165
822.569	27020
822.709	27112
822.849	26773
822.99	26807
823.13	26769
823.27	26727
823.41	26678
823.55	26587
823.69	26621
823.83	26739
823.97	26530
824.11	26427
824.25	26522
824.389	26412
824.529	26450
824.669	26294
824.809	26476
824.949	26484
825.089	26537
825.228	26461
825.368	26248
825.508	26248
825.648	26309
825.787	26180
825.927	26271
826.067	26172
826.206	26278
826.346	26339
826.485	26313
826.625	26180
826.765	26286
826.904	26301
827.044	26020
827.183	25928
827.323	25826
827.462	25841
827.601	25989
827.741	25830
827.88	25913
828.02	25841
828.159	26012
828.298	25928
828.437	25925
828.577	25795
828.716	26058
828.855	25746
828.994	25765
829.134	25582
829.273	25662
829.412	25658
829.551	25495
829.69	25693
829.829	25552
829.968	25666
830.107	25731
830.246	25685
830.385	25430
830.524	25514
830.663	25335
830.802	25152
830.941	25122
831.08	25145
831.219	25118
831.357	25076
831.496	25282
831.635	25179
831.774	25038
831.913	25038
832.051	24954
832.19	24840
832.329	24791
832.467	24730
832.606	24692
832.744	24700
832.883	24798
833.022	24738
833.16	24760
833.299	24677
833.437	24798
833.576	24958
833.714	24692
833.852	24848
833.991	24840
834.129	24833
834.267	24738
834.406	24821
834.544	24741
834.682	24745
834.821	24620
834.959	24863
835.097	24764
835.235	24707
835.373	24783
835.511	24867
835.65	24623
835.788	24635
835.926	24448
836.064	24441
836.202	24521
836.34	24597
836.478	24677
836.615	24589
836.753	24559
836.891	24650
837.029	24578
837.167	24555
837.305	24361
837.443	24521
837.58	24490
837.718	24513
837.856	24483
837.993	24353
838.131	24395
838.269	24323
838.406	24247
838.544	24292
838.681	24038
838.819	23859
838.956	23745
839.094	23794
839.231	23980
839.369	24060
839.506	24133
839.643	24121
839.781	23805
839.918	23805
840.055	23847
840.193	23691
840.33	23798
840.467	23657
840.604	23798
840.742	23965
840.879	23566
841.016	23566
841.153	23539
841.29	23653
841.427	23680
841.564	23790
841.701	23665
841.838	23661
841.975	23615
842.112	23642
842.249	23570
842.385	23463
842.522	23619
842.659	23433
842.796	23463
842.933	23474
843.069	23334
843.206	23337
843.343	23379
843.479	23455
843.616	23296
843.752	23041
843.889	23162
844.025	23197
844.162	23083
844.298	23246
844.435	23277
844.571	23022
844.708	23037
844.844	23296
844.98	23231
845.117	23284
845.253	23003
845.389	22980
845.525	22942
845.661	22938
845.798	22824
845.934	22831
846.07	22778
846.206	22793
846.342	22949
846.478	22850
846.614	22569
846.75	22561
846.886	22478
847.022	22679
847.158	22508
847.294	22497
847.429	22470
847.565	22504
847.701	22691
847.837	22303
847.972	22181
848.108	22329
848.244	22413
848.379	22143
848.515	22032
848.65	22067
848.786	22158
848.921	22109
849.057	22101
849.192	22143
849.328	22230
849.463	22105
849.598	22002
849.734	21915
849.869	21956
850.004	21827
850.14	21850
850.275	21873
850.41	21713
850.545	21774
850.68	21739
850.815	21892
850.95	21842
851.085	22017
851.22	21842
851.355	21873
851.49	21736
851.625	21846
851.76	21694
851.895	21610
852.03	21705
852.165	21842
852.299	21804
852.434	21861
852.569	21762
852.703	21812
852.838	21854
852.973	22013
853.107	21937
853.242	21743
853.376	21580
853.511	21561
853.645	21534
853.78	21819
853.914	21652
854.048	21549
854.183	21515
854.317	21698
854.451	21800
854.585	21717
854.72	21633
854.854	21629
854.988	21614
855.122	21644
855.256	21439
855.39	21477
855.524	21595
855.658	21614
855.792	21485
855.926	21466
856.06	21595
856.194	21599
856.327	21648
856.461	21336
856.595	21458
856.729	21641
856.862	21583
856.996	21648
857.13	21622
857.263	21618
857.397	21690
857.53	21466
857.664	21580
857.797	21545
857.931	21728
858.064	21595
858.197	21717
858.331	21580
858.464	21435
858.597	21435
858.731	21713
858.864	21576
858.997	21549
859.13	21561
859.263	21583
859.396	21606
859.529	21458
859.662	21492
859.795	21572
859.928	21549
860.061	21732
860.194	21614
860.327	21644
860.46	21515
860.592	21606
860.725	21671
860.858	21606
860.99	21515
861.123	21439
861.256	21511
861.388	21523
861.521	22276
861.653	21370
861.786	21386
861.918	21545
862.05	21435
862.183	21462
862.315	21580
862.447	21720
862.58	21408
862.712	21348
862.844	21298
862.976	21348
863.108	21313
863.24	21523
863.372	21043
863.504	21199
863.636	21207
863.768	21272
863.9	21077
864.032	21222
864.164	21180
864.296	21207
864.428	21363
864.559	21329
864.691	21306
864.823	21230
864.954	21256
865.086	21203
865.217	20948
865.349	20963
865.48	21184
865.612	21096
865.743	21252
865.875	21085
866.006	21180
866.137	21233
866.269	21154
866.4	21032
866.531	21013
866.662	21039
866.793	21055
866.924	20963
867.055	21043
867.186	21112
867.317	20979
867.448	20975
867.579	21020
867.71	20800
867.841	20853
867.972	21043
868.103	20952
868.233	21180
868.364	21081
868.495	21207
868.625	21157
868.756	21222
868.886	21207
869.017	21355
869.147	21450
869.278	21367
869.408	21332
869.539	21169
869.669	21287
869.799	21294
869.929	21355
870.06	21313
870.19	21507
870.32	21610
870.45	21557
870.58	21720
870.71	21724
870.84	21656
870.97	21641
871.1	21739
871.23	21876
871.36	21823
871.489	21778
871.619	21861
871.749	21793
871.879	21861
872.008	21979
872.138	21926
872.267	21892
872.397	21747
872.526	21614
872.656	21804
872.785	21660
872.915	21804
873.044	21972
873.173	21899
873.303	21899
873.432	21922
873.561	21987
873.69	21888
873.819	21816
873.948	22074
874.077	21956
874.206	21880
874.335	21922
874.464	22036
874.593	22185
874.722	22051
874.851	22105
874.979	22242
875.108	22093
875.237	22051
875.365	22051
875.494	22006
875.623	22150
875.751	22048
875.88	22101
876.008	22234
876.136	22417
876.265	22538
876.393	22664
876.521	22603
876.65	22637
876.778	22531
876.906	22417
877.034	22409
877.162	22508
877.29	22287
877.418	22466
877.546	22557
877.674	22451
877.802	22561
877.93	22455
878.058	22371
878.185	22394
878.313	22451
878.441	22489
878.568	22314
878.696	22394
878.824	22402
878.951	22557
879.079	22592
879.206	22634
879.333	22622
879.461	22451
879.588	22634
879.715	22660
879.842	22752
879.97	22516
880.097	22360
880.224	22287
880.351	22272
880.478	22337
880.605	22242
880.732	22341
880.859	22485
880.986	22257
881.112	22337
881.239	22120
881.366	21960
881.493	21945
881.619	21861
881.746	21918
881.872	21838
881.999	21831
882.125	21846
882.252	21846
882.378	21842
882.505	22059
882.631	21800
882.757	21515
882.883	21751
883.01	21671
883.136	21507
883.262	21401
883.388	21450
883.514	21648
883.64	21656
883.766	21519
883.892	21363
884.018	21382
884.143	21515
884.269	21507
884.395	21321
884.52	21298
884.646	21283
884.772	21169
884.897	20994
885.023	21249
885.148	21279
885.274	21325
885.399	21237
885.524	21287
885.65	21260
885.775	21169
885.9	21184
886.025	21393
886.15	21329
886.275	21150
886.4	21020
886.525	21222
886.65	21020
886.775	21108
886.9	21233
887.025	21428
887.149	21039
887.274	20982
887.399	20975
887.523	20971
887.648	20929
887.773	20910
887.897	21058
888.021	20944
888.146	20986
888.27	21100
888.395	21005
888.519	20990
888.643	21062
888.767	21032
888.891	20876
889.015	20697
889.139	20754
889.263	20708
889.387	20769
889.511	20986
889.635	20758
889.759	20804
889.883	20613
890.006	20823
890.13	20781
890.254	20583
890.377	20712
890.501	20518
890.624	20473
890.748	20541
890.871	20366
890.995	20427
891.118	20138
891.241	20339
891.364	20298
891.488	20366
891.611	20351
891.734	20347
891.857	20427
891.98	20256
892.103	20511
892.226	20358
892.349	20275
892.471	20122
892.594	20244
892.717	20374
892.839	20206
892.962	20248
893.085	20336
893.207	20240
893.33	20122
893.452	20115
893.575	20351
893.697	20111
893.819	20343
893.941	20347
894.064	20298
894.186	20119
894.308	20267
894.43	20328
894.552	20393
894.674	20347
894.796	20130
894.918	20294
895.04	20210
895.161	20256
895.283	20313
895.405	20229
895.526	20172
895.648	20206
895.769	20221
895.891	20176
896.012	20336
896.134	20240
896.255	20183
896.376	20206
896.498	20214
896.619	20347
896.74	20286
896.861	20427
896.982	20606
897.103	20743
897.224	20537
897.345	20556
897.466	20450
897.587	20499
897.708	20621
897.828	20514
897.949	20457
898.07	20328
898.19	20404
898.311	20480
898.431	20408
898.552	20556
898.672	20434
898.792	20507
898.913	20412
899.033	20301
899.153	20328
899.273	20046
899.393	20191
899.513	20278
899.633	20134
899.753	20084
899.873	20142
899.993	20153
900.113	20069
900.232	20031
900.352	20020
900.472	19967
900.591	20062
900.711	19955
900.83	19871
900.95	20088
901.069	20012
901.189	19871
901.308	19696
901.427	19544
901.546	19487
901.665	19529
901.784	19575
901.904	19434
902.023	19293
902.141	19118
902.26	19023
902.379	19141
902.498	19057
902.617	18954
902.735	19042
902.854	18962
902.973	18916
903.091	18753
903.21	18688
903.328	18665
903.446	18521
903.565	18494
903.683	18380
903.801	18311
903.919	18445
904.038	18350
904.156	18292
904.274	18266
904.392	18330
904.51	18262
904.627	18235
904.745	18376
904.863	18296
904.981	18041
905.098	17851
905.216	17992
905.334	17889
905.451	17927
905.569	17764
905.686	18030
905.803	17973
905.921	17665
906.038	17771
906.155	17756
906.272	17592
906.389	17520
906.506	17440
906.623	17360
906.74	17425
906.857	17322
906.974	17292
907.091	17490
907.208	17478
907.324	17372
907.441	17261
907.557	17174
907.674	17147
907.79	17079
907.907	17140
908.023	17094
908.139	17037
908.256	17014
908.372	16999
908.488	17056
908.604	16869
908.72	16809
908.836	16748
908.952	16702
909.068	16892
909.184	16923
909.3	16725
909.415	16858
909.531	16733
909.647	16470
909.762	16443
909.878	16470
909.993	16451
910.108	16417
910.224	16455
910.339	16466
910.454	16481
910.57	16348
910.685	16265
910.8	16443
910.915	16402
911.03	16154
911.145	16166
911.259	16071
911.374	16032
911.489	16128
911.604	15899
911.718	15827
911.833	15797
911.947	15797
912.062	15667
912.176	15797
912.291	15956
912.405	15835
912.519	15991
912.633	15937
912.748	15770
912.862	15724
912.976	15557
913.09	15549
913.204	15561
913.318	15545
913.431	15694
913.545	15625
913.659	15660
913.772	15610
913.886	15439
914	15393
914.113	15397
914.226	15511
914.34	15530
914.453	15214
914.566	15488
914.68	15279
914.793	15260
914.906	15051
915.019	15058
915.132	14914
915.245	14967
915.358	15070
915.47	15005
915.583	15028
915.696	15039
915.809	15180
915.921	15161
916.034	15085
916.146	14883
916.259	14902
916.371	14975
916.483	14921
916.595	14876
916.708	14838
916.82	14754
916.932	14826
917.044	14861
917.156	14849
917.268	14617
917.38	14689
917.491	14731
917.603	14686
917.715	14739
917.826	14674
917.938	14511
918.049	14549
918.161	14587
918.272	14727
918.384	14663
918.495	14537
918.606	14434
918.717	14343
918.828	14526
918.939	14400
919.05	14309
919.161	14385
919.272	14206
919.383	14301
919.494	14404
919.604	14499
919.715	14339
919.826	14210
919.936	14313
920.047	14389
920.157	14396
920.267	14473
920.378	14328
920.488	14305
920.598	14457
920.708	14590
920.818	14511
920.928	14499
921.038	14590
921.148	14594
921.258	14282
921.368	14237
921.477	14050
921.587	14183
921.697	14020
921.806	14164
921.916	13921
922.025	13791
922.134	13696
922.244	13700
922.353	13818
922.462	13666
922.571	13563
922.68	13449
922.789	13373
922.898	13392
923.007	13278
923.116	13415
923.224	13369
923.333	13183
923.442	13187
923.55	13209
923.659	13217
923.767	13206
923.876	13095
923.984	13145
924.092	13122
924.201	13110
924.309	13091
924.417	13031
924.525	12996
924.633	12924
924.741	13833
924.849	12882
924.956	12848
925.064	12829
925.172	12768
925.279	12768
925.387	12848
925.494	12738
925.602	12829
925.709	12753
925.816	12768
925.924	12772
926.031	12749
926.138	12764
926.245	12795
926.352	12589
926.459	12768
926.566	12810
926.673	12654
926.779	12563
926.886	12574
926.993	12346
927.099	12273
927.206	12403
927.312	12327
927.419	12369
927.525	12254
927.631	12448
927.737	12285
927.843	12251
927.95	12098
928.056	12171
928.162	12167
928.267	12209
928.373	12806
928.479	12262
928.585	12034
928.69	12098
928.796	12159
928.901	12091
929.007	11847
929.112	12171
929.218	11916
929.323	11901
929.428	11904
929.533	12072
929.638	11786
929.743	11851
929.848	11870
929.953	11817
930.058	11649
930.163	11577
930.267	11543
930.372	11642
930.477	11573
930.581	11748
930.685	11596
930.79	11505
930.894	11482
930.998	11410
931.103	11554
931.207	11174
931.311	11136
931.415	10995
931.519	10824
931.623	10797
