Data from test_V78500241_15.txt Node
Date: Fri Mar 25 15:41:54 CST 2022
User: usil
Spectrometer: V785-0024
Trigger mode: 0
Integration Time (sec): 4.000000E-1
Scans to average: 1
Nonlinearity correction enabled: false
Boxcar width: 0
Storing dark spectrum: false
XAxis mode: Wavelengths
Number of Pixels in Spectrum: 1024
>>>>>Begin Spectral Data<<<<<
801.071	27009
801.214	26998
801.356	26788
801.499	26682
801.641	26453
801.783	26393
801.926	26343
802.068	26427
802.211	26248
802.353	26446
802.496	26145
802.638	26062
802.78	26084
802.923	25894
803.065	25871
803.208	25966
803.35	25875
803.492	26111
803.635	26081
803.777	26012
803.919	26081
804.061	26271
804.204	26065
804.346	25898
804.488	25776
804.63	25887
804.773	25852
804.915	25986
805.057	25982
805.199	25811
805.341	26001
805.483	25955
805.626	26073
805.768	25921
805.91	26088
806.052	26050
806.194	25879
806.336	26240
806.478	25966
806.62	25997
806.762	26084
806.904	26115
807.046	26552
807.188	26195
807.33	26298
807.472	26351
807.614	26301
807.756	26248
807.898	26077
808.04	26077
808.182	25955
808.324	26035
808.465	26164
808.607	26225
808.749	26252
808.891	26438
809.033	26571
809.174	26431
809.316	26317
809.458	26400
809.6	26339
809.741	26423
809.883	26374
810.025	26727
810.166	26648
810.308	26560
810.45	26518
810.591	26560
810.733	26278
810.875	26256
811.016	26225
811.158	26138
811.299	26415
811.441	26480
811.582	26370
811.724	26252
811.865	26176
812.007	26248
812.148	26168
812.29	26256
812.431	26453
812.573	26579
812.714	26602
812.855	26754
812.997	26811
813.138	26849
813.279	26838
813.421	26758
813.562	26636
813.703	26507
813.845	26339
813.986	26103
814.127	25856
814.268	25727
814.41	25879
814.551	25807
814.692	25742
814.833	25723
814.974	25601
815.115	25674
815.256	25556
815.397	25639
815.539	25628
815.68	25514
815.821	25426
815.962	25422
816.103	25400
816.244	25225
816.385	25316
816.526	25057
816.666	25076
816.807	24871
816.948	24856
817.089	24996
817.23	24909
817.371	24909
817.512	24772
817.653	24821
817.793	24684
817.934	24798
818.075	24821
818.216	24798
818.356	24753
818.497	24597
818.638	24414
818.778	24525
818.919	24509
819.06	24555
819.2	24631
819.341	24711
819.481	24639
819.622	24844
819.762	24935
819.903	24791
820.043	24916
820.184	24802
820.324	24795
820.465	24825
820.605	24741
820.746	24875
820.886	24441
821.026	24711
821.167	24768
821.307	24768
821.447	24665
821.588	24551
821.728	24395
821.868	24174
822.008	24022
822.149	24155
822.289	24072
822.429	23935
822.569	23767
822.709	23722
822.849	23646
822.99	23512
823.13	23486
823.27	23383
823.41	23326
823.55	23269
823.69	23303
823.83	23261
823.97	23269
824.11	23079
824.25	23018
824.389	23044
824.529	23147
824.669	23037
824.809	23132
824.949	23174
825.089	23170
825.228	23174
825.368	22774
825.508	22968
825.648	22919
825.787	22961
825.927	22873
826.067	22828
826.206	23079
826.346	22930
826.485	22980
826.625	22797
826.765	22919
826.904	22847
827.044	22474
827.183	22630
827.323	22527
827.462	22577
827.601	22447
827.741	22394
827.88	22607
828.02	22375
828.159	22291
828.298	22493
828.437	22535
828.577	22481
828.716	22546
828.855	22371
828.994	22249
829.134	22246
829.273	22295
829.412	22215
829.551	22093
829.69	22135
829.829	22166
829.968	22356
830.107	22207
830.246	22070
830.385	22021
830.524	22063
830.663	21884
830.802	21915
830.941	21789
831.08	21694
831.219	21884
831.357	21835
831.496	21892
831.635	21766
831.774	21622
831.913	21599
832.051	21443
832.19	21397
832.329	21572
832.467	21287
832.606	21275
832.744	21355
832.883	21249
833.022	21230
833.16	21291
833.299	21351
833.437	21340
833.576	21351
833.714	21306
833.852	21344
833.991	21443
834.129	21378
834.267	21397
834.406	21279
834.544	21363
834.682	21332
834.821	21321
834.959	21374
835.097	21279
835.235	21355
835.373	21291
835.511	21230
835.65	21096
835.788	21233
835.926	20910
836.064	21058
836.202	20998
836.34	21226
836.478	21332
836.615	21211
836.753	21081
836.891	21279
837.029	21112
837.167	20982
837.305	21093
837.443	20998
837.58	20986
837.718	20933
837.856	21043
837.993	20967
838.131	21131
838.269	20933
838.406	20952
838.544	20902
838.681	20686
838.819	20644
838.956	20511
839.094	20431
839.231	20495
839.369	20769
839.506	20853
839.643	20811
839.781	20336
839.918	20370
840.055	20362
840.193	20461
840.33	20343
840.467	20351
840.604	20343
840.742	20693
840.879	20332
841.016	20305
841.153	20362
841.29	20461
841.427	20339
841.564	20358
841.701	20374
841.838	20336
841.975	20282
842.112	20256
842.249	20199
842.385	19944
842.522	20138
842.659	20164
842.796	19986
842.933	20043
843.069	19993
843.206	19955
843.343	19997
843.479	20043
843.616	19936
843.752	19883
843.889	19830
844.025	19814
844.162	19723
844.298	19780
844.435	19887
844.571	19761
844.708	19826
844.844	19978
844.98	19868
845.117	19894
845.253	19666
845.389	19689
845.525	19693
845.661	19616
845.798	19476
845.934	19552
846.07	19559
846.206	19563
846.342	19635
846.478	19620
846.614	19327
846.75	19183
846.886	19217
847.022	19365
847.158	19476
847.294	19202
847.429	19202
847.565	19247
847.701	19476
847.837	19004
847.972	18867
848.108	19095
848.244	19118
848.379	18745
848.515	18715
848.65	18821
848.786	18688
848.921	18829
849.057	18837
849.192	18943
849.328	18825
849.463	18829
849.598	18673
849.734	18665
849.869	18642
850.004	18540
850.14	18563
850.275	18536
850.41	18437
850.545	18418
850.68	18471
850.815	18502
850.95	18589
851.085	18612
851.22	18601
851.355	18547
851.49	18479
851.625	18509
851.76	18429
851.895	18418
852.03	18509
852.165	18422
852.299	18570
852.434	18540
852.569	18506
852.703	18502
852.838	18502
852.973	18616
853.107	18513
853.242	18471
853.376	18330
853.511	18106
853.645	18220
853.78	18445
853.914	18384
854.048	18315
854.183	18369
854.317	18391
854.451	18464
854.585	18330
854.72	18338
854.854	18289
854.988	18228
855.122	18273
855.256	18152
855.39	18224
855.524	18361
855.658	18384
855.792	18304
855.926	18365
856.06	18407
856.194	18357
856.327	18262
856.461	18216
856.595	18205
856.729	18308
856.862	18361
856.996	18380
857.13	18380
857.263	18418
857.397	18426
857.53	18289
857.664	18323
857.797	18456
857.931	18315
858.064	18315
858.197	18334
858.331	18209
858.464	18228
858.597	18114
858.731	18254
858.864	18163
858.997	18171
859.13	18205
859.263	18319
859.396	18239
859.529	18213
859.662	18213
859.795	18148
859.928	18194
860.061	18441
860.194	18391
860.327	18247
860.46	18152
860.592	18281
860.725	18426
860.858	18232
860.99	18182
861.123	18201
861.256	18159
861.388	18239
861.521	18814
861.653	18155
861.786	17984
861.918	18136
862.05	18296
862.183	18289
862.315	18315
862.447	18471
862.58	18228
862.712	18053
862.844	17965
862.976	18095
863.108	18060
863.24	18330
863.372	17840
863.504	17954
863.636	17824
863.768	17935
863.9	17908
864.032	17904
864.164	17961
864.296	17946
864.428	18049
864.559	17996
864.691	17996
864.823	17973
864.954	17916
865.086	17885
865.217	17863
865.349	17764
865.48	17779
865.612	17889
865.743	18011
865.875	17824
866.006	17878
866.137	17893
866.269	17954
866.4	17874
866.531	17813
866.662	17764
866.793	17851
866.924	17840
867.055	17874
867.186	17882
867.317	17866
867.448	17714
867.579	17779
867.71	17748
867.841	17809
867.972	17882
868.103	17771
868.233	17885
868.364	17916
868.495	17813
868.625	18034
868.756	18114
868.886	17923
869.017	18019
869.147	18114
869.278	18178
869.408	18182
869.539	18045
869.669	18224
869.799	18064
869.929	18216
870.06	18194
870.19	18361
870.32	18311
870.45	18433
870.58	18403
870.71	18654
870.84	18525
870.97	18475
871.1	18437
871.23	18688
871.36	18722
871.489	18566
871.619	18715
871.749	18711
871.879	18745
872.008	18795
872.138	18623
872.267	18563
872.397	18585
872.526	18597
872.656	18559
872.785	18528
872.915	18715
873.044	18741
873.173	18707
873.303	18779
873.432	18722
873.561	18745
873.69	18749
873.819	18753
873.948	18837
874.077	18749
874.206	18639
874.335	18821
874.464	18783
874.593	19019
874.722	18886
874.851	19046
874.979	18909
875.108	19034
875.237	18871
875.365	18825
875.494	18985
875.623	19114
875.751	18871
875.88	19061
876.008	19110
876.136	19209
876.265	19384
876.393	19590
876.521	19483
876.65	19552
876.778	19487
876.906	19362
877.034	19221
877.162	19426
877.29	19289
877.418	19365
877.546	19350
877.674	19381
877.802	19274
877.93	19331
878.058	19304
878.185	19304
878.313	19419
878.441	19400
878.568	19190
878.696	19358
878.824	19392
878.951	19476
879.079	19567
879.206	19731
879.333	19430
879.461	19468
879.588	19426
879.715	19590
879.842	19784
879.97	19525
880.097	19183
880.224	19206
880.351	19282
880.478	19126
880.605	19187
880.732	19225
880.859	19468
880.986	19301
881.112	19206
881.239	19129
881.366	19088
881.493	18852
881.619	18897
881.746	18932
881.872	18878
881.999	18753
882.125	18886
882.252	18875
882.378	18764
882.505	19046
882.631	18802
882.757	18654
882.883	18722
883.01	18681
883.136	18570
883.262	18528
883.388	18532
883.514	18665
883.64	18582
883.766	18498
883.892	18372
884.018	18350
884.143	18574
884.269	18627
884.395	18448
884.52	18182
884.646	18296
884.772	18205
884.897	18171
885.023	18270
885.148	18372
885.274	18437
885.399	18384
885.524	18262
885.65	18323
885.775	18361
885.9	18277
886.025	18311
886.15	18384
886.275	18247
886.4	18171
886.525	18163
886.65	18224
886.775	18239
886.9	18338
887.025	18338
887.149	18270
887.274	18038
887.399	17904
887.523	18060
887.648	17977
887.773	17843
887.897	18022
888.021	18133
888.146	17927
888.27	18121
888.395	18209
888.519	17946
888.643	18057
888.767	18079
888.891	17889
889.015	17832
889.139	17897
889.263	17824
889.387	17973
889.511	18007
889.635	17958
889.759	17855
889.883	17893
890.006	17843
890.13	17912
890.254	17779
890.377	17737
890.501	17608
890.624	17653
890.748	17729
890.871	17501
890.995	17391
891.118	17239
891.241	17493
891.364	17429
891.488	17558
891.611	17486
891.734	17444
891.857	17512
891.98	17452
892.103	17524
892.226	17471
892.349	17406
892.471	17379
892.594	17474
892.717	17459
892.839	17395
892.962	17444
893.085	17566
893.207	17391
893.33	17303
893.452	17410
893.575	17463
893.697	17505
893.819	17528
893.941	17482
894.064	17528
894.186	17436
894.308	17318
894.43	17589
894.552	17714
894.674	17551
894.796	17379
894.918	17463
895.04	17379
895.161	17543
895.283	17539
895.405	17433
895.526	17482
895.648	17448
895.769	17524
895.891	17471
896.012	17573
896.134	17463
896.255	17608
896.376	17657
896.498	17467
896.619	17589
896.74	17589
896.861	17703
896.982	17939
897.103	18057
897.224	17958
897.345	17874
897.466	17809
897.587	17714
897.708	17980
897.828	17847
897.949	17775
898.07	17638
898.19	17733
898.311	17916
898.431	17764
898.552	17767
898.672	17817
898.792	17828
898.913	17775
899.033	17722
899.153	17615
899.273	17395
899.393	17448
899.513	17566
899.633	17562
899.753	17452
899.873	17482
899.993	17592
900.113	17444
900.232	17490
900.352	17524
900.472	17345
900.591	17376
900.711	17364
900.83	17212
900.95	17440
901.069	17425
901.189	17242
901.308	17079
901.427	17105
901.546	16991
901.665	16965
901.784	17037
901.904	16915
902.023	16782
902.141	16687
902.26	16466
902.379	16569
902.498	16538
902.617	16478
902.735	16580
902.854	16394
902.973	16352
903.091	16234
903.21	16185
903.328	16261
903.446	16093
903.565	16055
903.683	16029
903.801	15949
903.919	15994
904.038	16059
904.156	15739
904.274	15880
904.392	15876
904.51	15739
904.627	15778
904.745	15895
904.863	15800
904.981	15584
905.098	15458
905.216	15348
905.334	15557
905.451	15507
905.569	15485
905.686	15477
905.803	15450
905.921	15203
906.038	15428
906.155	15340
906.272	15135
906.389	15188
906.506	15135
906.623	15066
906.74	14986
906.857	14910
906.974	14826
907.091	15081
907.208	15150
907.324	15097
907.441	14819
907.557	14864
907.674	14754
907.79	14735
907.907	14762
908.023	14815
908.139	14693
908.256	14689
908.372	14598
908.488	14522
908.604	14404
908.72	14393
908.836	14442
908.952	14400
909.068	14438
909.184	14488
909.3	14381
909.415	14518
909.531	14275
909.647	14206
909.762	14176
909.878	14149
909.993	14183
910.108	14221
910.224	14107
910.339	14115
910.454	14039
910.57	13917
910.685	13875
910.8	14119
910.915	14081
911.03	13959
911.145	13772
911.259	13723
911.374	13788
911.489	13795
911.604	13548
911.718	13411
911.833	13533
911.947	13365
912.062	13327
912.176	13552
912.291	13563
912.405	13510
912.519	13734
912.633	13670
912.748	13502
912.862	13476
912.976	13308
913.09	13301
913.204	13320
913.318	13396
913.431	13415
913.545	13468
913.659	13453
913.772	13381
913.886	13236
914	13206
914.113	13346
914.226	13339
914.34	13285
914.453	13118
914.566	13240
914.68	13034
914.793	13137
914.906	12894
915.019	12802
915.132	12741
915.245	12890
915.358	12897
915.47	12844
915.583	12875
915.696	12932
915.809	12951
915.921	12970
916.034	12760
916.146	12783
916.259	12798
916.371	12939
916.483	12859
916.595	12768
916.708	12779
916.82	12779
916.932	12703
917.044	12764
917.156	12604
917.268	12570
917.38	12627
917.491	12578
917.603	12688
917.715	12730
917.826	12654
917.938	12536
918.049	12578
918.161	12597
918.272	12719
918.384	12650
918.495	12616
918.606	12376
918.717	12429
918.828	12441
918.939	12475
919.05	12258
919.161	12334
919.272	12182
919.383	12167
919.494	12418
919.604	12566
919.715	12445
919.826	12285
919.936	12327
920.047	12429
920.157	12319
920.267	12593
920.378	12372
920.488	12388
920.598	12570
920.708	12658
920.818	12433
920.928	12555
921.038	12658
921.148	12582
921.258	12353
921.368	12216
921.477	12144
921.587	12015
921.697	11973
921.806	12220
921.916	12064
922.025	11866
922.134	11817
922.244	11786
922.353	11923
922.462	11615
922.571	11592
922.68	11452
922.789	11493
922.898	11497
923.007	11410
923.116	11471
923.224	11341
923.333	11436
923.442	11345
923.55	11337
923.659	11250
923.767	11467
923.876	11296
923.984	11360
924.092	11189
924.201	11254
924.309	11155
924.417	11185
924.525	11181
924.633	11193
924.741	12163
924.849	11037
924.956	11098
925.064	11064
925.172	10976
925.279	10991
925.387	11025
925.494	10930
925.602	11140
925.709	11029
925.816	10968
925.924	11018
926.031	11094
926.138	11052
926.245	10999
926.352	10869
926.459	11003
926.566	11098
926.673	10877
926.779	10889
926.886	10752
926.993	10752
927.099	10618
927.206	10577
927.312	10531
927.419	10763
927.525	10653
927.631	10691
927.737	10596
927.843	10500
927.95	10413
928.056	10451
928.162	10519
928.267	10611
928.373	11197
928.479	10645
928.585	10405
928.69	10474
928.796	10493
928.901	10341
929.007	10215
929.112	10375
929.218	10284
929.323	10276
929.428	10215
929.533	10421
929.638	10143
929.743	10246
929.848	10333
929.953	10265
930.058	10169
930.163	10044
930.267	9903
930.372	10116
930.477	9964
930.581	10154
930.685	10090
930.79	9854
930.894	9941
930.998	9785
931.103	10044
931.207	9663
931.311	9587
931.415	9584
931.519	9367
931.623	9306
