Data from test_V78500241_3515.txt Node
Date: Fri Mar 25 16:06:09 CST 2022
User: usil
Spectrometer: V785-0024
Trigger mode: 0
Integration Time (sec): 4.000000E-1
Scans to average: 1
Nonlinearity correction enabled: false
Boxcar width: 0
Storing dark spectrum: false
XAxis mode: Wavelengths
Number of Pixels in Spectrum: 1024
>>>>>Begin Spectral Data<<<<<
801.071	28839
801.214	28904
801.356	28546
801.499	28759
801.641	28485
801.783	28481
801.926	28561
802.068	28344
802.211	28352
802.353	28238
802.496	28234
802.638	28109
802.78	28284
802.923	28067
803.065	27968
803.208	28010
803.35	28093
803.492	28261
803.635	28421
803.777	28185
803.919	28375
804.061	28740
804.204	28424
804.346	28352
804.488	28295
804.63	28325
804.773	28299
804.915	28523
805.057	28481
805.199	28382
805.341	28459
805.483	28440
805.626	28561
805.768	28466
805.91	28500
806.052	28424
806.194	28481
806.336	28660
806.478	28580
806.62	28542
806.762	28683
806.904	28885
807.046	29147
807.188	29079
807.33	28946
807.472	29121
807.614	28942
807.756	28999
807.898	28847
808.04	28854
808.182	28847
808.324	28953
808.465	28934
808.607	29075
808.749	29269
808.891	29410
809.033	29448
809.174	29334
809.316	29227
809.458	29170
809.6	29143
809.741	29288
809.883	29398
810.025	29558
810.166	29615
810.308	29619
810.45	29592
810.591	29516
810.733	29372
810.875	29341
811.016	29185
811.158	29181
811.299	29318
811.441	29288
811.582	29520
811.724	29383
811.865	29277
812.007	29341
812.148	29341
812.29	29341
812.431	29501
812.573	29649
812.714	29851
812.855	29847
812.997	29832
813.138	29984
813.279	29893
813.421	29828
813.562	29824
813.703	29509
813.845	29558
813.986	29022
814.127	29003
814.268	29037
814.41	29083
814.551	29079
814.692	29006
814.833	28816
814.974	28953
815.115	29105
815.256	28839
815.397	28847
815.539	29022
815.68	28694
815.821	28702
815.962	28938
816.103	28809
816.244	28577
816.385	28569
816.526	28565
816.666	28489
816.807	28280
816.948	28291
817.089	28462
817.23	28295
817.371	28371
817.512	28322
817.653	28352
817.793	28181
817.934	28272
818.075	28344
818.216	28337
818.356	28299
818.497	28344
818.638	28029
818.778	28059
818.919	28006
819.06	28013
819.2	28310
819.341	28356
819.481	28268
819.622	28569
819.762	28649
819.903	28531
820.043	28527
820.184	28459
820.324	28386
820.465	28550
820.605	28424
820.746	28337
820.886	28268
821.026	28432
821.167	28344
821.307	28348
821.447	28455
821.588	28341
821.728	27968
821.868	27937
822.008	27679
822.149	27800
822.289	27816
822.429	27652
822.569	27431
822.709	27466
822.849	27443
822.99	27393
823.13	27283
823.27	27184
823.41	27142
823.55	26918
823.69	27165
823.83	27127
823.97	27005
824.11	26921
824.25	26925
824.389	27009
824.529	26876
824.669	26929
824.809	27058
824.949	26967
825.089	27032
825.228	27020
825.368	26689
825.508	26842
825.648	26826
825.787	26807
825.927	26902
826.067	26838
826.206	26845
826.346	26872
826.485	26895
826.625	26902
826.765	26861
826.904	26887
827.044	26667
827.183	26735
827.323	26427
827.462	26609
827.601	26659
827.741	26579
827.88	26530
828.02	26450
828.159	26705
828.298	26503
828.437	26587
828.577	26427
828.716	26785
828.855	26400
828.994	26313
829.134	26343
829.273	26347
829.412	26317
829.551	26244
829.69	26172
829.829	26172
829.968	26400
830.107	26328
830.246	26328
830.385	26134
830.524	26191
830.663	26096
830.802	25970
830.941	25769
831.08	25845
831.219	25811
831.357	25997
831.496	26092
831.635	25833
831.774	25700
831.913	25658
832.051	25613
832.19	25613
832.329	25624
832.467	25643
832.606	25540
832.744	25403
832.883	25491
833.022	25434
833.16	25537
833.299	25499
833.437	25495
833.576	25677
833.714	25613
833.852	25742
833.991	25674
834.129	25708
834.267	25738
834.406	25734
834.544	25727
834.682	25552
834.821	25582
834.959	25879
835.097	25403
835.235	25533
835.373	25453
835.511	25586
835.65	25521
835.788	25506
835.926	25358
836.064	25274
836.202	25285
836.34	25388
836.478	25514
836.615	25365
836.753	25445
836.891	25525
837.029	25449
837.167	25327
837.305	25194
837.443	25373
837.58	25259
837.718	25240
837.856	25297
837.993	25152
838.131	25080
838.269	24981
838.406	25171
838.544	25141
838.681	24814
838.819	24806
838.956	24642
839.094	24642
839.231	24722
839.369	24882
839.506	25031
839.643	24985
839.781	24711
839.918	24589
840.055	24669
840.193	24627
840.33	24517
840.467	24631
840.604	24639
840.742	24901
840.879	24369
841.016	24464
841.153	24589
841.29	24661
841.427	24445
841.564	24711
841.701	24601
841.838	24646
841.975	24509
842.112	24498
842.249	24346
842.385	24429
842.522	24669
842.659	24429
842.796	24338
842.933	24410
843.069	24285
843.206	24270
843.343	24559
843.479	24323
843.616	24254
843.752	24201
843.889	24098
844.025	24174
844.162	24163
844.298	24239
844.435	24144
844.571	24038
844.708	24209
844.844	24258
844.98	24110
845.117	24216
845.253	24133
845.389	23897
845.525	23927
845.661	23916
845.798	23874
845.934	24007
846.07	23748
846.206	23813
846.342	23855
846.478	23714
846.614	23764
846.75	23463
846.886	23570
847.022	23611
847.158	23657
847.294	23680
847.429	23543
847.565	23562
847.701	23802
847.837	23269
847.972	23303
848.108	23455
848.244	23410
848.379	23159
848.515	23132
848.65	23189
848.786	23136
848.921	23060
849.057	23189
849.192	23250
849.328	23231
849.463	23250
849.598	23121
849.734	22999
849.869	23083
850.004	23006
850.14	22949
850.275	22980
850.41	22889
850.545	22866
850.68	22862
850.815	22930
850.95	22927
851.085	23235
851.22	23033
851.355	22991
851.49	22934
851.625	22858
851.76	22953
851.895	22911
852.03	22835
852.165	22896
852.299	22995
852.434	22991
852.569	22923
852.703	22942
852.838	22938
852.973	23029
853.107	23003
853.242	22694
853.376	22908
853.511	22721
853.645	22691
853.78	22725
853.914	22752
854.048	22717
854.183	22790
854.317	22782
854.451	22949
854.585	22752
854.72	22869
854.854	22801
854.988	22744
855.122	22767
855.256	22645
855.39	22774
855.524	22850
855.658	22793
855.792	22748
855.926	22805
856.06	22763
856.194	22767
856.327	22820
856.461	22683
856.595	22748
856.729	22767
856.862	22869
856.996	22713
857.13	22790
857.263	22961
857.397	22824
857.53	22717
857.664	22698
857.797	22744
857.931	22869
858.064	22782
858.197	22774
858.331	22729
858.464	22637
858.597	22577
858.731	22767
858.864	22656
858.997	22763
859.13	22702
859.263	22744
859.396	22847
859.529	22816
859.662	22778
859.795	22706
859.928	22805
860.061	22915
860.194	22900
860.327	22831
860.46	22740
860.592	22873
860.725	22812
860.858	22862
860.99	22752
861.123	22675
861.256	22710
861.388	22721
861.521	23398
861.653	22584
861.786	22596
861.918	22710
862.05	22580
862.183	22580
862.315	22710
862.447	22801
862.58	22672
862.712	22554
862.844	22421
862.976	22637
863.108	22573
863.24	22755
863.372	22588
863.504	22329
863.636	22360
863.768	22569
863.9	22504
864.032	22424
864.164	22417
864.296	22618
864.428	22432
864.559	22527
864.691	22485
864.823	22607
864.954	22306
865.086	22409
865.217	22424
865.349	22291
865.48	22356
865.612	22337
865.743	22618
865.875	22478
866.006	22211
866.137	22318
866.269	22348
866.4	22344
866.531	22329
866.662	22200
866.793	22299
866.924	22173
867.055	22276
867.186	22276
867.317	22150
867.448	22162
867.579	22291
867.71	22166
867.841	22124
867.972	22291
868.103	22219
868.233	22306
868.364	22272
868.495	22379
868.625	22470
868.756	22573
868.886	22386
869.017	22436
869.147	22656
869.278	22550
869.408	22451
869.539	22398
869.669	22584
869.799	22478
869.929	22580
870.06	22630
870.19	22767
870.32	22729
870.45	23003
870.58	22797
870.71	23022
870.84	22965
870.97	22923
871.1	22938
871.23	23102
871.36	23060
871.489	23003
871.619	23006
871.749	23102
871.879	23109
872.008	23220
872.138	23143
872.267	23159
872.397	22976
872.526	22923
872.656	22831
872.785	22930
872.915	23121
873.044	23094
873.173	23311
873.303	23075
873.432	23239
873.561	23090
873.69	23128
873.819	23117
873.948	23064
874.077	23181
874.206	23060
874.335	23143
874.464	23083
874.593	23391
874.722	23311
874.851	23345
874.979	23193
875.108	23368
875.237	23398
875.365	23280
875.494	23227
875.623	23497
875.751	23254
875.88	23395
876.008	23497
876.136	23509
876.265	23714
876.393	23794
876.521	23828
876.65	23707
876.778	23680
876.906	23672
877.034	23623
877.162	23623
877.29	23707
877.418	23722
877.546	23554
877.674	23589
877.802	23718
877.93	23646
878.058	23539
878.185	23528
878.313	23558
878.441	23665
878.568	23452
878.696	23509
878.824	23661
878.951	23786
879.079	23847
879.206	23885
879.333	23882
879.461	23745
879.588	23813
879.715	23813
879.842	23912
879.97	23832
880.097	23467
880.224	23414
880.351	23535
880.478	23486
880.605	23383
880.732	23436
880.859	23783
880.986	23516
881.112	23414
881.239	23337
881.366	23334
881.493	23208
881.619	23048
881.746	23079
881.872	22949
881.999	22972
882.125	22908
882.252	23128
882.378	22930
882.505	23162
882.631	22805
882.757	22710
882.883	22763
883.01	22774
883.136	22710
883.262	22611
883.388	22615
883.514	22645
883.64	22755
883.766	22637
883.892	22516
884.018	22455
884.143	22565
884.269	22622
884.395	22223
884.52	22329
884.646	22379
884.772	22284
884.897	22276
885.023	22143
885.148	22424
885.274	22367
885.399	22394
885.524	22246
885.65	22325
885.775	22333
885.9	22371
886.025	22500
886.15	22386
886.275	22333
886.4	22253
886.525	22310
886.65	22223
886.775	22192
886.9	22356
887.025	22485
887.149	22257
887.274	22055
887.399	22078
887.523	22070
887.648	22097
887.773	21964
887.897	22154
888.021	22169
888.146	22063
888.27	22093
888.395	22185
888.519	22150
888.643	22192
888.767	22204
888.891	22010
889.015	21949
889.139	21937
889.263	21743
889.387	22036
889.511	22128
889.635	21945
889.759	21850
889.883	21755
890.006	21937
890.13	21873
890.254	21975
890.377	21823
890.501	21663
890.624	21610
890.748	21747
890.871	21511
890.995	21439
891.118	21420
891.241	21428
891.364	21553
891.488	21511
891.611	21511
891.734	21382
891.857	21553
891.98	21591
892.103	21458
892.226	21363
892.349	21431
892.471	21188
892.594	21291
892.717	21260
892.839	21344
892.962	21370
893.085	21397
893.207	21336
893.33	21218
893.452	21245
893.575	21378
893.697	21294
893.819	21466
893.941	21504
894.064	21492
894.186	21294
894.308	21275
894.43	21252
894.552	21477
894.674	21310
894.796	21161
894.918	21218
895.04	21249
895.161	21389
895.283	21355
895.405	21329
895.526	21287
895.648	21252
895.769	21310
895.891	21291
896.012	21386
896.134	21313
896.255	21344
896.376	21203
896.498	21344
896.619	21382
896.74	21306
896.861	21374
896.982	21625
897.103	21743
897.224	21458
897.345	21523
897.466	21439
897.587	21618
897.708	21538
897.828	21580
897.949	21389
898.07	21351
898.19	21256
898.311	21534
898.431	21488
898.552	21450
898.672	21561
898.792	21523
898.913	21496
899.033	21424
899.153	21272
899.273	21100
899.393	21138
899.513	21336
899.633	21173
899.753	21157
899.873	21241
899.993	21218
900.113	21146
900.232	21173
900.352	21108
900.472	21047
900.591	20853
900.711	21039
900.83	20967
900.95	21066
901.069	21077
901.189	20823
901.308	20636
901.427	20526
901.546	20552
901.665	20587
901.784	20446
901.904	20393
902.023	20473
902.141	20077
902.26	20107
902.379	20271
902.498	19993
902.617	20096
902.735	20096
902.854	19986
902.973	19925
903.091	19769
903.21	19685
903.328	19662
903.446	19590
903.565	19499
903.683	19491
903.801	19362
903.919	19381
904.038	19396
904.156	19274
904.274	19244
904.392	19270
904.51	19084
904.627	19236
904.745	19384
904.863	19228
904.981	19050
905.098	18947
905.216	18806
905.334	18905
905.451	18993
905.569	18973
905.686	18951
905.803	18932
905.921	18681
906.038	18798
906.155	18745
906.272	18726
906.389	18646
906.506	18407
906.623	18467
906.74	18452
906.857	18224
906.974	18407
907.091	18536
907.208	18551
907.324	18418
907.441	18319
907.557	18171
907.674	18224
907.79	18022
907.907	18083
908.023	18140
908.139	18072
908.256	18148
908.372	18205
908.488	18076
908.604	17931
908.72	17866
908.836	17866
908.952	17748
909.068	17832
909.184	17935
909.3	17805
909.415	17889
909.531	17790
909.647	17509
909.762	17657
909.878	17554
909.993	17551
910.108	17539
910.224	17463
910.339	17657
910.454	17383
910.57	17258
910.685	17292
910.8	17463
910.915	17421
911.03	17372
911.145	17299
911.259	17143
911.374	17052
911.489	17075
911.604	16980
911.718	16824
911.833	16752
911.947	16668
912.062	16786
912.176	16908
912.291	16877
912.405	16812
912.519	17037
912.633	16946
912.748	16839
912.862	16839
912.976	16683
913.09	16592
913.204	16611
913.318	16679
913.431	16771
913.545	16748
913.659	16725
913.772	16603
913.886	16451
914	16481
914.113	16497
914.226	16679
914.34	16462
914.453	16363
914.566	16440
914.68	16421
914.793	16280
914.906	16105
915.019	16040
915.132	15941
915.245	15968
915.358	15964
915.47	15979
915.583	15998
915.696	15945
915.809	16105
915.921	16044
916.034	15972
916.146	15930
916.259	15884
916.371	16006
916.483	16021
916.595	15842
916.708	15804
916.82	15838
916.932	15846
917.044	15774
917.156	15785
917.268	15698
917.38	15694
917.491	15622
917.603	15652
917.715	15709
917.826	15705
917.938	15564
918.049	15496
918.161	15629
918.272	15660
918.384	15739
918.495	15530
918.606	15374
918.717	15351
918.828	15401
918.939	15321
919.05	15321
919.161	15340
919.272	15066
919.383	15260
919.494	15332
919.604	15515
919.715	15275
919.826	15298
919.936	15310
920.047	15420
920.157	15378
920.267	15507
920.378	15264
920.488	15287
920.598	15477
920.708	15625
920.818	15473
920.928	15454
921.038	15549
921.148	15542
921.258	15268
921.368	15199
921.477	15116
921.587	15055
921.697	14990
921.806	15058
921.916	14883
922.025	14670
922.134	14670
922.244	14625
922.353	14682
922.462	14537
922.571	14476
922.68	14400
922.789	14393
922.898	14446
923.007	14225
923.116	14358
923.224	14298
923.333	14343
923.442	14191
923.55	14195
923.659	14191
923.767	14161
923.876	14062
923.984	14115
924.092	14024
924.201	14062
924.309	14092
924.417	14031
924.525	13909
924.633	13940
924.741	14849
924.849	13750
924.956	13772
925.064	13750
925.172	13700
925.279	13647
925.387	13636
925.494	13704
925.602	13772
925.709	13784
925.816	13575
925.924	13552
926.031	13674
926.138	13647
926.245	13681
926.352	13563
926.459	13746
926.566	13578
926.673	13548
926.779	13441
926.886	13407
926.993	13350
927.099	13320
927.206	13103
927.312	13202
927.419	13232
927.525	13247
927.631	13183
927.737	13133
927.843	13008
927.95	12920
928.056	13042
928.162	13053
928.267	13084
928.373	13639
928.479	13164
928.585	12829
928.69	12939
928.796	12985
928.901	12947
929.007	12707
929.112	12875
929.218	12856
929.323	12757
929.428	12738
929.533	12897
929.638	12665
929.743	12753
929.848	12700
929.953	12608
930.058	12593
930.163	12506
930.267	12445
930.372	12509
930.477	12323
930.581	12627
930.685	12384
930.79	12201
930.894	12319
930.998	12330
931.103	12426
931.207	11973
931.311	11965
931.415	11874
931.519	11688
931.623	11657
