Data from test_V78500241_2027.txt Node
Date: Fri Mar 25 15:55:50 CST 2022
User: usil
Spectrometer: V785-0024
Trigger mode: 0
Integration Time (sec): 4.000000E-1
Scans to average: 1
Nonlinearity correction enabled: false
Boxcar width: 0
Storing dark spectrum: false
XAxis mode: Wavelengths
Number of Pixels in Spectrum: 1024
>>>>>Begin Spectral Data<<<<<
801.071	28888
801.214	28668
801.356	28550
801.499	28512
801.641	28280
801.783	28424
801.926	28577
802.068	28542
802.211	28329
802.353	28306
802.496	28139
802.638	28200
802.78	28219
802.923	27964
803.065	28006
803.208	28124
803.35	28181
803.492	28371
803.635	28379
803.777	28333
803.919	28363
804.061	28820
804.204	28440
804.346	28398
804.488	28261
804.63	28291
804.773	28280
804.915	28451
805.057	28459
805.199	28451
805.341	28512
805.483	28497
805.626	28592
805.768	28398
805.91	28508
806.052	28618
806.194	28466
806.336	28679
806.478	28596
806.62	28527
806.762	28698
806.904	28820
807.046	29094
807.188	29048
807.33	28999
807.472	29010
807.614	28869
807.756	28957
807.898	28976
808.04	28839
808.182	28637
808.324	28957
808.465	28866
808.607	29162
808.749	29216
808.891	29318
809.033	29471
809.174	29288
809.316	29166
809.458	29208
809.6	29132
809.741	29155
809.883	29410
810.025	29459
810.166	29421
810.308	29547
810.45	29433
810.591	29383
810.733	29261
810.875	29242
811.016	29121
811.158	29223
811.299	29318
811.441	29410
811.582	29265
811.724	29273
811.865	29174
812.007	29178
812.148	29296
812.29	29189
812.431	29326
812.573	29573
812.714	29691
812.855	29847
812.997	29817
813.138	30011
813.279	29817
813.421	29866
813.562	29824
813.703	29509
813.845	29676
813.986	29307
814.127	29124
814.268	28961
814.41	28991
814.551	28953
814.692	28987
814.833	29022
814.974	28927
815.115	28984
815.256	28812
815.397	28797
815.539	28790
815.68	28683
815.821	28721
815.962	28713
816.103	28717
816.244	28748
816.385	28626
816.526	28592
816.666	28360
816.807	28265
816.948	28405
817.089	28329
817.23	28356
817.371	28211
817.512	28284
817.653	28048
817.793	28192
817.934	28310
818.075	28246
818.216	28215
818.356	28177
818.497	28215
818.638	27983
818.778	28029
818.919	28048
819.06	28090
819.2	28162
819.341	28386
819.481	28173
819.622	28303
819.762	28599
819.903	28573
820.043	28409
820.184	28413
820.324	28390
820.465	28344
820.605	28344
820.746	28424
820.886	28238
821.026	28432
821.167	28337
821.307	28333
821.447	28303
821.588	28215
821.728	28010
821.868	27953
822.008	27827
822.149	27682
822.289	27766
822.429	27420
822.569	27336
822.709	27488
822.849	27264
822.99	27214
823.13	27146
823.27	27180
823.41	27020
823.55	27005
823.69	27028
823.83	27157
823.97	26967
824.11	26708
824.25	26948
824.389	26746
824.529	26902
824.669	26967
824.809	27138
824.949	27100
825.089	27062
825.228	26857
825.368	26819
825.508	26804
825.648	26788
825.787	26788
825.927	26792
826.067	26815
826.206	26773
826.346	26735
826.485	26857
826.625	26792
826.765	26940
826.904	26716
827.044	26488
827.183	26533
827.323	26419
827.462	26629
827.601	26473
827.741	26590
827.88	26431
828.02	26362
828.159	26488
828.298	26446
828.437	26423
828.577	26446
828.716	26503
828.855	26290
828.994	26252
829.134	26119
829.273	26309
829.412	26221
829.551	25951
829.69	26191
829.829	26199
829.968	26233
830.107	26282
830.246	26214
830.385	26157
830.524	26092
830.663	26001
830.802	25871
830.941	25807
831.08	25830
831.219	25757
831.357	25932
831.496	25849
831.635	25826
831.774	25700
831.913	25590
832.051	25578
832.19	25616
832.329	25674
832.467	25331
832.606	25445
832.744	25487
832.883	25434
833.022	25567
833.16	25499
833.299	25449
833.437	25426
833.576	25445
833.714	25571
833.852	25620
833.991	25495
834.129	25613
834.267	25525
834.406	25533
834.544	25613
834.682	25384
834.821	25476
834.959	25639
835.097	25339
835.235	25544
835.373	25483
835.511	25476
835.65	25460
835.788	25365
835.926	25293
836.064	25122
836.202	25187
836.34	25396
836.478	25373
836.615	25335
836.753	25441
836.891	25327
837.029	25247
837.167	25263
837.305	25354
837.443	25221
837.58	25110
837.718	25282
837.856	25160
837.993	25091
838.131	25015
838.269	24943
838.406	25164
838.544	25000
838.681	24863
838.819	24787
838.956	24688
839.094	24681
839.231	24707
839.369	24783
839.506	24989
839.643	24871
839.781	24798
839.918	24585
840.055	24696
840.193	24498
840.33	24433
840.467	24528
840.604	24471
840.742	24833
840.879	24384
841.016	24460
841.153	24525
841.29	24627
841.427	24403
841.564	24566
841.701	24452
841.838	24509
841.975	24467
842.112	24414
842.249	24296
842.385	24167
842.522	24418
842.659	24353
842.796	24319
842.933	24235
843.069	24220
843.206	24277
843.343	24300
843.479	24353
843.616	24338
843.752	23980
843.889	24167
844.025	24361
844.162	24106
844.298	24129
844.435	23843
844.571	23961
844.708	24182
844.844	24194
844.98	24239
845.117	24136
845.253	24057
845.389	24003
845.525	23988
845.661	23798
845.798	23783
845.934	23847
846.07	23813
846.206	23843
846.342	23855
846.478	23767
846.614	23402
846.75	23478
846.886	23433
847.022	23653
847.158	23630
847.294	23543
847.429	23570
847.565	23535
847.701	23668
847.837	23265
847.972	23261
848.108	23318
848.244	23349
848.379	23037
848.515	22968
848.65	23029
848.786	22999
848.921	23060
849.057	23284
849.192	23136
849.328	23166
849.463	23140
849.598	23052
849.734	23128
849.869	22877
850.004	22850
850.14	22839
850.275	22908
850.41	22767
850.545	22702
850.68	22820
850.815	22778
850.95	22896
851.085	22976
851.22	22991
851.355	22946
851.49	22812
851.625	22843
851.76	22839
851.895	22763
852.03	22812
852.165	22896
852.299	22809
852.434	22984
852.569	22911
852.703	22725
852.838	22968
852.973	23014
853.107	22949
853.242	22831
853.376	22763
853.511	22554
853.645	22725
853.78	22691
853.914	22717
854.048	22611
854.183	22645
854.317	22668
854.451	23025
854.585	22649
854.72	22687
854.854	22752
854.988	22702
855.122	22736
855.256	22546
855.39	22615
855.524	22759
855.658	22744
855.792	22755
855.926	22672
856.06	22660
856.194	22812
856.327	22702
856.461	22596
856.595	22607
856.729	22759
856.862	22850
856.996	22725
857.13	22656
857.263	22816
857.397	22755
857.53	22653
857.664	22843
857.797	22733
857.931	22831
858.064	22717
858.197	22797
858.331	22717
858.464	22634
858.597	22584
858.731	22660
858.864	22660
858.997	22660
859.13	22698
859.263	22607
859.396	22824
859.529	22717
859.662	22729
859.795	22691
859.928	22752
860.061	22687
860.194	22873
860.327	22721
860.46	22717
860.592	22820
860.725	22793
860.858	22778
860.99	22637
861.123	22763
861.256	22577
861.388	22729
861.521	23528
861.653	22599
861.786	22409
861.918	22691
862.05	22557
862.183	22588
862.315	22565
862.447	22611
862.58	22687
862.712	22367
862.844	22421
862.976	22637
863.108	22409
863.24	22793
863.372	22470
863.504	22394
863.636	22398
863.768	22352
863.9	22322
864.032	22413
864.164	22352
864.296	22329
864.428	22432
864.559	22466
864.691	22447
864.823	22348
864.954	22519
865.086	22424
865.217	22314
865.349	22147
865.48	22280
865.612	22344
865.743	22493
865.875	22314
866.006	22109
866.137	22223
866.269	22185
866.4	22295
866.531	22234
866.662	22192
866.793	22150
866.924	22124
867.055	22139
867.186	22234
867.317	22109
867.448	22040
867.579	22082
867.71	22120
867.841	22143
867.972	22143
868.103	22265
868.233	22204
868.364	22116
868.495	22287
868.625	22474
868.756	22519
868.886	22310
869.017	22466
869.147	22500
869.278	22508
869.408	22436
869.539	22497
869.669	22535
869.799	22550
869.929	22519
870.06	22519
870.19	22763
870.32	22755
870.45	22801
870.58	22911
870.71	22877
870.84	22892
870.97	22793
871.1	22816
871.23	22968
871.36	22953
871.489	22930
871.619	22927
871.749	23041
871.879	23056
872.008	23022
872.138	23006
872.267	23147
872.397	22904
872.526	22885
872.656	22976
872.785	22816
872.915	22991
873.044	23151
873.173	23079
873.303	23220
873.432	23250
873.561	23071
873.69	22934
873.819	23128
873.948	23174
874.077	23136
874.206	23033
874.335	22972
874.464	23117
874.593	23341
874.722	23128
874.851	23265
874.979	23349
875.108	23307
875.237	23239
875.365	23303
875.494	23311
875.623	23452
875.751	23246
875.88	23299
876.008	23372
876.136	23493
876.265	23634
876.393	23729
876.521	23752
876.65	23707
876.778	23627
876.906	23638
877.034	23581
877.162	23604
877.29	23516
877.418	23615
877.546	23604
877.674	23592
877.802	23630
877.93	23535
878.058	23471
878.185	23539
878.313	23566
878.441	23493
878.568	23349
878.696	23554
878.824	23619
878.951	23729
879.079	23813
879.206	23756
879.333	23824
879.461	23646
879.588	23691
879.715	23752
879.842	23980
879.97	23779
880.097	23520
880.224	23383
880.351	23440
880.478	23448
880.605	23353
880.732	23642
880.859	23608
880.986	23444
881.112	23395
881.239	23193
881.366	23147
881.493	23003
881.619	22953
881.746	22957
881.872	23044
881.999	22915
882.125	22949
882.252	22915
882.378	22938
882.505	23147
882.631	22820
882.757	22683
882.883	22793
883.01	22748
883.136	22618
883.262	22474
883.388	22550
883.514	22588
883.64	22721
883.766	22649
883.892	22459
884.018	22550
884.143	22618
884.269	22687
884.395	22348
884.52	22215
884.646	22409
884.772	22226
884.897	22261
885.023	22268
885.148	22459
885.274	22493
885.399	22337
885.524	22234
885.65	22371
885.775	22299
885.9	22287
886.025	22348
886.15	22451
886.275	22139
886.4	22177
886.525	22249
886.65	22135
886.775	22082
886.9	22303
887.025	22436
887.149	22291
887.274	22177
887.399	22021
887.523	22067
887.648	21956
887.773	21808
887.897	22048
888.021	22082
888.146	22017
888.27	22063
888.395	22181
888.519	22090
888.643	22025
888.767	22025
888.891	21907
889.015	21869
889.139	21869
889.263	21770
889.387	21972
889.511	22029
889.635	22063
889.759	21770
889.883	21739
890.006	21911
890.13	21892
890.254	21743
890.377	21781
890.501	21492
890.624	21507
890.748	21507
890.871	21420
890.995	21485
891.118	21393
891.241	21393
891.364	21363
891.488	21534
891.611	21477
891.734	21355
891.857	21386
891.98	21389
892.103	21428
892.226	21397
892.349	21279
892.471	21192
892.594	21230
892.717	21165
892.839	21226
892.962	21279
893.085	21344
893.207	21340
893.33	21214
893.452	21146
893.575	21310
893.697	21294
893.819	21351
893.941	21469
894.064	21355
894.186	21192
894.308	21161
894.43	21386
894.552	21458
894.674	21237
894.796	21165
894.918	21222
895.04	21245
895.161	21252
895.283	21226
895.405	21207
895.526	21245
895.648	21199
895.769	21176
895.891	21306
896.012	21310
896.134	21317
896.255	21199
896.376	21241
896.498	21245
896.619	21325
896.74	21173
896.861	21195
896.982	21515
897.103	21652
897.224	21488
897.345	21431
897.466	21291
897.587	21382
897.708	21576
897.828	21519
897.949	21466
898.07	21264
898.19	21359
898.311	21473
898.431	21355
898.552	21389
898.672	21355
898.792	21481
898.913	21431
899.033	21233
899.153	21272
899.273	21230
899.393	21104
899.513	21188
899.633	21272
899.753	21127
899.873	21135
899.993	21188
900.113	21150
900.232	21173
900.352	21058
900.472	20895
900.591	20853
900.711	20910
900.83	20876
900.95	20994
901.069	20956
901.189	20739
901.308	20602
901.427	20374
901.546	20442
901.665	20533
901.784	20507
901.904	20355
902.023	20332
902.141	19986
902.26	20119
902.379	20035
902.498	19997
902.617	19898
902.735	20145
902.854	19894
902.973	19860
903.091	19670
903.21	19594
903.328	19609
903.446	19544
903.565	19472
903.683	19438
903.801	19438
903.919	19346
904.038	19354
904.156	19118
904.274	19247
904.392	19202
904.51	19209
904.627	19148
904.745	19259
904.863	19183
904.981	19015
905.098	18871
905.216	18916
905.334	18817
905.451	18886
905.569	18787
905.686	18894
905.803	18867
905.921	18654
906.038	18719
906.155	18612
906.272	18559
906.389	18486
906.506	18464
906.623	18445
906.74	18353
906.857	18300
906.974	18281
907.091	18467
907.208	18483
907.324	18441
907.441	18220
907.557	18186
907.674	18194
907.79	18114
907.907	18095
908.023	18087
908.139	17999
908.256	18072
908.372	18026
908.488	17973
908.604	17836
908.72	17855
908.836	17779
908.952	17836
909.068	17893
909.184	17878
909.3	17798
909.415	17764
909.531	17733
909.647	17554
909.762	17535
909.878	17570
909.993	17486
910.108	17444
910.224	17436
910.339	17417
910.454	17433
910.57	17337
910.685	17307
910.8	17459
910.915	17471
911.03	17265
911.145	17140
911.259	17056
911.374	17143
911.489	17098
911.604	17003
911.718	16752
911.833	16812
911.947	16767
912.062	16615
912.176	16782
912.291	16839
912.405	16725
912.519	17060
912.633	16991
912.748	16790
912.862	16873
912.976	16694
913.09	16588
913.204	16561
913.318	16603
913.431	16618
913.545	16584
913.659	16698
913.772	16459
913.886	16344
914	16447
914.113	16443
914.226	16516
914.34	16474
914.453	16360
914.566	16421
914.68	16272
914.793	16261
914.906	16128
915.019	16040
915.132	15979
915.245	15892
915.358	16017
915.47	15964
915.583	15972
915.696	16074
915.809	16074
915.921	16185
916.034	15945
916.146	15953
916.259	15915
916.371	16044
916.483	15895
916.595	15759
916.708	15793
916.82	15831
916.932	15747
917.044	15698
917.156	15705
917.268	15568
917.38	15576
917.491	15538
917.603	15698
917.715	15690
917.826	15591
917.938	15511
918.049	15454
918.161	15542
918.272	15785
918.384	15705
918.495	15553
918.606	15298
918.717	15294
918.828	15344
918.939	15420
919.05	15241
919.161	15203
919.272	15062
919.383	15272
919.494	15340
919.604	15473
919.715	15332
919.826	15123
919.936	15245
920.047	15416
920.157	15264
920.267	15454
920.378	15359
920.488	15184
920.598	15538
920.708	15553
920.818	15462
920.928	15359
921.038	15682
921.148	15477
921.258	15252
921.368	15116
921.477	14952
921.587	14994
921.697	14868
921.806	14998
921.916	14800
922.025	14739
922.134	14678
922.244	14648
922.353	14606
922.462	14495
922.571	14522
922.68	14362
922.789	14294
922.898	14206
923.007	14267
923.116	14256
923.224	14252
923.333	14157
923.442	14069
923.55	14081
923.659	14077
923.767	14142
923.876	13989
923.984	14191
924.092	13993
924.201	14031
924.309	14024
924.417	13890
924.525	13906
924.633	13902
924.741	14754
924.849	13757
924.956	13864
925.064	13757
925.172	13651
925.279	13700
925.387	13708
925.494	13639
925.602	13757
925.709	13693
925.816	13495
925.924	13499
926.031	13712
926.138	13502
926.245	13677
926.352	13514
926.459	13708
926.566	13563
926.673	13571
926.779	13377
926.886	13377
926.993	13209
927.099	13156
927.206	13137
927.312	13141
927.419	13240
927.525	13160
927.631	13206
927.737	13057
927.843	13069
927.95	12966
928.056	13004
928.162	13091
928.267	13053
928.373	13639
928.479	13103
928.585	12863
928.69	13008
928.796	13023
928.901	12814
929.007	12738
929.112	12798
929.218	12821
929.323	12741
929.428	12726
929.533	12734
929.638	12616
929.743	12650
929.848	12772
929.953	12665
930.058	12585
930.163	12334
930.267	12365
930.372	12551
930.477	12365
930.581	12631
930.685	12388
930.79	12319
930.894	12327
930.998	12247
931.103	12372
931.207	11996
931.311	11885
931.415	11805
931.519	11638
931.623	11589
