Data from test_V78500241_2185.txt Node
Date: Fri Mar 25 15:56:56 CST 2022
User: usil
Spectrometer: V785-0024
Trigger mode: 0
Integration Time (sec): 4.000000E-1
Scans to average: 1
Nonlinearity correction enabled: false
Boxcar width: 0
Storing dark spectrum: false
XAxis mode: Wavelengths
Number of Pixels in Spectrum: 1024
>>>>>Begin Spectral Data<<<<<
801.071	28858
801.214	28949
801.356	28774
801.499	28626
801.641	28664
801.783	28626
801.926	28618
802.068	28622
802.211	28535
802.353	28417
802.496	28379
802.638	28337
802.78	28287
802.923	28265
803.065	28150
803.208	28261
803.35	28268
803.492	28573
803.635	28417
803.777	28306
803.919	28531
804.061	28961
804.204	28588
804.346	28375
804.488	28516
804.63	28447
804.773	28413
804.915	28748
805.057	28546
805.199	28478
805.341	28634
805.483	28866
805.626	28577
805.768	28622
805.91	28687
806.052	28767
806.194	28413
806.336	28927
806.478	28679
806.62	28660
806.762	28733
806.904	29094
807.046	29174
807.188	29151
807.33	29014
807.472	29277
807.614	29136
807.756	29162
807.898	29003
808.04	28949
808.182	28908
808.324	29006
808.465	29212
808.607	29368
808.749	29471
808.891	29600
809.033	29623
809.174	29535
809.316	29311
809.458	29520
809.6	29311
809.741	29486
809.883	29516
810.025	29699
810.166	29661
810.308	29649
810.45	29649
810.591	29657
810.733	29402
810.875	29463
811.016	29360
811.158	29318
811.299	29440
811.441	29573
811.582	29695
811.724	29505
811.865	29284
812.007	29307
812.148	29383
812.29	29493
812.431	29577
812.573	29817
812.714	29691
812.855	30041
812.997	29916
813.138	30034
813.279	30022
813.421	29961
813.562	29794
813.703	29764
813.845	29699
813.986	29421
814.127	29280
814.268	29048
814.41	29170
814.551	29189
814.692	29143
814.833	29124
814.974	29124
815.115	29170
815.256	29003
815.397	28923
815.539	28881
815.68	28892
815.821	28850
815.962	28835
816.103	28915
816.244	28748
816.385	28687
816.526	28596
816.666	28512
816.807	28432
816.948	28497
817.089	28573
817.23	28512
817.371	28474
817.512	28554
817.653	28405
817.793	28325
817.934	28478
818.075	28390
818.216	28481
818.356	28265
818.497	28455
818.638	28154
818.778	28124
818.919	28314
819.06	28242
819.2	28375
819.341	28371
819.481	28440
819.622	28459
819.762	28710
819.903	28641
820.043	28687
820.184	28588
820.324	28721
820.465	28748
820.605	28577
820.746	28603
820.886	28451
821.026	28649
821.167	28516
821.307	28687
821.447	28672
821.588	28318
821.728	28409
821.868	28169
822.008	28055
822.149	27968
822.289	27857
822.429	27717
822.569	27580
822.709	27568
822.849	27466
822.99	27469
823.13	27386
823.27	27416
823.41	27222
823.55	27199
823.69	27317
823.83	27275
823.97	27230
824.11	27180
824.25	27157
824.389	27043
824.529	27226
824.669	27275
824.809	27138
824.949	27150
825.089	27195
825.228	27252
825.368	26842
825.508	26956
825.648	26906
825.787	27017
825.927	27043
826.067	27077
826.206	26963
826.346	26883
826.485	27047
826.625	27028
826.765	26960
826.904	27009
827.044	26762
827.183	26731
827.323	26697
827.462	26754
827.601	26750
827.741	26762
827.88	26857
828.02	26625
828.159	26648
828.298	26697
828.437	26743
828.577	26594
828.716	26853
828.855	26602
828.994	26526
829.134	26488
829.273	26381
829.412	26286
829.551	26400
829.69	26415
829.829	26469
829.968	26560
830.107	26530
830.246	26366
830.385	26408
830.524	26294
830.663	26183
830.802	26111
830.941	26001
831.08	25993
831.219	26149
831.357	26119
831.496	26138
831.635	26050
831.774	25932
831.913	25830
832.051	25826
832.19	25837
832.329	25731
832.467	25662
832.606	25708
832.744	25639
832.883	25628
833.022	25689
833.16	25502
833.299	25635
833.437	25620
833.576	25655
833.714	25639
833.852	25769
833.991	25765
834.129	25712
834.267	25753
834.406	25639
834.544	25765
834.682	25601
834.821	25689
834.959	25830
835.097	25571
835.235	25830
835.373	25567
835.511	25639
835.65	25457
835.788	25613
835.926	25662
836.064	25396
836.202	25441
836.34	25510
836.478	25510
836.615	25548
836.753	25563
836.891	25613
837.029	25479
837.167	25316
837.305	25396
837.443	25441
837.58	25289
837.718	25483
837.856	25430
837.993	25266
838.131	25308
838.269	25129
838.406	25289
838.544	25164
838.681	25076
838.819	25133
838.956	24852
839.094	24688
839.231	24951
839.369	25129
839.506	25183
839.643	25042
839.781	24738
839.918	24715
840.055	24852
840.193	24722
840.33	24806
840.467	24764
840.604	24711
840.742	25008
840.879	24620
841.016	24700
841.153	24623
841.29	24768
841.427	24585
841.564	24848
841.701	24684
841.838	24661
841.975	24578
842.112	24574
842.249	24563
842.385	24521
842.522	24578
842.659	24646
842.796	24623
842.933	24483
843.069	24365
843.206	24365
843.343	24536
843.479	24437
843.616	24471
843.752	24330
843.889	24213
844.025	24403
844.162	24232
844.298	24334
844.435	24262
844.571	24095
844.708	24292
844.844	24334
844.98	24456
845.117	24262
845.253	24197
845.389	24110
845.525	24171
845.661	24201
845.798	23923
845.934	24034
846.07	23939
846.206	23958
846.342	24167
846.478	24003
846.614	23729
846.75	23531
846.886	23707
847.022	23798
847.158	23699
847.294	23668
847.429	23638
847.565	23619
847.701	23923
847.837	23467
847.972	23417
848.108	23520
848.244	23482
848.379	23322
848.515	23204
848.65	23178
848.786	23318
848.921	23303
849.057	23471
849.192	23353
849.328	23292
849.463	23326
849.598	23197
849.734	23140
849.869	23094
850.004	23022
850.14	23098
850.275	23052
850.41	22980
850.545	23010
850.68	23029
850.815	23064
850.95	23041
851.085	23231
851.22	23159
851.355	23094
851.49	22968
851.625	23006
851.76	22999
851.895	22953
852.03	22927
852.165	23003
852.299	23006
852.434	23048
852.569	23025
852.703	23041
852.838	23200
852.973	23136
853.107	23079
853.242	23003
853.376	22873
853.511	22546
853.645	22831
853.78	23052
853.914	22942
854.048	22831
854.183	22755
854.317	22957
854.451	22930
854.585	22854
854.72	22847
854.854	22866
854.988	22790
855.122	22885
855.256	22710
855.39	22793
855.524	22999
855.658	22946
855.792	22904
855.926	22885
856.06	22919
856.194	22843
856.327	22805
856.461	22786
856.595	22820
856.729	22816
856.862	22934
856.996	22831
857.13	22946
857.263	22995
857.397	22934
857.53	22866
857.664	22949
857.797	22896
857.931	22782
858.064	22854
858.197	22965
858.331	22854
858.464	22790
858.597	22759
858.731	22850
858.864	22733
858.997	22858
859.13	22984
859.263	22831
859.396	22915
859.529	22835
859.662	22790
859.795	22847
859.928	22911
860.061	22972
860.194	23124
860.327	22866
860.46	22987
860.592	22949
860.725	22927
860.858	22869
860.99	22885
861.123	22816
861.256	22687
861.388	22820
861.521	23531
861.653	22691
861.786	22706
861.918	22752
862.05	22691
862.183	22812
862.315	22710
862.447	22816
862.58	22816
862.712	22588
862.844	22550
862.976	22736
863.108	22607
863.24	23124
863.372	22599
863.504	22569
863.636	22497
863.768	22622
863.9	22466
864.032	22462
864.164	22611
864.296	22634
864.428	22637
864.559	22573
864.691	22531
864.823	22516
864.954	22550
865.086	22481
865.217	22424
865.349	22276
865.48	22497
865.612	22344
865.743	22634
865.875	22474
866.006	22481
866.137	22402
866.269	22436
866.4	22474
866.531	22268
866.662	22356
866.793	22249
866.924	22379
867.055	22325
867.186	22371
867.317	22379
867.448	22268
867.579	22314
867.71	22257
867.841	22238
867.972	22371
868.103	22371
868.233	22352
868.364	22360
868.495	22390
868.625	22561
868.756	22710
868.886	22390
869.017	22615
869.147	22675
869.278	22782
869.408	22675
869.539	22618
869.669	22645
869.799	22599
869.929	22755
870.06	22679
870.19	22843
870.32	22767
870.45	22850
870.58	23041
870.71	23018
870.84	23098
870.97	22999
871.1	22968
871.23	23109
871.36	23223
871.489	23056
871.619	23121
871.749	23170
871.879	23155
872.008	23250
872.138	23269
872.267	23239
872.397	23102
872.526	22949
872.656	22927
872.785	23136
872.915	23197
873.044	23322
873.173	23140
873.303	23162
873.432	23292
873.561	23429
873.69	23322
873.819	23048
873.948	23204
874.077	23121
874.206	23178
874.335	23204
874.464	23341
874.593	23512
874.722	23459
874.851	23421
874.979	23520
875.108	23398
875.237	23223
875.365	23341
875.494	23414
875.623	23551
875.751	23402
875.88	23322
876.008	23566
876.136	23619
876.265	23798
876.393	23992
876.521	23874
876.65	23988
876.778	23821
876.906	23843
877.034	23748
877.162	23741
877.29	23653
877.418	23783
877.546	23821
877.674	23718
877.802	23756
877.93	23783
878.058	23790
878.185	23604
878.313	23710
878.441	23722
878.568	23592
878.696	23737
878.824	23760
878.951	23828
879.079	23965
879.206	24125
879.333	23824
879.461	23866
879.588	23714
879.715	23912
879.842	23950
879.97	23790
880.097	23611
880.224	23570
880.351	23585
880.478	23573
880.605	23585
880.732	23573
880.859	23821
880.986	23562
881.112	23718
881.239	23482
881.366	23334
881.493	23242
881.619	23151
881.746	23242
881.872	23121
881.999	23159
882.125	23079
882.252	23029
882.378	23083
882.505	23258
882.631	22896
882.757	22767
882.883	22908
883.01	22801
883.136	22733
883.262	22668
883.388	22664
883.514	22866
883.64	22831
883.766	22634
883.892	22557
884.018	22542
884.143	22660
884.269	22786
884.395	22436
884.52	22402
884.646	22455
884.772	22287
884.897	22459
885.023	22455
885.148	22466
885.274	22538
885.399	22516
885.524	22360
885.65	22459
885.775	22527
885.9	22405
886.025	22455
886.15	22554
886.275	22306
886.4	22341
886.525	22436
886.65	22314
886.775	22295
886.9	22459
887.025	22577
887.149	22432
887.274	22276
887.399	22025
887.523	22226
887.648	22185
887.773	22105
887.897	22265
888.021	22181
888.146	22234
888.27	22181
888.395	22272
888.519	22211
888.643	22200
888.767	22188
888.891	22139
889.015	21979
889.139	22059
889.263	21911
889.387	22063
889.511	22101
889.635	21979
889.759	22002
889.883	22051
890.006	21934
890.13	22139
890.254	21964
890.377	21846
890.501	21751
890.624	21660
890.748	21759
890.871	21705
890.995	21450
891.118	21447
891.241	21534
891.364	21622
891.488	21671
891.611	21549
891.734	21523
891.857	21481
891.98	21515
892.103	21447
892.226	21534
892.349	21496
892.471	21291
892.594	21477
892.717	21428
892.839	21340
892.962	21420
893.085	21504
893.207	21325
893.33	21283
893.452	21355
893.575	21412
893.697	21260
893.819	21542
893.941	21591
894.064	21511
894.186	21298
894.308	21245
894.43	21370
894.552	21447
894.674	21481
894.796	21287
894.918	21355
895.04	21355
895.161	21408
895.283	21268
895.405	21386
895.526	21355
895.648	21306
895.769	21260
895.891	21291
896.012	21374
896.134	21466
896.255	21336
896.376	21431
896.498	21389
896.619	21454
896.74	21408
896.861	21355
896.982	21724
897.103	21816
897.224	21606
897.345	21580
897.466	21469
897.587	21580
897.708	21648
897.828	21545
897.949	21507
898.07	21382
898.19	21538
898.311	21682
898.431	21504
898.552	21542
898.672	21591
898.792	21629
898.913	21466
899.033	21367
899.153	21367
899.273	21272
899.393	21237
899.513	21306
899.633	21249
899.753	21310
899.873	21211
899.993	21294
900.113	21291
900.232	21283
900.352	21123
900.472	21096
900.591	20994
900.711	21043
900.83	21028
900.95	21226
901.069	21074
901.189	20804
901.308	20781
901.427	20541
901.546	20469
901.665	20526
901.784	20655
901.904	20484
902.023	20427
902.141	20290
902.26	20237
902.379	20183
902.498	20214
902.617	20062
902.735	20210
902.854	20145
902.973	20012
903.091	19681
903.21	19731
903.328	19658
903.446	19731
903.565	19601
903.683	19674
903.801	19441
903.919	19419
904.038	19464
904.156	19183
904.274	19339
904.392	19213
904.51	19240
904.627	19266
904.745	19365
904.863	19392
904.981	19118
905.098	18882
905.216	19019
905.334	19050
905.451	19008
905.569	19012
905.686	19031
905.803	18909
905.921	18681
906.038	18825
906.155	18848
906.272	18722
906.389	18741
906.506	18483
906.623	18536
906.74	18437
906.857	18361
906.974	18399
907.091	18563
907.208	18673
907.324	18601
907.441	18346
907.557	18194
907.674	18194
907.79	18144
907.907	18110
908.023	18129
908.139	18133
908.256	18197
908.372	18121
908.488	18057
908.604	17923
908.72	17855
908.836	17939
908.952	17946
909.068	17863
909.184	18011
909.3	17912
909.415	17958
909.531	17885
909.647	17646
909.762	17554
909.878	17520
909.993	17589
910.108	17665
910.224	17623
910.339	17649
910.454	17429
910.57	17436
910.685	17372
910.8	17668
910.915	17516
911.03	17410
911.145	17322
911.259	17151
911.374	17239
911.489	17181
911.604	16976
911.718	16949
911.833	16869
911.947	16824
912.062	16847
912.176	16896
912.291	16987
912.405	16908
912.519	17170
912.633	17022
912.748	16991
912.862	16961
912.976	16702
913.09	16710
913.204	16713
913.318	16793
913.431	16831
913.545	16862
913.659	16915
913.772	16759
913.886	16649
914	16421
914.113	16672
914.226	16588
914.34	16527
914.453	16413
914.566	16554
914.68	16356
914.793	16462
914.906	16101
915.019	16078
915.132	16010
915.245	16147
915.358	16124
915.47	16158
915.583	16112
915.696	16051
915.809	16215
915.921	16154
916.034	16124
916.146	16010
916.259	16093
916.371	16120
916.483	16078
916.595	15983
916.708	15892
916.82	15895
916.932	15865
917.044	15850
917.156	15819
917.268	15679
917.38	15717
917.491	15641
917.603	15682
917.715	15690
917.826	15774
917.938	15724
918.049	15656
918.161	15618
918.272	15713
918.384	15709
918.495	15629
918.606	15549
918.717	15435
918.828	15443
918.939	15481
919.05	15447
919.161	15389
919.272	15275
919.383	15306
919.494	15473
919.604	15545
919.715	15389
919.826	15294
919.936	15287
920.047	15473
920.157	15359
920.267	15641
920.378	15408
920.488	15374
920.598	15595
920.708	15713
920.818	15534
920.928	15587
921.038	15568
921.148	15584
921.258	15321
921.368	15230
921.477	15207
921.587	15108
921.697	14933
921.806	15085
921.916	14948
922.025	14765
922.134	14800
922.244	14746
922.353	14815
922.462	14644
922.571	14522
922.68	14393
922.789	14374
922.898	14427
923.007	14305
923.116	14347
923.224	14347
923.333	14355
923.442	14290
923.55	14275
923.659	14252
923.767	14256
923.876	14199
923.984	14229
924.092	14039
924.201	14073
924.309	14149
924.417	14016
924.525	14012
924.633	14035
924.741	14785
924.849	13894
924.956	13894
925.064	13868
925.172	13677
925.279	13731
925.387	13879
925.494	13784
925.602	13875
925.709	13795
925.816	13677
925.924	13647
926.031	13727
926.138	13666
926.245	13791
926.352	13723
926.459	13655
926.566	13715
926.673	13651
926.779	13552
926.886	13415
926.993	13350
927.099	13297
927.206	13217
927.312	13129
927.419	13278
927.525	13343
927.631	13236
927.737	13126
927.843	13107
927.95	13031
928.056	13152
928.162	13122
928.267	13065
928.373	13731
928.479	13137
928.585	12962
928.69	13042
928.796	13091
928.901	12924
929.007	12821
929.112	12973
929.218	12943
929.323	12787
929.428	12745
929.533	12863
929.638	12703
929.743	12764
929.848	12795
929.953	12806
930.058	12631
930.163	12414
930.267	12528
930.372	12616
930.477	12357
930.581	12715
930.685	12517
930.79	12330
930.894	12319
930.998	12239
931.103	12437
931.207	12106
931.311	12106
931.415	11863
931.519	11688
931.623	11634
