Data from test_V78500241_1054.txt Node
Date: Fri Mar 25 15:49:06 CST 2022
User: usil
Spectrometer: V785-0024
Trigger mode: 0
Integration Time (sec): 4.000000E-1
Scans to average: 1
Nonlinearity correction enabled: false
Boxcar width: 0
Storing dark spectrum: false
XAxis mode: Wavelengths
Number of Pixels in Spectrum: 1024
>>>>>Begin Spectral Data<<<<<
801.071	28622
801.214	28561
801.356	28428
801.499	28310
801.641	28143
801.783	28196
801.926	28188
802.068	28173
802.211	28128
802.353	27972
802.496	27991
802.638	27720
802.78	27884
802.923	27713
803.065	27736
803.208	27804
803.35	27873
803.492	28002
803.635	28086
803.777	27854
803.919	28135
804.061	28276
804.204	28158
804.346	28021
804.488	28036
804.63	28070
804.773	27880
804.915	28040
805.057	28105
805.199	27945
805.341	28135
805.483	28246
805.626	28299
805.768	28215
805.91	28036
806.052	28219
806.194	28181
806.336	28470
806.478	28272
806.62	28261
806.762	28440
806.904	28538
807.046	28763
807.188	28687
807.33	28793
807.472	28793
807.614	28782
807.756	28630
807.898	28542
808.04	28561
808.182	28592
808.324	28630
808.465	28683
808.607	28919
808.749	28911
808.891	29064
809.033	29159
809.174	29044
809.316	29006
809.458	28862
809.6	28812
809.741	29056
809.883	29181
810.025	29326
810.166	29208
810.308	29265
810.45	29136
810.591	29155
810.733	28987
810.875	29098
811.016	28835
811.158	28938
811.299	29109
811.441	29166
811.582	29083
811.724	29041
811.865	28904
812.007	28911
812.148	28961
812.29	29235
812.431	28915
812.573	29254
812.714	29292
812.855	29512
812.997	29687
813.138	29733
813.279	29676
813.421	29497
813.562	29353
813.703	29379
813.845	29227
813.986	29022
814.127	28854
814.268	28797
814.41	28744
814.551	28615
814.692	28778
814.833	28630
814.974	28771
815.115	28645
815.256	28592
815.397	28603
815.539	28516
815.68	28504
815.821	28363
815.962	28493
816.103	28489
816.244	28371
816.385	28291
816.526	28261
816.666	28051
816.807	28059
816.948	28059
817.089	28109
817.23	28120
817.371	27884
817.512	28055
817.653	28090
817.793	27854
817.934	28097
818.075	27960
818.216	28067
818.356	27960
818.497	27846
818.638	27800
818.778	27759
818.919	27743
819.06	27789
819.2	27854
819.341	28017
819.481	27854
819.622	28147
819.762	28272
819.903	28200
820.043	28154
820.184	28230
820.324	28147
820.465	28101
820.605	28230
820.746	28192
820.886	27998
821.026	28017
821.167	28013
821.307	28158
821.447	28070
821.588	27998
821.728	27819
821.868	27660
822.008	27606
822.149	27370
822.289	27511
822.429	27424
822.569	27207
822.709	27173
822.849	27039
822.99	27112
823.13	27116
823.27	27017
823.41	26838
823.55	26845
823.69	26800
823.83	26697
823.97	26925
824.11	26613
824.25	26682
824.389	26644
824.529	26758
824.669	26773
824.809	26667
824.949	26872
825.089	26842
825.228	26796
825.368	26590
825.508	26461
825.648	26530
825.787	26659
825.927	26621
826.067	26606
826.206	26488
826.346	26541
826.485	26522
826.625	26469
826.765	26655
826.904	26507
827.044	26366
827.183	26419
827.323	26408
827.462	26339
827.601	26358
827.741	26248
827.88	26221
828.02	26115
828.159	26172
828.298	26328
828.437	26282
828.577	26119
828.716	26393
828.855	26050
828.994	25921
829.134	25997
829.273	25921
829.412	25974
829.551	25833
829.69	25913
829.829	25890
829.968	26005
830.107	26081
830.246	25963
830.385	25723
830.524	25776
830.663	25712
830.802	25563
830.941	25422
831.08	25479
831.219	25548
831.357	25723
831.496	25727
831.635	25537
831.774	25445
831.913	25548
832.051	25434
832.19	25324
832.329	25346
832.467	25251
832.606	25160
832.744	25240
832.883	25145
833.022	25202
833.16	25369
833.299	25369
833.437	25278
833.576	25270
833.714	25365
833.852	25206
833.991	25495
834.129	25472
834.267	25472
834.406	25217
834.544	25316
834.682	25316
834.821	25213
834.959	25392
835.097	25263
835.235	25282
835.373	25244
835.511	25179
835.65	25152
835.788	25133
835.926	24916
836.064	25000
836.202	24920
836.34	25129
836.478	25179
836.615	25050
836.753	25076
836.891	25122
837.029	25110
837.167	25107
837.305	24935
837.443	25000
837.58	24894
837.718	25057
837.856	24897
837.993	24852
838.131	24871
838.269	24817
838.406	24943
838.544	24894
838.681	24589
838.819	24555
838.956	24395
839.094	24445
839.231	24486
839.369	24566
839.506	24734
839.643	24688
839.781	24460
839.918	24292
840.055	24525
840.193	24247
840.33	24365
840.467	24357
840.604	24452
840.742	24555
840.879	24144
841.016	24304
841.153	24239
841.29	24483
841.427	24289
841.564	24452
841.701	24289
841.838	24445
841.975	24213
842.112	24174
842.249	24057
842.385	24076
842.522	24266
842.659	24197
842.796	23984
842.933	24045
843.069	23939
843.206	24041
843.343	24129
843.479	23992
843.616	24060
843.752	23828
843.889	23870
844.025	23935
844.162	23836
844.298	23977
844.435	23904
844.571	23718
844.708	23908
844.844	24057
844.98	23939
845.117	23923
845.253	23726
845.389	23760
845.525	23699
845.661	23699
845.798	23615
845.934	23707
846.07	23467
846.206	23592
846.342	23710
846.478	23566
846.614	23425
846.75	23200
846.886	23326
847.022	23330
847.158	23315
847.294	23239
847.429	23414
847.565	23277
847.701	23486
847.837	23071
847.972	23151
848.108	23052
848.244	23124
848.379	22984
848.515	22881
848.65	22858
848.786	22949
848.921	22869
849.057	22968
849.192	23064
849.328	22904
849.463	22934
849.598	22752
849.734	22767
849.869	22736
850.004	22573
850.14	22744
850.275	22786
850.41	22436
850.545	22542
850.68	22573
850.815	22797
850.95	22584
851.085	22736
851.22	22721
851.355	22561
851.49	22691
851.625	22637
851.76	22599
851.895	22588
852.03	22542
852.165	22664
852.299	22607
852.434	22835
852.569	22557
852.703	22675
852.838	22698
852.973	22748
853.107	22801
853.242	22721
853.376	22519
853.511	22322
853.645	22322
853.78	22573
853.914	22557
854.048	22447
854.183	22402
854.317	22436
854.451	22668
854.585	22440
854.72	22386
854.854	22523
854.988	22421
855.122	22481
855.256	22356
855.39	22413
855.524	22447
855.658	22615
855.792	22504
855.926	22466
856.06	22523
856.194	22538
856.327	22436
856.461	22440
856.595	22356
856.729	22375
856.862	22519
856.996	22584
857.13	22459
857.263	22611
857.397	22527
857.53	22325
857.664	22489
857.797	22443
857.931	22519
858.064	22447
858.197	22527
858.331	22440
858.464	22459
858.597	22367
858.731	22352
858.864	22360
858.997	22493
859.13	22478
859.263	22489
859.396	22421
859.529	22440
859.662	22550
859.795	22371
859.928	22519
860.061	22531
860.194	22626
860.327	22382
860.46	22322
860.592	22596
860.725	22611
860.858	22580
860.99	22466
861.123	22371
861.256	22375
861.388	22360
861.521	23162
861.653	22371
861.786	22230
861.918	22303
862.05	22318
862.183	22367
862.315	22348
862.447	22474
862.58	22284
862.712	22150
862.844	22192
862.976	22162
863.108	22246
863.24	22523
863.372	22055
863.504	22101
863.636	22177
863.768	22207
863.9	22158
864.032	22078
864.164	22253
864.296	22032
864.428	22215
864.559	22162
864.691	22200
864.823	22299
864.954	22177
865.086	22139
865.217	22131
865.349	21907
865.48	22063
865.612	21998
865.743	22185
865.875	22002
866.006	22090
866.137	22055
866.269	21922
866.4	22017
866.531	22025
866.662	21907
866.793	21945
866.924	21937
867.055	22017
867.186	22063
867.317	22078
867.448	21998
867.579	21930
867.71	21880
867.841	21835
867.972	21926
868.103	21884
868.233	21888
868.364	21941
868.495	22044
868.625	22181
868.756	22318
868.886	22109
869.017	22242
869.147	22303
869.278	22295
869.408	22341
869.539	22219
869.669	22371
869.799	22268
869.929	22291
870.06	22261
870.19	22459
870.32	22516
870.45	22432
870.58	22683
870.71	22645
870.84	22573
870.97	22622
871.1	22637
871.23	22713
871.36	22759
871.489	22694
871.619	22786
871.749	22862
871.879	22755
872.008	22793
872.138	22873
872.267	22744
872.397	22557
872.526	22561
872.656	22626
872.785	22622
872.915	22816
873.044	22919
873.173	22866
873.303	22801
873.432	22790
873.561	23018
873.69	22892
873.819	22744
873.948	22869
874.077	22904
874.206	22748
874.335	22835
874.464	22927
874.593	23037
874.722	22968
874.851	22999
874.979	23064
875.108	23079
875.237	22885
875.365	22889
875.494	22862
875.623	22942
875.751	22965
875.88	22930
876.008	23227
876.136	23277
876.265	23318
876.393	23524
876.521	23512
876.65	23452
876.778	23429
876.906	23349
877.034	23356
877.162	23288
877.29	23395
877.418	23364
877.546	23444
877.674	23292
877.802	23258
877.93	23414
878.058	23356
878.185	23425
878.313	23292
878.441	23414
878.568	23170
878.696	23311
878.824	23360
878.951	23490
879.079	23452
879.206	23687
879.333	23474
879.461	23547
879.588	23501
879.715	23471
879.842	23558
879.97	23391
880.097	23128
880.224	23208
880.351	23204
880.478	23296
880.605	23033
880.732	23231
880.859	23429
880.986	23220
881.112	23166
881.239	23048
881.366	22816
881.493	22828
881.619	22786
881.746	22744
881.872	22809
881.999	22691
882.125	22649
882.252	22706
882.378	22816
882.505	22744
882.631	22573
882.757	22466
882.883	22470
883.01	22405
883.136	22352
883.262	22344
883.388	22284
883.514	22405
883.64	22466
883.766	22223
883.892	22181
884.018	22135
884.143	22360
884.269	22402
884.395	22150
884.52	22143
884.646	22124
884.772	21994
884.897	21991
885.023	22055
885.148	22150
885.274	22147
885.399	22154
885.524	22059
885.65	22029
885.775	22010
885.9	22010
886.025	22200
886.15	22109
886.275	22002
886.4	21956
886.525	21949
886.65	22013
886.775	21892
886.9	22215
887.025	22192
887.149	21994
887.274	21876
887.399	21785
887.523	21838
887.648	21827
887.773	21705
887.897	21895
888.021	21812
888.146	21816
888.27	21838
888.395	21941
888.519	21880
888.643	21797
888.767	21816
888.891	21751
889.015	21637
889.139	21599
889.263	21667
889.387	21637
889.511	21915
889.635	21686
889.759	21603
889.883	21618
890.006	21603
890.13	21641
890.254	21458
890.377	21515
890.501	21412
890.624	21188
890.748	21283
890.871	21245
890.995	21252
891.118	21142
891.241	21211
891.364	21218
891.488	21367
891.611	21195
891.734	21089
891.857	21233
891.98	21150
892.103	21138
892.226	21142
892.349	20990
892.471	20975
892.594	21020
892.717	21070
892.839	21051
892.962	21074
893.085	21138
893.207	21032
893.33	21017
893.452	20872
893.575	21116
893.697	21070
893.819	21176
893.941	21249
894.064	21214
894.186	21093
894.308	20979
894.43	21203
894.552	21203
894.674	21233
894.796	20899
894.918	21081
895.04	21013
895.161	21100
895.283	21036
895.405	20979
895.526	21036
895.648	21032
895.769	21104
895.891	21043
896.012	21070
896.134	21131
896.255	20975
896.376	21017
896.498	21001
896.619	21119
896.74	21127
896.861	21154
896.982	21374
897.103	21462
897.224	21313
897.345	21161
897.466	21142
897.587	21306
897.708	21325
897.828	21173
897.949	21218
898.07	21058
898.19	21165
898.311	21260
898.431	21154
898.552	21287
898.672	21230
898.792	21268
898.913	21195
899.033	21013
899.153	21036
899.273	20910
899.393	20998
899.513	21062
899.633	21024
899.753	20921
899.873	20838
899.993	20975
900.113	20899
900.232	21005
900.352	20872
900.472	20815
900.591	20609
900.711	20705
900.83	20689
900.95	20849
901.069	20842
901.189	20541
901.308	20339
901.427	20309
901.546	20339
901.665	20324
901.784	20362
901.904	20119
902.023	20062
902.141	19909
902.26	19833
902.379	19898
902.498	19795
902.617	19791
902.735	19913
902.854	19757
902.973	19704
903.091	19544
903.21	19491
903.328	19445
903.446	19301
903.565	19293
903.683	19225
903.801	19156
903.919	19232
904.038	19179
904.156	18962
904.274	19023
904.392	19034
904.51	18886
904.627	19042
904.745	18977
904.863	19095
904.981	18837
905.098	18719
905.216	18654
905.334	18753
905.451	18726
905.569	18692
905.686	18631
905.803	18616
905.921	18418
906.038	18604
906.155	18574
906.272	18243
906.389	18426
906.506	18262
906.623	18220
906.74	18239
906.857	18087
906.974	18125
907.091	18216
907.208	18220
907.324	18232
907.441	18129
907.557	17874
907.674	17946
907.79	17828
907.907	17832
908.023	17965
908.139	17939
908.256	17828
908.372	17809
908.488	17691
908.604	17615
908.72	17463
908.836	17592
908.952	17573
909.068	17638
909.184	17794
909.3	17585
909.415	17657
909.531	17615
909.647	17345
909.762	17353
909.878	17356
909.993	17448
910.108	17258
910.224	17326
910.339	17379
910.454	17136
910.57	17090
910.685	17113
910.8	17349
910.915	17178
911.03	17094
911.145	16927
911.259	16892
911.374	16946
911.489	16908
911.604	16752
911.718	16702
911.833	16641
911.947	16558
912.062	16519
912.176	16626
912.291	16771
912.405	16706
912.519	16839
912.633	16858
912.748	16759
912.862	16542
912.976	16443
913.09	16371
913.204	16447
913.318	16436
913.431	16584
913.545	16516
913.659	16634
913.772	16356
913.886	16402
914	16215
914.113	16306
914.226	16249
914.34	16303
914.453	16120
914.566	16253
914.68	16242
914.793	16128
914.906	15865
915.019	15907
915.132	15854
915.245	15819
915.358	15876
915.47	15766
915.583	15892
915.696	15854
915.809	15987
915.921	15930
916.034	15736
916.146	15705
916.259	15644
916.371	15781
916.483	15698
916.595	15641
916.708	15686
916.82	15770
916.932	15660
917.044	15545
917.156	15591
917.268	15443
917.38	15466
917.491	15443
917.603	15431
917.715	15462
917.826	15564
917.938	15298
918.049	15321
918.161	15408
918.272	15492
918.384	15386
918.495	15351
918.606	15207
918.717	15150
918.828	15298
918.939	15165
919.05	15097
919.161	15138
919.272	14918
919.383	15001
919.494	15195
919.604	15348
919.715	15112
919.826	15112
919.936	15131
920.047	15184
920.157	15157
920.267	15370
920.378	15256
920.488	15154
920.598	15264
920.708	15393
920.818	15294
920.928	15348
921.038	15397
921.148	15306
921.258	15119
921.368	15017
921.477	14864
921.587	14937
921.697	14739
921.806	14880
921.916	14769
922.025	14556
922.134	14484
922.244	14396
922.353	14469
922.462	14412
922.571	14347
922.68	14130
922.789	14138
922.898	14157
923.007	14069
923.116	14077
923.224	14077
923.333	14111
923.442	14008
923.55	13921
923.659	13978
923.767	14073
923.876	13944
923.984	13928
924.092	13894
924.201	14005
924.309	13925
924.417	13917
924.525	13776
924.633	13738
924.741	14541
924.849	13525
924.956	13719
925.064	13590
925.172	13537
925.279	13556
925.387	13559
925.494	13476
925.602	13594
925.709	13651
925.816	13506
925.924	13487
926.031	13502
926.138	13502
926.245	13571
926.352	13324
926.459	13575
926.566	13472
926.673	13381
926.779	13316
926.886	13289
926.993	13129
927.099	13149
927.206	13019
927.312	13019
927.419	13065
927.525	13084
927.631	13076
927.737	12996
927.843	13065
927.95	12856
928.056	12894
928.162	12859
928.267	12928
928.373	13407
928.479	12875
928.585	12738
928.69	12829
928.796	12829
928.901	12669
929.007	12608
929.112	12684
929.218	12650
929.323	12627
929.428	12601
929.533	12650
929.638	12559
929.743	12570
929.848	12627
929.953	12589
930.058	12445
930.163	12251
930.267	12315
930.372	12399
930.477	12144
930.581	12490
930.685	12334
930.79	12106
930.894	12182
930.998	12201
931.103	12319
931.207	11908
931.311	11767
931.415	11657
931.519	11474
931.623	11448
