Data from test_V78500241_1968.txt Node
Date: Fri Mar 25 15:55:26 CST 2022
User: usil
Spectrometer: V785-0024
Trigger mode: 0
Integration Time (sec): 4.000000E-1
Scans to average: 1
Nonlinearity correction enabled: false
Boxcar width: 0
Storing dark spectrum: false
XAxis mode: Wavelengths
Number of Pixels in Spectrum: 1024
>>>>>Begin Spectral Data<<<<<
801.071	28778
801.214	28653
801.356	28451
801.499	28280
801.641	28363
801.783	28284
801.926	28329
802.068	28280
802.211	28204
802.353	28177
802.496	28059
802.638	27899
802.78	28040
802.923	27934
803.065	27937
803.208	27876
803.35	27831
803.492	28048
803.635	28215
803.777	28150
803.919	28063
804.061	28622
804.204	28223
804.346	28230
804.488	28021
804.63	28162
804.773	28116
804.915	28207
805.057	28344
805.199	28207
805.341	28188
805.483	28348
805.626	28303
805.768	28230
805.91	28257
806.052	28322
806.194	28158
806.336	28466
806.478	28363
806.62	28268
806.762	28421
806.904	28694
807.046	28850
807.188	28786
807.33	28835
807.472	28949
807.614	28672
807.756	28896
807.898	28603
808.04	28649
808.182	28577
808.324	28759
808.465	28713
808.607	28923
808.749	28980
808.891	29170
809.033	29159
809.174	29098
809.316	29006
809.458	28900
809.6	28915
809.741	29261
809.883	29170
810.025	29318
810.166	29296
810.308	29364
810.45	29193
810.591	29094
810.733	29124
810.875	29060
811.016	28927
811.158	28976
811.299	29098
811.441	29288
811.582	29292
811.724	28946
811.865	29006
812.007	29029
812.148	29098
812.29	29132
812.431	29269
812.573	29258
812.714	29551
812.855	29516
812.997	29562
813.138	29699
813.279	29634
813.421	29691
813.562	29516
813.703	29478
813.845	29292
813.986	29018
814.127	28957
814.268	28717
814.41	28725
814.551	28679
814.692	28915
814.833	28733
814.974	28634
815.115	28656
815.256	28535
815.397	28675
815.539	28561
815.68	28626
815.821	28459
815.962	28588
816.103	28470
816.244	28436
816.385	28272
816.526	28432
816.666	28200
816.807	27941
816.948	28048
817.089	28192
817.23	28025
817.371	28006
817.512	28025
817.653	27964
817.793	27975
817.934	27956
818.075	28040
818.216	28067
818.356	27865
818.497	27899
818.638	27751
818.778	27819
818.919	27857
819.06	27743
819.2	27991
819.341	28017
819.481	28059
819.622	28185
819.762	28337
819.903	28314
820.043	28124
820.184	28371
820.324	28249
820.465	28234
820.605	28192
820.746	28112
820.886	28055
821.026	28097
821.167	28063
821.307	28086
821.447	28219
821.588	28063
821.728	27823
821.868	27785
822.008	27663
822.149	27698
822.289	27599
822.429	27249
822.569	27169
822.709	27233
822.849	26998
822.99	27154
823.13	27047
823.27	26864
823.41	26724
823.55	26724
823.69	26872
823.83	26834
823.97	26830
824.11	26765
824.25	26632
824.389	26689
824.529	26785
824.669	26792
824.809	26921
824.949	26830
825.089	26682
825.228	26769
825.368	26587
825.508	26492
825.648	26682
825.787	26708
825.927	26678
826.067	26583
826.206	26644
826.346	26651
826.485	26678
826.625	26621
826.765	26571
826.904	26568
827.044	26313
827.183	26431
827.323	26309
827.462	26419
827.601	26294
827.741	26244
827.88	26252
828.02	26054
828.159	26317
828.298	26225
828.437	26328
828.577	26229
828.716	26389
828.855	26119
828.994	25986
829.134	25944
829.273	25959
829.412	25856
829.551	25940
829.69	26043
829.829	26062
829.968	25955
830.107	25875
830.246	26012
830.385	25871
830.524	25902
830.663	25856
830.802	25757
830.941	25624
831.08	25499
831.219	25605
831.357	25548
831.496	25830
831.635	25658
831.774	25563
831.913	25506
832.051	25324
832.19	25232
832.329	25434
832.467	25263
832.606	25358
832.744	25137
832.883	25209
833.022	25297
833.16	25213
833.299	25141
833.437	25304
833.576	25377
833.714	25304
833.852	25563
833.991	25240
834.129	25373
834.267	25415
834.406	25320
834.544	25346
834.682	25206
834.821	25316
834.959	25400
835.097	25255
835.235	25388
835.373	25320
835.511	25263
835.65	25164
835.788	25152
835.926	24973
836.064	24951
836.202	24901
836.34	25164
836.478	25171
836.615	25050
836.753	25042
836.891	25171
837.029	25289
837.167	25057
837.305	25023
837.443	24996
837.58	25103
837.718	24985
837.856	25038
837.993	24932
838.131	24939
838.269	24848
838.406	24878
838.544	24715
838.681	24776
838.819	24601
838.956	24357
839.094	24361
839.231	24517
839.369	24589
839.506	24802
839.643	24559
839.781	24323
839.918	24330
840.055	24525
840.193	24384
840.33	24342
840.467	24270
840.604	24197
840.742	24631
840.879	24194
841.016	24323
841.153	24266
841.29	24505
841.427	24292
841.564	24239
841.701	24243
841.838	24209
841.975	24342
842.112	24311
842.249	24178
842.385	24072
842.522	24247
842.659	24155
842.796	24117
842.933	24182
843.069	24038
843.206	23942
843.343	24243
843.479	24060
843.616	23984
843.752	23813
843.889	23836
844.025	24064
844.162	23920
844.298	23912
844.435	23836
844.571	23691
844.708	23843
844.844	23977
844.98	24026
845.117	23954
845.253	23809
845.389	23737
845.525	23745
845.661	23741
845.798	23718
845.934	23570
846.07	23554
846.206	23512
846.342	23710
846.478	23501
846.614	23421
846.75	23277
846.886	23376
847.022	23318
847.158	23334
847.294	23235
847.429	23364
847.565	23254
847.701	23543
847.837	23189
847.972	23121
848.108	23227
848.244	23124
848.379	22946
848.515	22885
848.65	22980
848.786	22957
848.921	22869
849.057	22908
849.192	22953
849.328	22972
849.463	22919
849.598	22862
849.734	22752
849.869	22710
850.004	22698
850.14	22755
850.275	22569
850.41	22611
850.545	22637
850.68	22580
850.815	22748
850.95	22664
851.085	22809
851.22	22850
851.355	22660
851.49	22603
851.625	22664
851.76	22565
851.895	22542
852.03	22485
852.165	22649
852.299	22630
852.434	22782
852.569	22645
852.703	22641
852.838	22698
852.973	22759
853.107	22733
853.242	22535
853.376	22455
853.511	22367
853.645	22443
853.78	22516
853.914	22390
854.048	22417
854.183	22485
854.317	22538
854.451	22710
854.585	22447
854.72	22451
854.854	22550
854.988	22363
855.122	22447
855.256	22295
855.39	22360
855.524	22485
855.658	22542
855.792	22596
855.926	22470
856.06	22497
856.194	22622
856.327	22497
856.461	22443
856.595	22379
856.729	22398
856.862	22622
856.996	22497
857.13	22535
857.263	22432
857.397	22561
857.53	22459
857.664	22512
857.797	22622
857.931	22508
858.064	22565
858.197	22504
858.331	22421
858.464	22318
858.597	22413
858.731	22459
858.864	22398
858.997	22421
859.13	22417
859.263	22390
859.396	22493
859.529	22440
859.662	22432
859.795	22432
859.928	22531
860.061	22687
860.194	22618
860.327	22519
860.46	22516
860.592	22573
860.725	22577
860.858	22622
860.99	22577
861.123	22440
861.256	22497
861.388	22398
861.521	23341
861.653	22367
861.786	22261
861.918	22234
862.05	22386
862.183	22390
862.315	22497
862.447	22455
862.58	22371
862.712	22177
862.844	22196
862.976	22299
863.108	22280
863.24	22649
863.372	22215
863.504	22090
863.636	22257
863.768	22219
863.9	22112
864.032	22044
864.164	22166
864.296	22230
864.428	22284
864.559	22181
864.691	22310
864.823	22162
864.954	22067
865.086	22173
865.217	22150
865.349	21987
865.48	22086
865.612	22082
865.743	22143
865.875	22158
866.006	22143
866.137	22067
866.269	22086
866.4	22086
866.531	22017
866.662	21983
866.793	21899
866.924	21930
867.055	22093
867.186	22025
867.317	21987
867.448	21865
867.579	21945
867.71	21793
867.841	21838
867.972	22010
868.103	21934
868.233	21998
868.364	21972
868.495	22131
868.625	22154
868.756	22287
868.886	22211
869.017	22200
869.147	22379
869.278	22360
869.408	22276
869.539	22169
869.669	22367
869.799	22375
869.929	22318
870.06	22424
870.19	22588
870.32	22333
870.45	22557
870.58	22554
870.71	22824
870.84	22599
870.97	22580
871.1	22713
871.23	22733
871.36	22805
871.489	22706
871.619	22820
871.749	22824
871.879	22752
872.008	22828
872.138	22839
872.267	22835
872.397	22653
872.526	22660
872.656	22713
872.785	22573
872.915	22740
873.044	22984
873.173	22721
873.303	22812
873.432	22949
873.561	23086
873.69	22873
873.819	22793
873.948	22889
874.077	22793
874.206	22850
874.335	22911
874.464	22961
874.593	23178
874.722	22949
874.851	23121
874.979	23117
875.108	23067
875.237	23090
875.365	22862
875.494	23086
875.623	23140
875.751	23071
875.88	23018
876.008	23231
876.136	23231
876.265	23490
876.393	23600
876.521	23505
876.65	23501
876.778	23528
876.906	23383
877.034	23372
877.162	23395
877.29	23303
877.418	23406
877.546	23356
877.674	23398
877.802	23501
877.93	23463
878.058	23334
878.185	23296
878.313	23349
878.441	23261
878.568	23151
878.696	23345
878.824	23391
878.951	23497
879.079	23524
879.206	23756
879.333	23665
879.461	23505
879.588	23444
879.715	23649
879.842	23623
879.97	23547
880.097	23246
880.224	23288
880.351	23254
880.478	23197
880.605	23193
880.732	23288
880.859	23341
880.986	23311
881.112	23220
881.239	22923
881.366	22885
881.493	22896
881.619	22843
881.746	22892
881.872	22801
881.999	22733
882.125	22752
882.252	22850
882.378	22744
882.505	22911
882.631	22645
882.757	22405
882.883	22622
883.01	22459
883.136	22303
883.262	22333
883.388	22242
883.514	22500
883.64	22443
883.766	22512
883.892	22188
884.018	22249
884.143	22318
884.269	22462
884.395	22051
884.52	22040
884.646	22211
884.772	22032
884.897	21987
885.023	21964
885.148	22185
885.274	22139
885.399	22124
885.524	22013
885.65	22124
885.775	22169
885.9	22181
886.025	22257
886.15	22112
886.275	22048
886.4	22006
886.525	21964
886.65	22074
886.775	22002
886.9	22101
887.025	22223
887.149	22078
887.274	21918
887.399	21975
887.523	21941
887.648	21835
887.773	21804
887.897	21987
888.021	21873
888.146	21812
888.27	21861
888.395	21865
888.519	21892
888.643	21804
888.767	21816
888.891	21732
889.015	21625
889.139	21599
889.263	21644
889.387	21880
889.511	21873
889.635	21781
889.759	21572
889.883	21568
890.006	21663
890.13	21679
890.254	21500
890.377	21530
890.501	21294
890.624	21355
890.748	21515
890.871	21298
890.995	21192
891.118	21131
891.241	21081
891.364	21233
891.488	21252
891.611	21180
891.734	21222
891.857	21131
891.98	21116
892.103	21313
892.226	21093
892.349	21104
892.471	20998
892.594	21116
892.717	21207
892.839	21039
892.962	21017
893.085	21116
893.207	21043
893.33	20929
893.452	20998
893.575	21146
893.697	20925
893.819	21249
893.941	21256
894.064	21123
894.186	20971
894.308	21039
894.43	21028
894.552	21176
894.674	21169
894.796	20811
894.918	21081
895.04	20979
895.161	21173
895.283	21066
895.405	20979
895.526	20994
895.648	21096
895.769	21085
895.891	21161
896.012	21028
896.134	21032
896.255	21093
896.376	20925
896.498	21157
896.619	20990
896.74	20929
896.861	21127
896.982	21313
897.103	21469
897.224	21256
897.345	21233
897.466	21096
897.587	21188
897.708	21397
897.828	21313
897.949	21127
898.07	21081
898.19	21070
898.311	21386
898.431	21230
898.552	21211
898.672	21298
898.792	21230
898.913	21218
899.033	21066
899.153	21047
899.273	20998
899.393	21017
899.513	21062
899.633	20902
899.753	20994
899.873	21013
899.993	20979
900.113	20918
900.232	20876
900.352	20941
900.472	20842
900.591	20746
900.711	20830
900.83	20655
900.95	20762
901.069	20765
901.189	20655
901.308	20343
901.427	20286
901.546	20309
901.665	20396
901.784	20328
901.904	20180
902.023	20050
902.141	19936
902.26	19833
902.379	19928
902.498	19841
902.617	19761
902.735	19803
902.854	19738
902.973	19799
903.091	19597
903.21	19499
903.328	19464
903.446	19464
903.565	19209
903.683	19263
903.801	19126
903.919	19194
904.038	19263
904.156	19004
904.274	19148
904.392	18897
904.51	18954
904.627	19103
904.745	19091
904.863	18977
904.981	18817
905.098	18703
905.216	18696
905.334	18764
905.451	18692
905.569	18677
905.686	18745
905.803	18703
905.921	18536
906.038	18521
906.155	18532
906.272	18395
906.389	18338
906.506	18194
906.623	18197
906.74	18289
906.857	18110
906.974	18213
907.091	18395
907.208	18407
907.324	18201
907.441	18201
907.557	17999
907.674	17961
907.79	17840
907.907	17908
908.023	17999
908.139	17969
908.256	17817
908.372	17783
908.488	17863
908.604	17661
908.72	17680
908.836	17733
908.952	17577
909.068	17532
909.184	17623
909.3	17653
909.415	17585
909.531	17573
909.647	17581
909.762	17414
909.878	17223
909.993	17410
910.108	17254
910.224	17273
910.339	17334
910.454	17147
910.57	17132
910.685	17052
910.8	17436
910.915	17231
911.03	17212
911.145	17022
911.259	16820
911.374	17045
911.489	16900
911.604	16748
911.718	16656
911.833	16698
911.947	16603
912.062	16550
912.176	16626
912.291	16687
912.405	16740
912.519	16797
912.633	16835
912.748	16801
912.862	16626
912.976	16527
913.09	16325
913.204	16443
913.318	16466
913.431	16470
913.545	16531
913.659	16577
913.772	16322
913.886	16333
914	16204
914.113	16413
914.226	16306
914.34	16265
914.453	16071
914.566	16356
914.68	16158
914.793	16010
914.906	15888
915.019	15964
915.132	15747
915.245	15895
915.358	15850
915.47	15842
915.583	15819
915.696	15797
915.809	15994
915.921	15869
916.034	15686
916.146	15694
916.259	15698
916.371	15785
916.483	15709
916.595	15724
916.708	15682
916.82	15637
916.932	15633
917.044	15572
917.156	15515
917.268	15496
917.38	15534
917.491	15428
917.603	15439
917.715	15542
917.826	15553
917.938	15374
918.049	15241
918.161	15355
918.272	15580
918.384	15584
918.495	15412
918.606	15203
918.717	15161
918.828	15291
918.939	15249
919.05	15066
919.161	15066
919.272	15051
919.383	15093
919.494	15184
919.604	15389
919.715	15214
919.826	15051
919.936	15161
920.047	15154
920.157	15241
920.267	15431
920.378	15230
920.488	15081
920.598	15268
920.708	15481
920.818	15370
920.928	15241
921.038	15382
921.148	15325
921.258	15173
921.368	15062
921.477	14941
921.587	14910
921.697	14777
921.806	14914
921.916	14697
922.025	14617
922.134	14590
922.244	14507
922.353	14507
922.462	14431
922.571	14180
922.68	14161
922.789	14123
922.898	14123
923.007	14096
923.116	14233
923.224	14103
923.333	14008
923.442	13909
923.55	13959
923.659	13921
923.767	14039
923.876	13959
923.984	14027
924.092	13814
924.201	13970
924.309	13879
924.417	13868
924.525	13811
924.633	13883
924.741	14735
924.849	13548
924.956	13746
925.064	13575
925.172	13502
925.279	13548
925.387	13548
925.494	13472
925.602	13636
925.709	13548
925.816	13449
925.924	13491
926.031	13613
926.138	13384
926.245	13567
926.352	13403
926.459	13537
926.566	13582
926.673	13434
926.779	13278
926.886	13259
926.993	13198
927.099	13091
927.206	13034
927.312	12993
927.419	13194
927.525	12996
927.631	12973
927.737	13027
927.843	12973
927.95	12791
928.056	12837
928.162	12817
928.267	12894
928.373	13506
928.479	12951
928.585	12753
928.69	12791
928.796	12875
928.901	12844
929.007	12631
929.112	12757
929.218	12593
929.323	12597
929.428	12662
929.533	12688
929.638	12547
929.743	12593
929.848	12642
929.953	12578
930.058	12441
930.163	12266
930.267	12194
930.372	12445
930.477	12197
930.581	12448
930.685	12262
930.79	12182
930.894	12133
930.998	12159
931.103	12243
931.207	11942
931.311	11794
931.415	11786
931.519	11505
931.623	11433
