Data from test_V78500241_1388.txt Node
Date: Fri Mar 25 15:51:24 CST 2022
User: usil
Spectrometer: V785-0024
Trigger mode: 0
Integration Time (sec): 4.000000E-1
Scans to average: 1
Nonlinearity correction enabled: false
Boxcar width: 0
Storing dark spectrum: false
XAxis mode: Wavelengths
Number of Pixels in Spectrum: 1024
>>>>>Begin Spectral Data<<<<<
801.071	28097
801.214	28070
801.356	27770
801.499	27679
801.641	27523
801.783	27580
801.926	27564
802.068	27675
802.211	27599
802.353	27393
802.496	27511
802.638	27218
802.78	27272
802.923	27195
803.065	27188
803.208	27207
803.35	27260
803.492	27367
803.635	27488
803.777	27230
803.919	27477
804.061	27717
804.204	27447
804.346	27424
804.488	27397
804.63	27382
804.773	27264
804.915	27408
805.057	27500
805.199	27473
805.341	27439
805.483	27648
805.626	27667
805.768	27549
805.91	27485
806.052	27762
806.194	27492
806.336	27679
806.478	27603
806.62	27641
806.762	27842
806.904	27850
807.046	28105
807.188	28101
807.33	28143
807.472	28055
807.614	27972
807.756	27918
807.898	27945
808.04	27835
808.182	27941
808.324	27964
808.465	28074
808.607	28051
808.749	28329
808.891	28280
809.033	28367
809.174	28265
809.316	28166
809.458	28230
809.6	28299
809.741	28417
809.883	28413
810.025	28455
810.166	28573
810.308	28546
810.45	28424
810.591	28375
810.733	28306
810.875	28242
811.016	28051
811.158	28097
811.299	28348
811.441	28390
811.582	28405
811.724	28128
811.865	28166
812.007	28230
812.148	28238
812.29	28276
812.431	28519
812.573	28641
812.714	28645
812.855	28668
812.997	28820
813.138	28866
813.279	28942
813.421	28729
813.562	28706
813.703	28622
813.845	28440
813.986	28215
814.127	27994
814.268	28048
814.41	28029
814.551	27914
814.692	28070
814.833	27899
814.974	27934
815.115	27911
815.256	27884
815.397	27876
815.539	27907
815.68	27770
815.821	27686
815.962	27739
816.103	27713
816.244	27614
816.385	27561
816.526	27606
816.666	27287
816.807	27226
816.948	27363
817.089	27443
817.23	27287
817.371	27264
817.512	27096
817.653	27272
817.793	27180
817.934	27195
818.075	27256
818.216	27233
818.356	27093
818.497	27207
818.638	26948
818.778	26899
818.919	27104
819.06	27055
819.2	27184
819.341	27138
819.481	27135
819.622	27374
819.762	27568
819.903	27549
820.043	27435
820.184	27348
820.324	27325
820.465	27435
820.605	27401
820.746	27317
820.886	27370
821.026	27424
821.167	27310
821.307	27405
821.447	27237
821.588	27165
821.728	27093
821.868	26868
822.008	26762
822.149	26705
822.289	26556
822.429	26526
822.569	26423
822.709	26339
822.849	26233
822.99	26210
823.13	26225
823.27	26202
823.41	25947
823.55	25852
823.69	26062
823.83	26035
823.97	26065
824.11	25791
824.25	25715
824.389	25830
824.529	25909
824.669	25909
824.809	25852
824.949	25856
825.089	25966
825.228	26065
825.368	25738
825.508	25651
825.648	25738
825.787	25708
825.927	25890
826.067	25491
826.206	25677
826.346	25655
826.485	25852
826.625	25727
826.765	25856
826.904	25795
827.044	25559
827.183	25521
827.323	25419
827.462	25537
827.601	25525
827.741	25441
827.88	25525
828.02	25350
828.159	25438
828.298	25552
828.437	25445
828.577	25441
828.716	25476
828.855	25441
828.994	25091
829.134	25148
829.273	25171
829.412	25266
829.551	25091
829.69	25103
829.829	25053
829.968	25304
830.107	25183
830.246	25194
830.385	25053
830.524	25034
830.663	25015
830.802	25004
830.941	24715
831.08	24719
831.219	24848
831.357	24890
831.496	25019
831.635	24840
831.774	24768
831.913	24642
832.051	24479
832.19	24661
832.329	24498
832.467	24414
832.606	24353
832.744	24422
832.883	24479
833.022	24422
833.16	24429
833.299	24445
833.437	24547
833.576	24429
833.714	24490
833.852	24544
833.991	24566
834.129	24525
834.267	24528
834.406	24445
834.544	24502
834.682	24414
834.821	24410
834.959	24673
835.097	24525
835.235	24437
835.373	24399
835.511	24532
835.65	24315
835.788	24304
835.926	24205
836.064	24232
836.202	24117
836.34	24372
836.478	24483
836.615	24334
836.753	24285
836.891	24380
837.029	24410
837.167	24220
837.305	24182
837.443	24247
837.58	24174
837.718	24235
837.856	24136
837.993	24030
838.131	24182
838.269	24121
838.406	24194
838.544	23996
838.681	23775
838.819	23901
838.956	23589
839.094	23596
839.231	23741
839.369	23798
839.506	24015
839.643	23802
839.781	23562
839.918	23516
840.055	23623
840.193	23520
840.33	23512
840.467	23474
840.604	23611
840.742	23798
840.879	23353
841.016	23524
841.153	23444
841.29	23687
841.427	23531
841.564	23497
841.701	23592
841.838	23490
841.975	23436
842.112	23387
842.249	23353
842.385	23337
842.522	23448
842.659	23406
842.796	23360
842.933	23459
843.069	23307
843.206	23326
843.343	23425
843.479	23242
843.616	23345
843.752	23060
843.889	22991
844.025	23204
844.162	23052
844.298	23197
844.435	23189
844.571	22991
844.708	23083
844.844	23159
844.98	23113
845.117	23231
845.253	23060
845.389	22938
845.525	23052
845.661	22896
845.798	22854
845.934	22938
846.07	22721
846.206	22923
846.342	22843
846.478	22717
846.614	22603
846.75	22607
846.886	22557
847.022	22527
847.158	22630
847.294	22584
847.429	22493
847.565	22500
847.701	22748
847.837	22246
847.972	22268
848.108	22428
848.244	22337
848.379	22188
848.515	22226
848.65	22063
848.786	22185
848.921	22063
849.057	22284
849.192	22253
849.328	22249
849.463	22177
849.598	22059
849.734	21975
849.869	21930
850.004	21838
850.14	21903
850.275	21911
850.41	21762
850.545	21800
850.68	21865
850.815	22048
850.95	21945
851.085	22010
851.22	22013
851.355	21888
851.49	21857
851.625	21755
851.76	21949
851.895	21751
852.03	21755
852.165	21953
852.299	21945
852.434	21994
852.569	21903
852.703	21774
852.838	21804
852.973	22128
853.107	22013
853.242	21838
853.376	21827
853.511	21614
853.645	21625
853.78	21789
853.914	21682
854.048	21747
854.183	21694
854.317	21694
854.451	21895
854.585	21739
854.72	21724
854.854	21747
854.988	21603
855.122	21686
855.256	21766
855.39	21759
855.524	21808
855.658	21850
855.792	21648
855.926	21709
856.06	21759
856.194	21797
856.327	21778
856.461	21595
856.595	21724
856.729	21682
856.862	21797
856.996	21827
857.13	21808
857.263	21759
857.397	21876
857.53	21759
857.664	21785
857.797	21755
857.931	22002
858.064	21667
858.197	21770
858.331	21778
858.464	21587
858.597	21454
858.731	21739
858.864	21561
858.997	21622
859.13	21724
859.263	21656
859.396	21861
859.529	21751
859.662	21648
859.795	21701
859.928	21694
860.061	21785
860.194	21926
860.327	21800
860.46	21804
860.592	21873
860.725	21842
860.858	21778
860.99	21804
861.123	21648
861.256	21622
861.388	21614
861.521	22398
861.653	21625
861.786	21557
861.918	21530
862.05	21583
862.183	21610
862.315	21603
862.447	21736
862.58	21591
862.712	21443
862.844	21310
862.976	21561
863.108	21473
863.24	21766
863.372	21374
863.504	21389
863.636	21382
863.768	21412
863.9	21370
864.032	21313
864.164	21408
864.296	21488
864.428	21458
864.559	21614
864.691	21447
864.823	21313
864.954	21428
865.086	21344
865.217	21367
865.349	21272
865.48	21310
865.612	21294
865.743	21382
865.875	21222
866.006	21241
866.137	21302
866.269	21378
866.4	21287
866.531	21275
866.662	21214
866.793	21340
866.924	21237
867.055	21279
867.186	21272
867.317	21176
867.448	21184
867.579	21237
867.71	21180
867.841	21161
867.972	21313
868.103	21249
868.233	21195
868.364	21313
868.495	21222
868.625	21389
868.756	21481
868.886	21500
869.017	21355
869.147	21568
869.278	21549
869.408	21504
869.539	21412
869.669	21549
869.799	21538
869.929	21747
870.06	21690
870.19	21785
870.32	21705
870.45	21953
870.58	21880
870.71	21960
870.84	21979
870.97	21793
871.1	21884
871.23	22078
871.36	22101
871.489	22036
871.619	22021
871.749	22074
871.879	22070
872.008	22139
872.138	22067
872.267	22116
872.397	21937
872.526	21895
872.656	21918
872.785	21911
872.915	22051
873.044	22280
873.173	22192
873.303	22150
873.432	22188
873.561	22204
873.69	22048
873.819	22242
873.948	22173
874.077	22143
874.206	22101
874.335	22135
874.464	22207
874.593	22348
874.722	22101
874.851	22329
874.979	22409
875.108	22333
875.237	22329
875.365	22287
875.494	22291
875.623	22398
875.751	22265
875.88	22322
876.008	22417
876.136	22523
876.265	22717
876.393	22843
876.521	22679
876.65	22820
876.778	22721
876.906	22683
877.034	22584
877.162	22816
877.29	22611
877.418	22615
877.546	22645
877.674	22538
877.802	22611
877.93	22691
878.058	22599
878.185	22637
878.313	22535
878.441	22599
878.568	22459
878.696	22649
878.824	22717
878.951	22752
879.079	22885
879.206	22923
879.333	22809
879.461	22744
879.588	22809
879.715	22748
879.842	22946
879.97	22752
880.097	22626
880.224	22481
880.351	22447
880.478	22512
880.605	22443
880.732	22561
880.859	22729
880.986	22413
881.112	22500
881.239	22363
881.366	22265
881.493	22086
881.619	21937
881.746	22086
881.872	22067
881.999	21991
882.125	21968
882.252	22006
882.378	22120
882.505	22040
882.631	21865
882.757	21808
882.883	21823
883.01	21800
883.136	21660
883.262	21637
883.388	21557
883.514	21720
883.64	21747
883.766	21732
883.892	21469
884.018	21682
884.143	21618
884.269	21865
884.395	21519
884.52	21351
884.646	21363
884.772	21298
884.897	21218
885.023	21424
885.148	21542
885.274	21591
885.399	21450
885.524	21408
885.65	21397
885.775	21325
885.9	21279
886.025	21572
886.15	21450
886.275	21374
886.4	21336
886.525	21401
886.65	21348
886.775	21230
886.9	21507
887.025	21572
887.149	21393
887.274	21211
887.399	21195
887.523	21298
887.648	21173
887.773	21005
887.897	21264
888.021	21226
888.146	21119
888.27	21135
888.395	21154
888.519	21192
888.643	21188
888.767	21184
888.891	21108
889.015	20785
889.139	21096
889.263	20868
889.387	21062
889.511	21142
889.635	21043
889.759	20937
889.883	20929
890.006	20967
890.13	21062
890.254	20883
890.377	20864
890.501	20697
890.624	20716
890.748	20746
890.871	20575
890.995	20457
891.118	20461
891.241	20537
891.364	20556
891.488	20735
891.611	20507
891.734	20609
891.857	20545
891.98	20514
892.103	20598
892.226	20408
892.349	20438
892.471	20355
892.594	20469
892.717	20488
892.839	20484
892.962	20549
893.085	20549
893.207	20533
893.33	20237
893.452	20366
893.575	20457
893.697	20244
893.819	20594
893.941	20613
894.064	20583
894.186	20427
894.308	20309
894.43	20492
894.552	20473
894.674	20530
894.796	20389
894.918	20427
895.04	20366
895.161	20484
895.283	20476
895.405	20366
895.526	20336
895.648	20488
895.769	20461
895.891	20450
896.012	20465
896.134	20393
896.255	20309
896.376	20301
896.498	20381
896.619	20446
896.74	20358
896.861	20396
896.982	20716
897.103	20883
897.224	20686
897.345	20686
897.466	20648
897.587	20587
897.708	20606
897.828	20651
897.949	20564
898.07	20374
898.19	20556
898.311	20701
898.431	20549
898.552	20598
898.672	20564
898.792	20564
898.913	20644
899.033	20549
899.153	20560
899.273	20282
899.393	20282
899.513	20389
899.633	20393
899.753	20377
899.873	20332
899.993	20415
900.113	20275
900.232	20259
900.352	20324
900.472	20218
900.591	20046
900.711	20199
900.83	20138
900.95	20237
901.069	20157
901.189	20020
901.308	19761
901.427	19750
901.546	19723
901.665	19757
901.784	19723
901.904	19590
902.023	19521
902.141	19396
902.26	19202
902.379	19415
902.498	19236
902.617	19327
902.735	19179
902.854	19263
902.973	19126
903.091	18989
903.21	18916
903.328	18909
903.446	18779
903.565	18658
903.683	18703
903.801	18551
903.919	18540
904.038	18738
904.156	18528
904.274	18696
904.392	18422
904.51	18361
904.627	18502
904.745	18448
904.863	18498
904.981	18205
905.098	18140
905.216	18091
905.334	18171
905.451	18178
905.569	18106
905.686	18068
905.803	18079
905.921	17980
906.038	18083
906.155	17954
906.272	17859
906.389	17847
906.506	17627
906.623	17737
906.74	17745
906.857	17501
906.974	17581
907.091	17737
907.208	17855
907.324	17657
907.441	17589
907.557	17349
907.674	17421
907.79	17410
907.907	17349
908.023	17535
908.139	17387
908.256	17258
908.372	17277
908.488	17296
908.604	17178
908.72	17045
908.836	17197
908.952	17079
909.068	17178
909.184	17261
909.3	17083
909.415	17079
909.531	17048
909.647	16805
909.762	16839
909.878	16797
909.993	16850
910.108	16710
910.224	16748
910.339	16721
910.454	16717
910.57	16577
910.685	16440
910.8	16717
910.915	16736
911.03	16653
911.145	16440
911.259	16432
911.374	16440
911.489	16249
911.604	16204
911.718	16173
911.833	16063
911.947	16025
912.062	16074
912.176	16097
912.291	16097
912.405	16158
912.519	16318
912.633	16257
912.748	16154
912.862	16074
912.976	15857
913.09	15888
913.204	15880
913.318	15930
913.431	16051
913.545	15975
913.659	16059
913.772	15899
913.886	15751
914	15732
914.113	15838
914.226	15812
914.34	15869
914.453	15614
914.566	15766
914.68	15675
914.793	15545
914.906	15359
915.019	15321
915.132	15279
915.245	15344
915.358	15359
915.47	15348
915.583	15374
915.696	15336
915.809	15336
915.921	15370
916.034	15389
916.146	15233
916.259	15241
916.371	15256
916.483	15260
916.595	15135
916.708	15218
916.82	15161
916.932	15097
917.044	15142
917.156	15070
917.268	14998
917.38	15039
917.491	14956
917.603	15028
917.715	15017
917.826	15032
917.938	14899
918.049	14857
918.161	14975
918.272	15127
918.384	15112
918.495	14857
918.606	14838
918.717	14792
918.828	14724
918.939	14921
919.05	14632
919.161	14712
919.272	14507
919.383	14621
919.494	14720
919.604	14906
919.715	14720
919.826	14629
919.936	14682
920.047	14811
920.157	14735
920.267	14834
920.378	14697
920.488	14678
920.598	14887
920.708	15055
920.818	14842
920.928	14769
921.038	14971
921.148	14982
921.258	14686
921.368	14530
921.477	14537
921.587	14492
921.697	14343
921.806	14415
921.916	14309
922.025	14172
922.134	14065
922.244	14058
922.353	14107
922.462	13944
922.571	13925
922.68	13723
922.789	13700
922.898	13761
923.007	13639
923.116	13765
923.224	13605
923.333	13700
923.442	13575
923.55	13529
923.659	13616
923.767	13674
923.876	13540
923.984	13533
924.092	13472
924.201	13491
924.309	13483
924.417	13415
924.525	13293
924.633	13449
924.741	14142
924.849	13168
924.956	13304
925.064	13175
925.172	13110
925.279	13099
925.387	13118
925.494	13213
925.602	13346
925.709	13221
925.816	13088
925.924	13053
926.031	13122
926.138	13168
926.245	13103
926.352	13015
926.459	13152
926.566	13137
926.673	12970
926.779	12848
926.886	12924
926.993	12795
927.099	12715
927.206	12684
927.312	12635
927.419	12726
927.525	12700
927.631	12620
927.737	12547
927.843	12479
927.95	12429
928.056	12536
928.162	12544
928.267	12551
928.373	13175
928.479	12578
928.585	12308
928.69	12467
928.796	12494
928.901	12372
929.007	12281
929.112	12350
929.218	12350
929.323	12319
929.428	12224
929.533	12330
929.638	12194
929.743	12144
929.848	12178
929.953	12205
930.058	12030
930.163	11870
930.267	11939
930.372	12038
930.477	11847
930.581	12076
930.685	11965
930.79	11870
930.894	11798
930.998	11767
931.103	11901
931.207	11566
931.311	11486
931.415	11391
931.519	11181
931.623	11174
