Data from test_V78500241_1124.txt Node
Date: Fri Mar 25 15:49:35 CST 2022
User: usil
Spectrometer: V785-0024
Trigger mode: 0
Integration Time (sec): 4.000000E-1
Scans to average: 1
Nonlinearity correction enabled: false
Boxcar width: 0
Storing dark spectrum: false
XAxis mode: Wavelengths
Number of Pixels in Spectrum: 1024
>>>>>Begin Spectral Data<<<<<
801.071	28809
801.214	28645
801.356	28630
801.499	28497
801.641	28329
801.783	28291
801.926	28451
802.068	28409
802.211	28318
802.353	28200
802.496	28242
802.638	28021
802.78	28097
802.923	27964
803.065	27926
803.208	27987
803.35	28124
803.492	28261
803.635	28356
803.777	28040
803.919	28325
804.061	28626
804.204	28390
804.346	28086
804.488	28280
804.63	28314
804.773	28325
804.915	28272
805.057	28348
805.199	28173
805.341	28382
805.483	28455
805.626	28432
805.768	28325
805.91	28440
806.052	28413
806.194	28341
806.336	28679
806.478	28527
806.62	28656
806.762	28557
806.904	28896
807.046	28968
807.188	28828
807.33	28915
807.472	28786
807.614	28995
807.756	28862
807.898	28698
808.04	28820
808.182	28653
808.324	28748
808.465	28892
808.607	29071
808.749	29143
808.891	29284
809.033	29220
809.174	29170
809.316	29094
809.458	29102
809.6	29071
809.741	29170
809.883	29375
810.025	29395
810.166	29398
810.308	29395
810.45	29463
810.591	29364
810.733	29375
810.875	29280
811.016	29136
811.158	29113
811.299	29288
811.441	29391
811.582	29444
811.724	29273
811.865	29071
812.007	29181
812.148	29162
812.29	29375
812.431	29341
812.573	29585
812.714	29611
812.855	29786
812.997	29923
813.138	29923
813.279	29965
813.421	29862
813.562	29615
813.703	29596
813.845	29341
813.986	29181
814.127	28995
814.268	29060
814.41	28965
814.551	28900
814.692	29029
814.833	28873
814.974	28744
815.115	28797
815.256	28736
815.397	28877
815.539	28797
815.68	28603
815.821	28755
815.962	28645
816.103	28664
816.244	28542
816.385	28577
816.526	28344
816.666	28158
816.807	28325
816.948	28226
817.089	28223
817.23	28249
817.371	28291
817.512	28169
817.653	28242
817.793	28059
817.934	28162
818.075	28166
818.216	28291
818.356	28188
818.497	28223
818.638	28044
818.778	27899
818.919	28116
819.06	28082
819.2	28257
819.341	28135
819.481	28219
819.622	28417
819.762	28584
819.903	28519
820.043	28493
820.184	28405
820.324	28303
820.465	28314
820.605	28314
820.746	28287
820.886	28249
821.026	28322
821.167	28356
821.307	28481
821.447	28291
821.588	28188
821.728	27975
821.868	28147
822.008	27705
822.149	27667
822.289	27667
822.429	27389
822.569	27367
822.709	27469
822.849	27287
822.99	27344
823.13	27279
823.27	27085
823.41	27119
823.55	27058
823.69	27116
823.83	27180
823.97	27066
824.11	26864
824.25	26979
824.389	26830
824.529	26933
824.669	26937
824.809	27058
824.949	26952
825.089	26937
825.228	27142
825.368	26727
825.508	26906
825.648	26842
825.787	26849
825.927	26826
826.067	26754
826.206	26891
826.346	26891
826.485	26944
826.625	26545
826.765	26876
826.904	26876
827.044	26446
827.183	26560
827.323	26484
827.462	26598
827.601	26457
827.741	26507
827.88	26503
828.02	26377
828.159	26412
828.298	26526
828.437	26518
828.577	26511
828.716	26636
828.855	26358
828.994	26134
829.134	26073
829.273	26355
829.412	26126
829.551	26054
829.69	26195
829.829	26172
829.968	26385
830.107	26073
830.246	26065
830.385	26100
830.524	26187
830.663	25955
830.802	25951
830.941	25925
831.08	25871
831.219	25909
831.357	26001
831.496	25974
831.635	25852
831.774	25704
831.913	25693
832.051	25655
832.19	25628
832.329	25552
832.467	25510
832.606	25396
832.744	25419
832.883	25438
833.022	25400
833.16	25537
833.299	25483
833.437	25594
833.576	25578
833.714	25563
833.852	25586
833.991	25651
834.129	25613
834.267	25628
834.406	25449
834.544	25594
834.682	25590
834.821	25457
834.959	25723
835.097	25362
835.235	25548
835.373	25582
835.511	25388
835.65	25525
835.788	25293
835.926	25285
836.064	25179
836.202	25187
836.34	25392
836.478	25392
836.615	25289
836.753	25244
836.891	25438
837.029	25445
837.167	25339
837.305	25331
837.443	25213
837.58	25270
837.718	25270
837.856	25148
837.993	25072
838.131	25103
838.269	25046
838.406	25145
838.544	25046
838.681	24989
838.819	24779
838.956	24703
839.094	24582
839.231	24665
839.369	24867
839.506	24943
839.643	24867
839.781	24677
839.918	24711
840.055	24635
840.193	24669
840.33	24597
840.467	24654
840.604	24582
840.742	24734
840.879	24445
841.016	24490
841.153	24372
841.29	24528
841.427	24559
841.564	24627
841.701	24669
841.838	24540
841.975	24380
842.112	24460
842.249	24414
842.385	24216
842.522	24479
842.659	24456
842.796	24178
842.933	24270
843.069	24171
843.206	24308
843.343	24258
843.479	24311
843.616	24350
843.752	24121
843.889	24159
844.025	24121
844.162	24041
844.298	24148
844.435	24026
844.571	24057
844.708	24140
844.844	24232
844.98	24213
845.117	24129
845.253	23961
845.389	23958
845.525	23935
845.661	23980
845.798	23798
845.934	23965
846.07	23737
846.206	23874
846.342	23805
846.478	23775
846.614	23581
846.75	23463
846.886	23493
847.022	23638
847.158	23410
847.294	23478
847.429	23501
847.565	23554
847.701	23691
847.837	23376
847.972	23181
848.108	23353
848.244	23345
848.379	23166
848.515	23094
848.65	23052
848.786	23178
848.921	23178
849.057	23258
849.192	23185
849.328	23121
849.463	23105
849.598	22999
849.734	22965
849.869	22980
850.004	22938
850.14	22923
850.275	22850
850.41	22683
850.545	22748
850.68	22759
850.815	22942
850.95	22942
851.085	23098
851.22	23018
851.355	22919
851.49	22900
851.625	22904
851.76	22919
851.895	22877
852.03	22850
852.165	22949
852.299	22812
852.434	22976
852.569	22847
852.703	22862
852.838	22885
852.973	22976
853.107	22991
853.242	22816
853.376	22687
853.511	22546
853.645	22634
853.78	22729
853.914	22752
854.048	22793
854.183	22694
854.317	22725
854.451	22885
854.585	22622
854.72	22656
854.854	22752
854.988	22561
855.122	22721
855.256	22485
855.39	22710
855.524	22675
855.658	22763
855.792	22774
855.926	22740
856.06	22763
856.194	22896
856.327	22622
856.461	22622
856.595	22588
856.729	22713
856.862	22847
856.996	22809
857.13	22634
857.263	22752
857.397	22744
857.53	22679
857.664	22752
857.797	22816
857.931	22797
858.064	22736
858.197	22748
858.331	22733
858.464	22634
858.597	22489
858.731	22713
858.864	22668
858.997	22538
859.13	22767
859.263	22687
859.396	22755
859.529	22717
859.662	22653
859.795	22573
859.928	22774
860.061	22786
860.194	22824
860.327	22691
860.46	22668
860.592	22679
860.725	22847
860.858	22774
860.99	22668
861.123	22577
861.256	22516
861.388	22645
861.521	23337
861.653	22618
861.786	22573
861.918	22478
862.05	22516
862.183	22565
862.315	22550
862.447	22660
862.58	22634
862.712	22382
862.844	22527
862.976	22512
863.108	22523
863.24	22774
863.372	22219
863.504	22455
863.636	22367
863.768	22379
863.9	22363
864.032	22325
864.164	22405
864.296	22409
864.428	22470
864.559	22497
864.691	22440
864.823	22447
864.954	22310
865.086	22299
865.217	22272
865.349	22078
865.48	22192
865.612	22287
865.743	22489
865.875	22287
866.006	22291
866.137	22363
866.269	22246
866.4	22284
866.531	22181
866.662	22101
866.793	22207
866.924	22196
867.055	22219
867.186	22196
867.317	22169
867.448	22135
867.579	22128
867.71	22204
867.841	22128
867.972	22185
868.103	22112
868.233	22226
868.364	22215
868.495	22226
868.625	22390
868.756	22546
868.886	22253
869.017	22360
869.147	22542
869.278	22637
869.408	22443
869.539	22413
869.669	22440
869.799	22466
869.929	22508
870.06	22557
870.19	22740
870.32	22717
870.45	22839
870.58	22843
870.71	22900
870.84	22858
870.97	22919
871.1	22915
871.23	22930
871.36	22957
871.489	22919
871.619	22900
871.749	23044
871.879	23147
872.008	23159
872.138	22980
872.267	22972
872.397	22904
872.526	22843
872.656	22908
872.785	22790
872.915	22946
873.044	23162
873.173	23056
873.303	23025
873.432	23166
873.561	23121
873.69	23048
873.819	23079
873.948	23018
874.077	23128
874.206	23006
874.335	22889
874.464	23006
874.593	23136
874.722	23216
874.851	23254
874.979	23296
875.108	23330
875.237	23242
875.365	23113
875.494	23265
875.623	23288
875.751	23246
875.88	23178
876.008	23265
876.136	23402
876.265	23714
876.393	23863
876.521	23790
876.65	23790
876.778	23634
876.906	23528
877.034	23562
877.162	23520
877.29	23554
877.418	23589
877.546	23638
877.674	23528
877.802	23592
877.93	23463
878.058	23444
878.185	23307
878.313	23474
878.441	23577
878.568	23490
878.696	23520
878.824	23520
878.951	23687
879.079	23760
879.206	24015
879.333	23783
879.461	23573
879.588	23611
879.715	23737
879.842	24003
879.97	23585
880.097	23414
880.224	23379
880.351	23490
880.478	23345
880.605	23353
880.732	23395
880.859	23615
880.986	23364
881.112	23379
881.239	23239
881.366	22961
881.493	23010
881.619	22934
881.746	22965
881.872	23029
881.999	23037
882.125	22995
882.252	22972
882.378	23006
882.505	23003
882.631	22736
882.757	22573
882.883	22599
883.01	22641
883.136	22634
883.262	22443
883.388	22489
883.514	22710
883.64	22527
883.766	22497
883.892	22386
884.018	22405
884.143	22656
884.269	22637
884.395	22409
884.52	22223
884.646	22257
884.772	22181
884.897	22055
885.023	22352
885.148	22272
885.274	22447
885.399	22443
885.524	22124
885.65	22219
885.775	22295
885.9	22158
886.025	22204
886.15	22375
886.275	22162
886.4	22143
886.525	22219
886.65	22158
886.775	22112
886.9	22341
887.025	22436
887.149	22211
887.274	22112
887.399	22021
887.523	22044
887.648	22040
887.773	22002
887.897	21979
888.021	22055
888.146	21972
888.27	22032
888.395	22173
888.519	21960
888.643	22006
888.767	21998
888.891	21930
889.015	21835
889.139	21838
889.263	21705
889.387	21812
889.511	22017
889.635	21911
889.759	21804
889.883	21774
890.006	21819
890.13	21838
890.254	21739
890.377	21819
890.501	21572
890.624	21530
890.748	21580
890.871	21412
890.995	21310
891.118	21260
891.241	21313
891.364	21348
891.488	21378
891.611	21325
891.734	21420
891.857	21294
891.98	21355
892.103	21260
892.226	21431
892.349	21233
892.471	21055
892.594	21268
892.717	21302
892.839	21283
892.962	21112
893.085	21226
893.207	21188
893.33	21119
893.452	21074
893.575	21207
893.697	21157
893.819	21203
893.941	21408
894.064	21428
894.186	21093
894.308	21192
894.43	21222
894.552	21344
894.674	21237
894.796	21173
894.918	21173
895.04	21066
895.161	21351
895.283	21226
895.405	21116
895.526	21252
895.648	21287
895.769	21169
895.891	21325
896.012	21302
896.134	21157
896.255	21230
896.376	21108
896.498	21188
896.619	21188
896.74	21123
896.861	21359
896.982	21523
897.103	21682
897.224	21496
897.345	21450
897.466	21310
897.587	21466
897.708	21656
897.828	21428
897.949	21408
898.07	21230
898.19	21336
898.311	21591
898.431	21302
898.552	21317
898.672	21431
898.792	21386
898.913	21450
899.033	21207
899.153	21214
899.273	21096
899.393	21161
899.513	21112
899.633	21077
899.753	21169
899.873	21024
899.993	21077
900.113	21131
900.232	21112
900.352	20994
900.472	20979
900.591	20754
900.711	21066
900.83	20826
900.95	21020
901.069	20937
901.189	20815
901.308	20457
901.427	20336
901.546	20431
901.665	20389
901.784	20442
901.904	20221
902.023	20259
902.141	20084
902.26	19947
902.379	20024
902.498	19868
902.617	19887
902.735	20039
902.854	19959
902.973	19864
903.091	19635
903.21	19609
903.328	19662
903.446	19525
903.565	19476
903.683	19396
903.801	19278
903.919	19384
904.038	19236
904.156	19194
904.274	19266
904.392	19129
904.51	19015
904.627	19225
904.745	19225
904.863	19187
904.981	18993
905.098	18863
905.216	18791
905.334	18886
905.451	18852
905.569	18772
905.686	18886
905.803	18787
905.921	18658
906.038	18677
906.155	18608
906.272	18559
906.389	18544
906.506	18308
906.623	18365
906.74	18448
906.857	18251
906.974	18247
907.091	18483
907.208	18506
907.324	18388
907.441	18232
907.557	18053
907.674	18144
907.79	18068
907.907	17950
908.023	18053
908.139	18026
908.256	18019
908.372	17939
908.488	18060
908.604	17783
908.72	17718
908.836	17813
908.952	17748
909.068	17714
909.184	17897
909.3	17741
909.415	17726
909.531	17809
909.647	17383
909.762	17482
909.878	17406
909.993	17478
910.108	17387
910.224	17478
910.339	17474
910.454	17387
910.57	17193
910.685	17159
910.8	17474
910.915	17482
911.03	17284
911.145	17086
911.259	17014
911.374	17060
911.489	16915
911.604	16904
911.718	16820
911.833	16771
911.947	16694
912.062	16611
912.176	16816
912.291	16771
912.405	16900
912.519	16972
912.633	16927
912.748	16733
912.862	16759
912.976	16660
913.09	16599
913.204	16599
913.318	16603
913.431	16573
913.545	16672
913.659	16736
913.772	16546
913.886	16451
914	16440
914.113	16519
914.226	16500
914.34	16466
914.453	16299
914.566	16405
914.68	16371
914.793	16207
914.906	16013
915.019	15945
915.132	15934
915.245	15964
915.358	15991
915.47	15953
915.583	15899
915.696	16032
915.809	16048
915.921	16105
916.034	15979
916.146	15831
916.259	15819
916.371	15991
916.483	15903
916.595	15823
916.708	15694
916.82	15751
916.932	15732
917.044	15781
917.156	15641
917.268	15622
917.38	15663
917.491	15542
917.603	15644
917.715	15572
917.826	15599
917.938	15500
918.049	15466
918.161	15530
918.272	15622
918.384	15637
918.495	15473
918.606	15439
918.717	15184
918.828	15302
918.939	15287
919.05	15256
919.161	15310
919.272	15116
919.383	15230
919.494	15298
919.604	15458
919.715	15329
919.826	15138
919.936	15245
920.047	15443
920.157	15226
920.267	15313
920.378	15306
920.488	15294
920.598	15435
920.708	15511
920.818	15340
920.928	15355
921.038	15561
921.148	15492
921.258	15127
921.368	15089
921.477	15066
921.587	14906
921.697	14769
921.806	14921
921.916	14727
922.025	14689
922.134	14667
922.244	14511
922.353	14640
922.462	14503
922.571	14389
922.68	14324
922.789	14317
922.898	14233
923.007	14267
923.116	14271
923.224	14214
923.333	14225
923.442	14069
923.55	14134
923.659	14069
923.767	14164
923.876	13986
923.984	14039
924.092	13925
924.201	13997
924.309	14027
924.417	13951
924.525	13898
924.633	13928
924.741	14602
924.849	13795
924.956	13807
925.064	13647
925.172	13578
925.279	13624
925.387	13655
925.494	13628
925.602	13643
925.709	13636
925.816	13521
925.924	13590
926.031	13662
926.138	13632
926.245	13689
926.352	13411
926.459	13677
926.566	13586
926.673	13499
926.779	13430
926.886	13362
926.993	13133
927.099	13240
927.206	13076
927.312	13141
927.419	13175
927.525	13118
927.631	13187
927.737	13069
927.843	12993
927.95	12920
928.056	12973
928.162	13031
928.267	13076
928.373	13609
928.479	13046
928.585	12753
928.69	12977
928.796	12962
928.901	12916
929.007	12703
929.112	12817
929.218	12829
929.323	12722
929.428	12707
929.533	12764
929.638	12528
929.743	12589
929.848	12677
929.953	12719
930.058	12528
930.163	12289
930.267	12361
930.372	12456
930.477	12330
930.581	12479
930.685	12460
930.79	12201
930.894	12270
930.998	12224
931.103	12388
931.207	11980
931.311	11855
931.415	11737
931.519	11573
931.623	11611
