Data from test_V78500241_578.txt Node
Date: Fri Mar 25 15:45:48 CST 2022
User: usil
Spectrometer: V785-0024
Trigger mode: 0
Integration Time (sec): 4.000000E-1
Scans to average: 1
Nonlinearity correction enabled: false
Boxcar width: 0
Storing dark spectrum: false
XAxis mode: Wavelengths
Number of Pixels in Spectrum: 1024
>>>>>Begin Spectral Data<<<<<
801.071	27583
801.214	27755
801.356	27325
801.499	27317
801.641	27241
801.783	27283
801.926	27405
802.068	27108
802.211	27085
802.353	27070
802.496	26918
802.638	26914
802.78	26785
802.923	26788
803.065	26842
803.208	26731
803.35	26857
803.492	26887
803.635	27036
803.777	26925
803.919	27138
804.061	27252
804.204	26982
804.346	26940
804.488	26872
804.63	26914
804.773	26979
804.915	27017
805.057	27089
805.199	27077
805.341	27062
805.483	27131
805.626	27173
805.768	27074
805.91	27218
806.052	27195
806.194	27020
806.336	27241
806.478	27112
806.62	27081
806.762	27222
806.904	27397
807.046	27675
807.188	27622
807.33	27519
807.472	27652
807.614	27317
807.756	27450
807.898	27416
808.04	27336
808.182	27378
808.324	27507
808.465	27443
808.607	27625
808.749	27701
808.891	27724
809.033	28116
809.174	27812
809.316	27751
809.458	27808
809.6	27838
809.741	27895
809.883	28006
810.025	27918
810.166	28051
810.308	28006
810.45	27888
810.591	27964
810.733	27701
810.875	27705
811.016	27717
811.158	27686
811.299	27724
811.441	27918
811.582	27846
811.724	27660
811.865	27804
812.007	27739
812.148	27663
812.29	27888
812.431	27751
812.573	28253
812.714	28086
812.855	28299
812.997	28447
813.138	28462
813.279	28451
813.421	28356
813.562	28166
813.703	28169
813.845	28029
813.986	27641
814.127	27519
814.268	27439
814.41	27462
814.551	27348
814.692	27610
814.833	27477
814.974	27317
815.115	27557
815.256	27340
815.397	27427
815.539	27370
815.68	27268
815.821	27104
815.962	27142
816.103	27211
816.244	27252
816.385	27055
816.526	27074
816.666	26845
816.807	26708
816.948	26830
817.089	26982
817.23	26537
817.371	26746
817.512	26739
817.653	26648
817.793	26659
817.934	26876
818.075	26720
818.216	26667
818.356	26716
818.497	26522
818.638	26408
818.778	26473
818.919	26366
819.06	26560
819.2	26705
819.341	26746
819.481	26712
819.622	26944
819.762	27074
819.903	26979
820.043	26933
820.184	26883
820.324	26868
820.465	26960
820.605	26895
820.746	26731
820.886	26644
821.026	26811
821.167	26883
821.307	26933
821.447	26796
821.588	26750
821.728	26488
821.868	26389
822.008	26069
822.149	26168
822.289	26149
822.429	25913
822.569	25852
822.709	25731
822.849	25746
822.99	25765
823.13	25689
823.27	25677
823.41	25567
823.55	25388
823.69	25518
823.83	25563
823.97	25369
824.11	25377
824.25	25308
824.389	25327
824.529	25430
824.669	25266
824.809	25499
824.949	25502
825.089	25487
825.228	25312
825.368	25168
825.508	25148
825.648	25168
825.787	25137
825.927	25381
826.067	25133
826.206	25141
826.346	25217
826.485	25069
826.625	25133
826.765	25190
826.904	25213
827.044	25015
827.183	25061
827.323	24905
827.462	24848
827.601	24894
827.741	24886
827.88	25019
828.02	24897
828.159	24856
828.298	24951
828.437	24875
828.577	24856
828.716	24943
828.855	24829
828.994	24688
829.134	24639
829.273	24681
829.412	24513
829.551	24574
829.69	24585
829.829	24555
829.968	24665
830.107	24760
830.246	24597
830.385	24517
830.524	24509
830.663	24388
830.802	24346
830.941	24087
831.08	24163
831.219	24300
831.357	24353
831.496	24414
831.635	24159
831.774	24026
831.913	24045
832.051	24076
832.19	24106
832.329	23920
832.467	23992
832.606	23866
832.744	23817
832.883	23817
833.022	23885
833.16	23863
833.299	23939
833.437	23912
833.576	23961
833.714	23923
833.852	23912
833.991	24018
834.129	24011
834.267	24049
834.406	23889
834.544	24068
834.682	23859
834.821	23965
834.959	24003
835.097	23813
835.235	23954
835.373	24015
835.511	23912
835.65	23775
835.788	23863
835.926	23604
836.064	23672
836.202	23547
836.34	23805
836.478	23874
836.615	23817
836.753	23847
836.891	23824
837.029	23756
837.167	23714
837.305	23718
837.443	23672
837.58	23589
837.718	23710
837.856	23672
837.993	23726
838.131	23539
838.269	23452
838.406	23448
838.544	23471
838.681	23330
838.819	23235
838.956	23208
839.094	23037
839.231	23090
839.369	23200
839.506	23528
839.643	23398
839.781	23105
839.918	23010
840.055	23037
840.193	23037
840.33	23056
840.467	23010
840.604	23094
840.742	23398
840.879	22873
841.016	22927
841.153	22942
841.29	23128
841.427	22987
841.564	23060
841.701	22999
841.838	23033
841.975	22889
842.112	22965
842.249	22911
842.385	22729
842.522	23006
842.659	22908
842.796	22771
842.933	22710
843.069	22580
843.206	22698
843.343	22782
843.479	22588
843.616	22660
843.752	22630
843.889	22649
844.025	22634
844.162	22390
844.298	22542
844.435	22519
844.571	22656
844.708	22546
844.844	22664
844.98	22717
845.117	22683
845.253	22637
845.389	22405
845.525	22398
845.661	22371
845.798	22291
845.934	22344
846.07	22329
846.206	22265
846.342	22485
846.478	22238
846.614	22036
846.75	21911
846.886	21876
847.022	22139
847.158	22036
847.294	22029
847.429	22082
847.565	22006
847.701	22120
847.837	21800
847.972	21854
848.108	21736
848.244	21827
848.379	21709
848.515	21580
848.65	21671
848.786	21622
848.921	21648
849.057	21641
849.192	21717
849.328	21603
849.463	21450
849.598	21599
849.734	21492
849.869	21473
850.004	21332
850.14	21329
850.275	21393
850.41	21313
850.545	21363
850.68	21287
850.815	21348
850.95	21329
851.085	21545
851.22	21450
851.355	21424
851.49	21340
851.625	21279
851.76	21420
851.895	21298
852.03	21245
852.165	21291
852.299	21374
852.434	21367
852.569	21443
852.703	21397
852.838	21576
852.973	21534
853.107	21485
853.242	21317
853.376	21252
853.511	21047
853.645	21173
853.78	21344
853.914	21230
854.048	21207
854.183	21165
854.317	21245
854.451	21268
854.585	21146
854.72	21268
854.854	21222
854.988	21146
855.122	21096
855.256	20994
855.39	21051
855.524	21256
855.658	21268
855.792	21275
855.926	21195
856.06	21264
856.194	21287
856.327	21173
856.461	21154
856.595	21184
856.729	21119
856.862	21386
856.996	21218
857.13	21230
857.263	21298
857.397	21214
857.53	21157
857.664	21230
857.797	21321
857.931	21268
858.064	21199
858.197	21256
858.331	21100
858.464	21085
858.597	21005
858.731	21127
858.864	21157
858.997	21161
859.13	21169
859.263	21154
859.396	21317
859.529	21138
859.662	21104
859.795	21104
859.928	21104
860.061	21245
860.194	21264
860.327	21272
860.46	21203
860.592	21291
860.725	21359
860.858	21321
860.99	21161
861.123	21051
861.256	21131
861.388	21093
861.521	21724
861.653	21154
861.786	20982
861.918	20948
862.05	21108
862.183	21051
862.315	21062
862.447	21081
862.58	21081
862.712	20994
862.844	20876
862.976	20929
863.108	20834
863.24	21291
863.372	20902
863.504	20876
863.636	20979
863.768	20933
863.9	20979
864.032	20910
864.164	20773
864.296	20956
864.428	21005
864.559	20990
864.691	21013
864.823	20914
864.954	20925
865.086	20899
865.217	20788
865.349	20777
865.48	20754
865.612	20815
865.743	20872
865.875	20777
866.006	20800
866.137	20883
866.269	20826
866.4	20868
866.531	20872
866.662	20564
866.793	20743
866.924	20857
867.055	20739
867.186	20735
867.317	20636
867.448	20575
867.579	20743
867.71	20564
867.841	20617
867.972	20765
868.103	20716
868.233	20712
868.364	20765
868.495	20762
868.625	20880
868.756	20960
868.886	20944
869.017	21005
869.147	21039
869.278	21055
869.408	20887
869.539	20967
869.669	20986
869.799	21058
869.929	21036
870.06	21093
870.19	21241
870.32	21237
870.45	21344
870.58	21252
870.71	21424
870.84	21420
870.97	21370
871.1	21378
871.23	21526
871.36	21576
871.489	21443
871.619	21534
871.749	21530
871.879	21652
872.008	21679
872.138	21515
872.267	21564
872.397	21401
872.526	21401
872.656	21408
872.785	21367
872.915	21500
873.044	21610
873.173	21515
873.303	21618
873.432	21724
873.561	21686
873.69	21675
873.819	21549
873.948	21663
874.077	21622
874.206	21671
874.335	21500
874.464	21667
874.593	21956
874.722	21827
874.851	21823
874.979	21797
875.108	21808
875.237	21960
875.365	21720
875.494	21797
875.623	21895
875.751	21838
875.88	21915
876.008	21972
876.136	22006
876.265	22147
876.393	22402
876.521	22337
876.65	22284
876.778	22230
876.906	22162
877.034	22158
877.162	22196
877.29	22090
877.418	22147
877.546	22139
877.674	22242
877.802	22097
877.93	22181
878.058	22131
878.185	22055
878.313	22124
878.441	22166
878.568	21918
878.696	22097
878.824	22097
878.951	22299
879.079	22306
879.206	22481
879.333	22360
879.461	22257
879.588	22303
879.715	22360
879.842	22363
879.97	22242
880.097	21880
880.224	21964
880.351	22040
880.478	22048
880.605	21880
880.732	22093
880.859	22409
880.986	21934
881.112	21964
881.239	21899
881.366	21743
881.493	21667
881.619	21652
881.746	21671
881.872	21431
881.999	21526
882.125	21477
882.252	21492
882.378	21667
882.505	21679
882.631	21428
882.757	21332
882.883	21306
883.01	21355
883.136	21325
883.262	21195
883.388	20979
883.514	21294
883.64	21405
883.766	21100
883.892	21055
884.018	21119
884.143	21275
884.269	21355
884.395	20944
884.52	20887
884.646	20883
884.772	20804
884.897	20861
885.023	20971
885.148	20998
885.274	20906
885.399	20929
885.524	20826
885.65	20880
885.775	20883
885.9	21009
886.025	20914
886.15	20925
886.275	20899
886.4	20857
886.525	20834
886.65	20864
886.775	20883
886.9	21051
887.025	21127
887.149	20804
887.274	20724
887.399	20659
887.523	20743
887.648	20495
887.773	20629
887.897	20842
888.021	20796
888.146	20716
888.27	20754
888.395	20826
888.519	20910
888.643	20746
888.767	20769
888.891	20556
889.015	20583
889.139	20564
889.263	20511
889.387	20533
889.511	20834
889.635	20602
889.759	20492
889.883	20609
890.006	20526
890.13	20537
890.254	20446
890.377	20415
890.501	20294
890.624	20339
890.748	20271
890.871	20202
890.995	20142
891.118	20043
891.241	20153
891.364	20096
891.488	20267
891.611	20096
891.734	20088
891.857	20199
891.98	20122
892.103	20115
892.226	20103
892.349	20073
892.471	19856
892.594	19963
892.717	19989
892.839	19978
892.962	19932
893.085	19986
893.207	20046
893.33	19860
893.452	19932
893.575	20050
893.697	19944
893.819	20263
893.941	20195
894.064	20081
894.186	20016
894.308	19864
894.43	20008
894.552	20157
894.674	20069
894.796	19997
894.918	19997
895.04	19917
895.161	20088
895.283	19997
895.405	19875
895.526	20005
895.648	19917
895.769	19955
895.891	20065
896.012	20020
896.134	19989
896.255	20054
896.376	19947
896.498	19902
896.619	20119
896.74	20073
896.861	20054
896.982	20248
897.103	20606
897.224	20286
897.345	20168
897.466	20248
897.587	20218
897.708	20191
897.828	20347
897.949	20282
898.07	19986
898.19	20237
898.311	20282
898.431	20142
898.552	20126
898.672	20294
898.792	20286
898.913	20301
899.033	20172
899.153	20020
899.273	19955
899.393	19932
899.513	20046
899.633	19902
899.753	20039
899.873	19909
899.993	19959
900.113	19997
900.232	19951
900.352	19963
900.472	19841
900.591	19769
900.711	19753
900.83	19761
900.95	19849
901.069	19871
901.189	19715
901.308	19434
901.427	19312
901.546	19384
901.665	19464
901.784	19316
901.904	19141
902.023	19057
902.141	18920
902.26	18894
902.379	18856
902.498	18817
902.617	18810
902.735	18932
902.854	18722
902.973	18787
903.091	18604
903.21	18467
903.328	18452
903.446	18391
903.565	18433
903.683	18353
903.801	18178
903.919	18213
904.038	18216
904.156	18159
904.274	18277
904.392	18011
904.51	18038
904.627	18057
904.745	18083
904.863	18201
904.981	18003
905.098	17783
905.216	17741
905.334	17790
905.451	17764
905.569	17786
905.686	17783
905.803	17813
905.921	17539
906.038	17680
906.155	17638
906.272	17471
906.389	17444
906.506	17360
906.623	17322
906.74	17246
906.857	17223
906.974	17292
907.091	17330
907.208	17391
907.324	17387
907.441	17204
907.557	17056
907.674	17045
907.79	17037
907.907	16991
908.023	16965
908.139	17113
908.256	16877
908.372	16911
908.488	16889
908.604	16946
908.72	16622
908.836	16782
908.952	16782
909.068	16744
909.184	16774
909.3	16816
909.415	16759
909.531	16672
909.647	16603
909.762	16478
909.878	16489
909.993	16500
910.108	16428
910.224	16485
910.339	16421
910.454	16356
910.57	16215
910.685	16185
910.8	16481
910.915	16428
911.03	16230
911.145	16173
911.259	16116
911.374	15972
911.489	16017
911.604	15941
911.718	15781
911.833	15808
911.947	15686
912.062	15679
912.176	15808
912.291	15736
912.405	15865
912.519	16006
912.633	15998
912.748	15789
912.862	15835
912.976	15637
913.09	15553
913.204	15690
913.318	15526
913.431	15713
913.545	15614
913.659	15686
913.772	15603
913.886	15397
914	15355
914.113	15439
914.226	15477
914.34	15553
914.453	15317
914.566	15397
914.68	15344
914.793	15302
914.906	15131
915.019	15020
915.132	15051
915.245	15024
915.358	15051
915.47	15104
915.583	15001
915.696	15085
915.809	15127
915.921	15100
916.034	14914
916.146	14864
916.259	14975
916.371	15039
916.483	14956
916.595	14781
916.708	14929
916.82	14880
916.932	14838
917.044	14788
917.156	14815
917.268	14708
917.38	14785
917.491	14663
917.603	14697
917.715	14777
917.826	14853
917.938	14602
918.049	14514
918.161	14587
918.272	14792
918.384	14785
918.495	14651
918.606	14511
918.717	14381
918.828	14495
918.939	14514
919.05	14366
919.161	14396
919.272	14199
919.383	14248
919.494	14385
919.604	14663
919.715	14332
919.826	14332
919.936	14396
920.047	14476
920.157	14434
920.267	14621
920.378	14434
920.488	14362
920.598	14610
920.708	14720
920.818	14503
920.928	14492
921.038	14708
921.148	14651
921.258	14267
921.368	14233
921.477	14252
921.587	14157
921.697	13982
921.806	14157
921.916	13982
922.025	13868
922.134	13856
922.244	13750
922.353	13845
922.462	13704
922.571	13643
922.68	13445
922.789	13407
922.898	13480
923.007	13381
923.116	13396
923.224	13403
923.333	13377
923.442	13217
923.55	13202
923.659	13339
923.767	13362
923.876	13228
923.984	13327
924.092	13126
924.201	13194
924.309	13118
924.417	13141
924.525	13133
924.633	13122
924.741	13986
924.849	12932
924.956	13042
925.064	12947
925.172	12795
925.279	12844
925.387	12916
925.494	12837
925.602	13042
925.709	12848
925.816	12760
925.924	12760
926.031	12840
926.138	12776
926.245	12833
926.352	12616
926.459	12776
926.566	12993
926.673	12795
926.779	12711
926.886	12547
926.993	12456
927.099	12467
927.206	12441
927.312	12407
927.419	12525
927.525	12486
927.631	12490
927.737	12304
927.843	12281
927.95	12190
928.056	12304
928.162	12216
928.267	12292
928.373	12939
928.479	12311
928.585	12144
928.69	12178
928.796	12270
928.901	12114
929.007	11969
929.112	12098
929.218	12117
929.323	12030
929.428	11920
929.533	12140
929.638	11946
929.743	11958
929.848	12011
929.953	11999
930.058	11798
930.163	11668
930.267	11680
930.372	11821
930.477	11668
930.581	11885
930.685	11668
930.79	11592
930.894	11592
930.998	11543
931.103	11646
931.207	11345
931.311	11261
931.415	11151
931.519	11067
931.623	10927
