Data from test_V78500241_2890.txt Node
Date: Fri Mar 25 16:01:49 CST 2022
User: usil
Spectrometer: V785-0024
Trigger mode: 0
Integration Time (sec): 4.000000E-1
Scans to average: 1
Nonlinearity correction enabled: false
Boxcar width: 0
Storing dark spectrum: false
XAxis mode: Wavelengths
Number of Pixels in Spectrum: 1024
>>>>>Begin Spectral Data<<<<<
801.071	28634
801.214	28679
801.356	28470
801.499	28504
801.641	28253
801.783	28257
801.926	28341
802.068	28428
802.211	28188
802.353	28253
802.496	28029
802.638	28006
802.78	27930
802.923	27983
803.065	27812
803.208	27857
803.35	28032
803.492	28192
803.635	28303
803.777	27991
803.919	28253
804.061	28607
804.204	28211
804.346	28238
804.488	28105
804.63	28226
804.773	28196
804.915	28276
805.057	28204
805.199	28280
805.341	28394
805.483	28238
805.626	28322
805.768	28135
805.91	28390
806.052	28462
806.194	28310
806.336	28580
806.478	28447
806.62	28360
806.762	28516
806.904	28569
807.046	28949
807.188	28919
807.33	28828
807.472	28938
807.614	28774
807.756	28744
807.898	28573
808.04	28592
808.182	28672
808.324	28668
808.465	28782
808.607	29033
808.749	28915
808.891	29189
809.033	29265
809.174	29098
809.316	29109
809.458	29033
809.6	29052
809.741	29277
809.883	29166
810.025	29330
810.166	29429
810.308	29383
810.45	29242
810.591	29261
810.733	29041
810.875	28942
811.016	28930
811.158	29022
811.299	29189
811.441	29109
811.582	29364
811.724	29200
811.865	29193
812.007	29025
812.148	29121
812.29	29166
812.431	29254
812.573	29493
812.714	29531
812.855	29581
812.997	29695
813.138	29821
813.279	29828
813.421	29695
813.562	29676
813.703	29387
813.845	29307
813.986	29083
814.127	28824
814.268	28824
814.41	28881
814.551	28820
814.692	28885
814.833	28793
814.974	28843
815.115	28824
815.256	28744
815.397	28542
815.539	28630
815.68	28577
815.821	28508
815.962	28626
816.103	28596
816.244	28337
816.385	28211
816.526	28314
816.666	28063
816.807	28120
816.948	28226
817.089	28192
817.23	27956
817.371	28128
817.512	28128
817.653	28128
817.793	27892
817.934	28097
818.075	28154
818.216	28097
818.356	28086
818.497	28173
818.638	27873
818.778	27937
818.919	27846
819.06	28120
819.2	27922
819.341	28185
819.481	28131
819.622	28268
819.762	28603
819.903	28272
820.043	28299
820.184	28207
820.324	28348
820.465	28246
820.605	28135
820.746	28139
820.886	28021
821.026	28223
821.167	28268
821.307	28238
821.447	28070
821.588	27941
821.728	27930
821.868	27743
822.008	27561
822.149	27538
822.289	27633
822.429	27272
822.569	27214
822.709	27192
822.849	27100
822.99	27085
823.13	27005
823.27	27013
823.41	26861
823.55	26815
823.69	26940
823.83	26982
823.97	26921
824.11	26758
824.25	26773
824.389	26701
824.529	26811
824.669	26659
824.809	26826
824.949	26876
825.089	26902
825.228	26830
825.368	26480
825.508	26606
825.648	26644
825.787	26720
825.927	26693
826.067	26602
826.206	26590
826.346	26731
826.485	26716
826.625	26648
826.765	26484
826.904	26678
827.044	26381
827.183	26469
827.323	26298
827.462	26347
827.601	26434
827.741	26370
827.88	26267
828.02	26271
828.159	26252
828.298	26233
828.437	26343
828.577	26202
828.716	26294
828.855	26237
828.994	25993
829.134	26054
829.273	26054
829.412	25936
829.551	25868
829.69	26092
829.829	26054
829.968	26199
830.107	26138
830.246	26126
830.385	25887
830.524	25963
830.663	25772
830.802	25647
830.941	25556
831.08	25681
831.219	25715
831.357	25693
831.496	25788
831.635	25594
831.774	25533
831.913	25590
832.051	25316
832.19	25377
832.329	25434
832.467	25232
832.606	25274
832.744	25232
832.883	25266
833.022	25156
833.16	25324
833.299	25434
833.437	25373
833.576	25430
833.714	25297
833.852	25304
833.991	25426
834.129	25354
834.267	25506
834.406	25335
834.544	25407
834.682	25339
834.821	25304
834.959	25529
835.097	25331
835.235	25335
835.373	25308
835.511	25358
835.65	25091
835.788	25213
835.926	25042
836.064	25042
836.202	24973
836.34	25175
836.478	25274
836.615	25171
836.753	25148
836.891	25316
837.029	25107
837.167	25164
837.305	25129
837.443	24916
837.58	24962
837.718	25107
837.856	25076
837.993	24958
838.131	24867
838.269	24844
838.406	24939
838.544	24958
838.681	24544
838.819	24616
838.956	24464
839.094	24448
839.231	24547
839.369	24544
839.506	24821
839.643	24894
839.781	24380
839.918	24513
840.055	24467
840.193	24452
840.33	24304
840.467	24365
840.604	24479
840.742	24745
840.879	24216
841.016	24270
841.153	24251
841.29	24365
841.427	24270
841.564	24399
841.701	24452
841.838	24311
841.975	24266
842.112	24216
842.249	24262
842.385	24186
842.522	24346
842.659	24194
842.796	24049
842.933	23980
843.069	24163
843.206	24079
843.343	24163
843.479	24182
843.616	24174
843.752	23882
843.889	23859
844.025	24045
844.162	23901
844.298	23912
844.435	23866
844.571	23786
844.708	23965
844.844	24057
844.98	24045
845.117	23908
845.253	23855
845.389	23802
845.525	23805
845.661	23676
845.798	23509
845.934	23657
846.07	23600
846.206	23661
846.342	23783
846.478	23604
846.614	23474
846.75	23242
846.886	23326
847.022	23436
847.158	23330
847.294	23284
847.429	23455
847.565	23353
847.701	23501
847.837	23083
847.972	23044
848.108	23140
848.244	23239
848.379	23025
848.515	23018
848.65	22904
848.786	23003
848.921	23037
849.057	23037
849.192	23048
849.328	23037
849.463	22965
849.598	22900
849.734	22847
849.869	22946
850.004	22771
850.14	22687
850.275	22706
850.41	22611
850.545	22554
850.68	22611
850.815	22702
850.95	22729
851.085	22869
851.22	22854
851.355	22782
851.49	22790
851.625	22637
851.76	22641
851.895	22546
852.03	22565
852.165	22656
852.299	22729
852.434	22786
852.569	22816
852.703	22774
852.838	22748
852.973	22908
853.107	22752
853.242	22622
853.376	22554
853.511	22322
853.645	22440
853.78	22634
853.914	22561
854.048	22481
854.183	22421
854.317	22580
854.451	22687
854.585	22569
854.72	22447
854.854	22596
854.988	22367
855.122	22462
855.256	22382
855.39	22516
855.524	22573
855.658	22538
855.792	22470
855.926	22561
856.06	22653
856.194	22607
856.327	22421
856.461	22478
856.595	22497
856.729	22649
856.862	22592
856.996	22554
857.13	22611
857.263	22668
857.397	22615
857.53	22565
857.664	22523
857.797	22713
857.931	22683
858.064	22561
858.197	22550
858.331	22485
858.464	22447
858.597	22451
858.731	22508
858.864	22481
858.997	22455
859.13	22512
859.263	22470
859.396	22599
859.529	22447
859.662	22535
859.795	22405
859.928	22592
860.061	22634
860.194	22645
860.327	22672
860.46	22474
860.592	22634
860.725	22725
860.858	22603
860.99	22706
861.123	22424
861.256	22432
861.388	22451
861.521	23265
861.653	22424
861.786	22405
861.918	22371
862.05	22390
862.183	22348
862.315	22428
862.447	22470
862.58	22459
862.712	22268
862.844	22143
862.976	22230
863.108	22291
863.24	22698
863.372	22352
863.504	22177
863.636	22230
863.768	22295
863.9	22166
864.032	22226
864.164	22200
864.296	22287
864.428	22348
864.559	22261
864.691	22314
864.823	22215
864.954	22291
865.086	22215
865.217	22112
865.349	22036
865.48	22051
865.612	22067
865.743	22322
865.875	22086
866.006	21979
866.137	22067
866.269	22135
866.4	22002
866.531	22090
866.662	22070
866.793	22112
866.924	22158
867.055	22002
867.186	22036
867.317	21979
867.448	21934
867.579	22074
867.71	22006
867.841	21884
867.972	21983
868.103	22032
868.233	22002
868.364	22090
868.495	22021
868.625	22226
868.756	22409
868.886	22226
869.017	22181
869.147	22367
869.278	22500
869.408	22356
869.539	22185
869.669	22398
869.799	22379
869.929	22550
870.06	22497
870.19	22546
870.32	22592
870.45	22729
870.58	22710
870.71	22786
870.84	22767
870.97	22668
871.1	22721
871.23	22873
871.36	22831
871.489	22782
871.619	22828
871.749	22885
871.879	22904
872.008	22999
872.138	22908
872.267	22782
872.397	22805
872.526	22645
872.656	22793
872.785	22550
872.915	22812
873.044	23033
873.173	22942
873.303	22919
873.432	23048
873.561	23037
873.69	22976
873.819	22828
873.948	23094
874.077	23037
874.206	22847
874.335	22984
874.464	22927
874.593	23083
874.722	23105
874.851	23147
874.979	23231
875.108	23132
875.237	22965
875.365	22972
875.494	23124
875.623	23109
875.751	23136
875.88	23155
876.008	23231
876.136	23280
876.265	23608
876.393	23535
876.521	23642
876.65	23554
876.778	23501
876.906	23463
877.034	23455
877.162	23467
877.29	23360
877.418	23440
877.546	23406
877.674	23429
877.802	23474
877.93	23349
878.058	23398
878.185	23330
878.313	23516
878.441	23376
878.568	23303
878.696	23296
878.824	23573
878.951	23452
879.079	23562
879.206	23767
879.333	23630
879.461	23585
879.588	23577
879.715	23589
879.842	23817
879.97	23566
880.097	23242
880.224	23239
880.351	23277
880.478	23284
880.605	23273
880.732	23197
880.859	23448
880.986	23448
881.112	23315
881.239	23197
881.366	23022
881.493	22949
881.619	22831
881.746	22786
881.872	22972
881.999	22790
882.125	22744
882.252	22816
882.378	22710
882.505	22896
882.631	22561
882.757	22603
882.883	22596
883.01	22538
883.136	22474
883.262	22375
883.388	22382
883.514	22493
883.64	22493
883.766	22478
883.892	22386
884.018	22325
884.143	22375
884.269	22443
884.395	22303
884.52	22128
884.646	22131
884.772	21991
884.897	21987
885.023	22154
885.148	22211
885.274	22287
885.399	22181
885.524	22204
885.65	22162
885.775	22116
885.9	21987
886.025	22276
886.15	22131
886.275	22067
886.4	21956
886.525	22021
886.65	21994
886.775	22093
886.9	22295
887.025	22318
887.149	22196
887.274	22021
887.399	21972
887.523	21880
887.648	21770
887.773	21823
887.897	21861
888.021	21915
888.146	21831
888.27	21987
888.395	22044
888.519	21926
888.643	21930
888.767	21972
888.891	21819
889.015	21515
889.139	21713
889.263	21606
889.387	21690
889.511	21812
889.635	21827
889.759	21694
889.883	21576
890.006	21587
890.13	21827
890.254	21572
890.377	21599
890.501	21367
890.624	21462
890.748	21386
890.871	21211
890.995	21116
891.118	21214
891.241	21306
891.364	21214
891.488	21393
891.611	21279
891.734	21116
891.857	21313
891.98	21275
892.103	21287
892.226	21207
892.349	21241
892.471	20956
892.594	21173
892.717	21203
892.839	21135
892.962	21135
893.085	21279
893.207	21093
893.33	21036
893.452	21036
893.575	21157
893.697	21165
893.819	21252
893.941	21230
894.064	21218
894.186	21001
894.308	21096
894.43	21176
894.552	21214
894.674	21203
894.796	21070
894.918	21112
895.04	21096
895.161	21138
895.283	21112
895.405	20956
895.526	21047
895.648	21062
895.769	21207
895.891	21325
896.012	21195
896.134	21161
896.255	21188
896.376	21093
896.498	21104
896.619	21093
896.74	21146
896.861	21188
896.982	21382
897.103	21431
897.224	21450
897.345	21298
897.466	21306
897.587	21268
897.708	21363
897.828	21428
897.949	21264
898.07	21089
898.19	21218
898.311	21294
898.431	21275
898.552	21218
898.672	21279
898.792	21351
898.913	21340
899.033	21142
899.153	21001
899.273	21013
899.393	20982
899.513	21112
899.633	21009
899.753	21036
899.873	20899
899.993	21077
900.113	20891
900.232	20956
900.352	20895
900.472	20868
900.591	20682
900.711	20762
900.83	20731
900.95	20857
901.069	20857
901.189	20735
901.308	20408
901.427	20362
901.546	20271
901.665	20195
901.784	20355
901.904	20115
902.023	20008
902.141	19925
902.26	19841
902.379	20096
902.498	19849
902.617	19795
902.735	19902
902.854	19761
902.973	19753
903.091	19605
903.21	19544
903.328	19502
903.446	19339
903.565	19464
903.683	19324
903.801	19179
903.919	19289
904.038	19179
904.156	19126
904.274	19133
904.392	19019
904.51	19015
904.627	19057
904.745	19133
904.863	19137
904.981	18878
905.098	18700
905.216	18890
905.334	18837
905.451	18722
905.569	18612
905.686	18783
905.803	18772
905.921	18623
906.038	18623
906.155	18623
906.272	18399
906.389	18357
906.506	18357
906.623	18201
906.74	18285
906.857	18144
906.974	18155
907.091	18369
907.208	18308
907.324	18254
907.441	18129
907.557	18095
907.674	17996
907.79	17889
907.907	17912
908.023	17992
908.139	17996
908.256	17950
908.372	17897
908.488	17843
908.604	17638
908.72	17680
908.836	17748
908.952	17733
909.068	17642
909.184	17646
909.3	17653
909.415	17752
909.531	17623
909.647	17421
909.762	17478
909.878	17337
909.993	17490
910.108	17391
910.224	17284
910.339	17376
910.454	17292
910.57	17208
910.685	17151
910.8	17334
910.915	17345
911.03	17162
911.145	17029
911.259	17037
911.374	17006
911.489	16790
911.604	16793
911.718	16740
911.833	16733
911.947	16569
912.062	16569
912.176	16752
912.291	16729
912.405	16618
912.519	16847
912.633	16892
912.748	16809
912.862	16683
912.976	16478
913.09	16516
913.204	16577
913.318	16481
913.431	16626
913.545	16542
913.659	16542
913.772	16455
913.886	16344
914	16318
914.113	16375
914.226	16402
914.34	16329
914.453	16196
914.566	16329
914.68	16173
914.793	16093
914.906	15953
915.019	15930
915.132	15831
915.245	15869
915.358	15781
915.47	15812
915.583	15800
915.696	15903
915.809	16002
915.921	16048
916.034	15785
916.146	15739
916.259	15804
916.371	15945
916.483	15850
916.595	15717
916.708	15675
916.82	15686
916.932	15686
917.044	15568
917.156	15603
917.268	15473
917.38	15584
917.491	15447
917.603	15572
917.715	15587
917.826	15641
917.938	15428
918.049	15370
918.161	15435
918.272	15557
918.384	15545
918.495	15447
918.606	15207
918.717	15233
918.828	15294
918.939	15264
919.05	15161
919.161	15241
919.272	15070
919.383	15180
919.494	15249
919.604	15393
919.715	15279
919.826	15108
919.936	15291
920.047	15279
920.157	15192
920.267	15348
920.378	15207
920.488	15142
920.598	15203
920.708	15462
920.818	15412
920.928	15397
921.038	15507
921.148	15374
921.258	15203
921.368	15039
921.477	14986
921.587	14899
921.697	14724
921.806	14887
921.916	14625
922.025	14583
922.134	14606
922.244	14552
922.353	14541
922.462	14427
922.571	14332
922.68	14149
922.789	14229
922.898	14218
923.007	14161
923.116	14168
923.224	14176
923.333	14199
923.442	14062
923.55	13955
923.659	14050
923.767	14138
923.876	13970
923.984	14046
924.092	13997
924.201	13875
924.309	13894
924.417	13860
924.525	13818
924.633	13814
924.741	14727
924.849	13605
924.956	13727
925.064	13597
925.172	13487
925.279	13502
925.387	13590
925.494	13521
925.602	13712
925.709	13674
925.816	13506
925.924	13518
926.031	13628
926.138	13411
926.245	13499
926.352	13407
926.459	13472
926.566	13586
926.673	13449
926.779	13331
926.886	13320
926.993	13164
927.099	13171
927.206	13012
927.312	13031
927.419	13232
927.525	13053
927.631	13137
927.737	13057
927.843	12977
927.95	12897
928.056	12958
928.162	12958
928.267	12996
928.373	13586
928.479	13012
928.585	12707
928.69	12844
928.796	12932
928.901	12833
929.007	12711
929.112	12688
929.218	12760
929.323	12662
929.428	12582
929.533	12772
929.638	12566
929.743	12559
929.848	12578
929.953	12589
930.058	12544
930.163	12311
930.267	12273
930.372	12467
930.477	12296
930.581	12441
930.685	12334
930.79	12186
930.894	12152
930.998	12194
931.103	12281
931.207	11946
931.311	11923
931.415	11703
931.519	11554
931.623	11535
