Data from test_V78500241_2296.txt Node
Date: Fri Mar 25 15:57:42 CST 2022
User: usil
Spectrometer: V785-0024
Trigger mode: 0
Integration Time (sec): 4.000000E-1
Scans to average: 1
Nonlinearity correction enabled: false
Boxcar width: 0
Storing dark spectrum: false
XAxis mode: Wavelengths
Number of Pixels in Spectrum: 1024
>>>>>Begin Spectral Data<<<<<
801.071	29181
801.214	29136
801.356	28923
801.499	28839
801.641	28771
801.783	28725
801.926	28733
802.068	28744
802.211	28694
802.353	28592
802.496	28375
802.638	28451
802.78	28386
802.923	28299
803.065	28341
803.208	28462
803.35	28447
803.492	28653
803.635	28565
803.777	28664
803.919	28679
804.061	29071
804.204	28759
804.346	28679
804.488	28580
804.63	28759
804.773	28615
804.915	28736
805.057	28900
805.199	28763
805.341	28721
805.483	28938
805.626	28896
805.768	28790
805.91	28904
806.052	28824
806.194	28847
806.336	29090
806.478	28930
806.62	28965
806.762	28991
806.904	29246
807.046	29482
807.188	29315
807.33	29220
807.472	29402
807.614	29296
807.756	29231
807.898	29117
808.04	29254
808.182	29113
808.324	29223
808.465	29174
808.607	29387
808.749	29524
808.891	29714
809.033	29691
809.174	29703
809.316	29627
809.458	29539
809.6	29554
809.741	29813
809.883	29668
810.025	29805
810.166	29847
810.308	29885
810.45	29665
810.591	29920
810.733	29813
810.875	29566
811.016	29497
811.158	29375
811.299	29828
811.441	29756
811.582	29767
811.724	29642
811.865	29638
812.007	29710
812.148	29596
812.29	29699
812.431	29874
812.573	29980
812.714	29874
812.855	30140
812.997	30232
813.138	30395
813.279	30167
813.421	30152
813.562	30079
813.703	29878
813.845	29897
813.986	29604
814.127	29440
814.268	29375
814.41	29414
814.551	29326
814.692	29360
814.833	29273
814.974	29395
815.115	29436
815.256	29159
815.397	29181
815.539	29288
815.68	29128
815.821	29003
815.962	29166
816.103	28965
816.244	29025
816.385	28767
816.526	29044
816.666	28790
816.807	28626
816.948	28634
817.089	28740
817.23	28675
817.371	28660
817.512	28653
817.653	28504
817.793	28561
817.934	28569
818.075	28653
818.216	28748
818.356	28675
818.497	28538
818.638	28363
818.778	28318
818.919	28363
819.06	28474
819.2	28626
819.341	28580
819.481	28580
819.622	28953
819.762	28987
819.903	28919
820.043	28816
820.184	28869
820.324	29003
820.465	28862
820.605	28820
820.746	28847
820.886	28569
821.026	28744
821.167	28736
821.307	28713
821.447	28774
821.588	28550
821.728	28413
821.868	28356
822.008	28291
822.149	28070
822.289	28070
822.429	27827
822.569	27739
822.709	27751
822.849	27850
822.99	27728
823.13	27641
823.27	27713
823.41	27408
823.55	27389
823.69	27549
823.83	27466
823.97	27408
824.11	27165
824.25	27264
824.389	27363
824.529	27389
824.669	27317
824.809	27473
824.949	27264
825.089	27363
825.228	27477
825.368	27230
825.508	27165
825.648	27252
825.787	27302
825.927	27260
826.067	27241
826.206	27165
826.346	27218
826.485	27199
826.625	27241
826.765	27188
826.904	27169
827.044	26994
827.183	26899
827.323	26819
827.462	26876
827.601	26902
827.741	26800
827.88	27100
828.02	26720
828.159	26952
828.298	26952
828.437	26902
828.577	26883
828.716	26948
828.855	26800
828.994	26564
829.134	26587
829.273	26655
829.412	26568
829.551	26556
829.69	26507
829.829	26621
829.968	26712
830.107	26602
830.246	26708
830.385	26541
830.524	26446
830.663	26590
830.802	26347
830.941	26320
831.08	26180
831.219	26259
831.357	26332
831.496	26389
831.635	26278
831.774	26142
831.913	26084
832.051	25883
832.19	25944
832.329	26088
832.467	25837
832.606	25818
832.744	25868
832.883	25769
833.022	25780
833.16	25818
833.299	25864
833.437	25788
833.576	25963
833.714	25970
833.852	25997
833.991	25906
834.129	26046
834.267	25997
834.406	26001
834.544	25860
834.682	25860
834.821	25883
834.959	26111
835.097	25791
835.235	25814
835.373	25966
835.511	25879
835.65	25708
835.788	25674
835.926	25613
836.064	25559
836.202	25479
836.34	25731
836.478	25890
836.615	25624
836.753	25772
836.891	25849
837.029	25784
837.167	25681
837.305	25590
837.443	25605
837.58	25533
837.718	25365
837.856	25476
837.993	25495
838.131	25388
838.269	25335
838.406	25514
838.544	25255
838.681	25103
838.819	25232
838.956	25000
839.094	25019
839.231	25042
839.369	25202
839.506	25422
839.643	25282
839.781	25000
839.918	25004
840.055	24924
840.193	25012
840.33	24875
840.467	24958
840.604	24992
840.742	25171
840.879	24719
841.016	24837
841.153	24852
841.29	25019
841.427	24886
841.564	24833
841.701	24844
841.838	24878
841.975	24817
842.112	24776
842.249	24802
842.385	24798
842.522	24954
842.659	24677
842.796	24711
842.933	24494
843.069	24433
843.206	24616
843.343	24696
843.479	24692
843.616	24559
843.752	24388
843.889	24555
844.025	24696
844.162	24407
844.298	24612
844.435	24456
844.571	24486
844.708	24441
844.844	24513
844.98	24623
845.117	24471
845.253	24391
845.389	24289
845.525	24300
845.661	24243
845.798	24152
845.934	24327
846.07	24114
846.206	24220
846.342	24350
846.478	24057
846.614	23954
846.75	23813
846.886	23878
847.022	23897
847.158	23912
847.294	23901
847.429	23866
847.565	23836
847.701	24079
847.837	23729
847.972	23547
848.108	23505
848.244	23680
848.379	23429
848.515	23440
848.65	23440
848.786	23566
848.921	23444
849.057	23497
849.192	23562
849.328	23589
849.463	23364
849.598	23353
849.734	23364
849.869	23242
850.004	23280
850.14	23231
850.275	23284
850.41	23166
850.545	23231
850.68	23162
850.815	23197
850.95	23155
851.085	23429
851.22	23391
851.355	23140
851.49	23189
851.625	23162
851.76	23162
851.895	23124
852.03	23071
852.165	23193
852.299	23345
852.434	23364
852.569	23353
852.703	23231
852.838	23311
852.973	23395
853.107	23296
853.242	23029
853.376	23060
853.511	22987
853.645	23155
853.78	23170
853.914	23086
854.048	22972
854.183	22942
854.317	23140
854.451	23117
854.585	23037
854.72	23014
854.854	23109
854.988	23022
855.122	23067
855.256	22889
855.39	22984
855.524	23109
855.658	22934
855.792	23147
855.926	23079
856.06	23003
856.194	23193
856.327	22946
856.461	22934
856.595	23105
856.729	23124
856.862	23178
856.996	23079
857.13	23121
857.263	23124
857.397	23113
857.53	22911
857.664	23178
857.797	22972
857.931	23128
858.064	23083
858.197	23094
858.331	23064
858.464	22984
858.597	23010
858.731	23006
858.864	23029
858.997	23075
859.13	23079
859.263	22946
859.396	23128
859.529	23048
859.662	22900
859.795	23071
859.928	23014
860.061	23128
860.194	23212
860.327	23060
860.46	23033
860.592	23109
860.725	23299
860.858	23132
860.99	23079
861.123	22961
861.256	22934
861.388	23098
861.521	23710
861.653	22938
861.786	22839
861.918	22923
862.05	22877
862.183	22957
862.315	22987
862.447	23060
862.58	23003
862.712	22733
862.844	22713
862.976	22790
863.108	22847
863.24	23303
863.372	22740
863.504	22835
863.636	22767
863.768	22744
863.9	22759
864.032	22645
864.164	22752
864.296	22706
864.428	22881
864.559	22778
864.691	22759
864.823	22740
864.954	22622
865.086	22752
865.217	22630
865.349	22535
865.48	22622
865.612	22630
865.743	22854
865.875	22519
866.006	22592
866.137	22672
866.269	22634
866.4	22557
866.531	22561
866.662	22413
866.793	22596
866.924	22447
867.055	22512
867.186	22550
867.317	22424
867.448	22550
867.579	22462
867.71	22485
867.841	22402
867.972	22500
868.103	22451
868.233	22470
868.364	22497
868.495	22561
868.625	22691
868.756	22858
868.886	22622
869.017	22763
869.147	22797
869.278	22854
869.408	22752
869.539	22752
869.669	22820
869.799	22767
869.929	22793
870.06	22752
870.19	23098
870.32	22980
870.45	23117
870.58	23174
870.71	23242
870.84	23162
870.97	23113
871.1	23166
871.23	23360
871.36	23360
871.489	23296
871.619	23353
871.749	23277
871.879	23204
872.008	23467
872.138	23349
872.267	23322
872.397	23299
872.526	23079
872.656	23136
872.785	23094
872.915	23395
873.044	23474
873.173	23433
873.303	23379
873.432	23478
873.561	23345
873.69	23425
873.819	23486
873.948	23509
874.077	23406
874.206	23391
874.335	23417
874.464	23573
874.593	23589
874.722	23535
874.851	23554
874.979	23707
875.108	23551
875.237	23649
875.365	23638
875.494	23471
875.623	23589
875.751	23528
875.88	23596
876.008	23684
876.136	23741
876.265	23912
876.393	24194
876.521	24007
876.65	24060
876.778	23939
876.906	24011
877.034	24007
877.162	24041
877.29	23908
877.418	23798
877.546	23901
877.674	23923
877.802	23882
877.93	23863
878.058	23889
878.185	23798
878.313	23828
878.441	23851
878.568	23726
878.696	23775
878.824	23996
878.951	24079
879.079	24095
879.206	24133
879.333	24087
879.461	24125
879.588	24022
879.715	24049
879.842	24205
879.97	23999
880.097	23813
880.224	23707
880.351	23703
880.478	23748
880.605	23737
880.732	23748
880.859	23889
880.986	23726
881.112	23809
881.239	23653
881.366	23436
881.493	23326
881.619	23303
881.746	23341
881.872	23246
881.999	23258
882.125	23174
882.252	23330
882.378	23254
882.505	23364
882.631	23162
882.757	22995
882.883	23060
883.01	22877
883.136	22911
883.262	22866
883.388	22774
883.514	22873
883.64	22980
883.766	22786
883.892	22672
884.018	22755
884.143	22843
884.269	22972
884.395	22698
884.52	22615
884.646	22592
884.772	22493
884.897	22432
885.023	22592
885.148	22542
885.274	22694
885.399	22713
885.524	22462
885.65	22611
885.775	22577
885.9	22538
886.025	22713
886.15	22645
886.275	22481
886.4	22470
886.525	22596
886.65	22546
886.775	22402
886.9	22634
887.025	22653
887.149	22535
887.274	22489
887.399	22337
887.523	22474
887.648	22234
887.773	22238
887.897	22409
888.021	22356
888.146	22253
888.27	22333
888.395	22344
888.519	22443
888.643	22360
888.767	22379
888.891	22280
889.015	22158
889.139	22261
889.263	22124
889.387	22223
889.511	22230
889.635	22265
889.759	21964
889.883	22181
890.006	22177
890.13	22310
890.254	22150
890.377	22070
890.501	21816
890.624	21743
890.748	22013
890.871	21865
890.995	21625
891.118	21717
891.241	21633
891.364	21580
891.488	21762
891.611	21709
891.734	21701
891.857	21717
891.98	21694
892.103	21759
892.226	21667
892.349	21591
892.471	21469
892.594	21557
892.717	21637
892.839	21572
892.962	21603
893.085	21553
893.207	21496
893.33	21481
893.452	21504
893.575	21511
893.697	21530
893.819	21648
893.941	21705
894.064	21500
894.186	21488
894.308	21481
894.43	21542
894.552	21561
894.674	21652
894.796	21408
894.918	21542
895.04	21424
895.161	21694
895.283	21698
895.405	21401
895.526	21439
895.648	21481
895.769	21496
895.891	21610
896.012	21580
896.134	21538
896.255	21526
896.376	21462
896.498	21340
896.619	21450
896.74	21454
896.861	21580
896.982	21747
897.103	21975
897.224	21728
897.345	21671
897.466	21652
897.587	21892
897.708	21838
897.828	21717
897.949	21603
898.07	21580
898.19	21591
898.311	21835
898.431	21652
898.552	21690
898.672	21694
898.792	21854
898.913	21686
899.033	21648
899.153	21526
899.273	21359
899.393	21500
899.513	21504
899.633	21447
899.753	21447
899.873	21511
899.993	21447
900.113	21481
900.232	21420
900.352	21348
900.472	21211
900.591	21325
900.711	21287
900.83	21195
900.95	21218
901.069	21252
901.189	21195
901.308	20918
901.427	20800
901.546	20724
901.665	20819
901.784	20750
901.904	20606
902.023	20522
902.141	20351
902.26	20248
902.379	20347
902.498	20244
902.617	20290
902.735	20317
902.854	20202
902.973	20206
903.091	19849
903.21	19970
903.328	19978
903.446	19822
903.565	19727
903.683	19715
903.801	19632
903.919	19700
904.038	19563
904.156	19377
904.274	19464
904.392	19502
904.51	19358
904.627	19422
904.745	19609
904.863	19487
904.981	19270
905.098	19168
905.216	19053
905.334	19179
905.451	19183
905.569	19103
905.686	19194
905.803	19061
905.921	18829
906.038	18989
906.155	18878
906.272	18821
906.389	18802
906.506	18650
906.623	18722
906.74	18623
906.857	18597
906.974	18540
907.091	18734
907.208	18696
907.324	18623
907.441	18563
907.557	18292
907.674	18338
907.79	18270
907.907	18182
908.023	18407
908.139	18308
908.256	18270
908.372	18213
908.488	18121
908.604	18152
908.72	18030
908.836	18034
908.952	17977
909.068	18159
909.184	18064
909.3	18038
909.415	18015
909.531	17996
909.647	17912
909.762	17794
909.878	17775
909.993	17779
910.108	17657
910.224	17634
910.339	17699
910.454	17520
910.57	17665
910.685	17543
910.8	17657
910.915	17779
911.03	17528
911.145	17353
911.259	17273
911.374	17292
911.489	17185
911.604	17299
911.718	17067
911.833	17060
911.947	17014
912.062	16839
912.176	17079
912.291	16987
912.405	17140
912.519	17189
912.633	17250
912.748	17075
912.862	16976
912.976	16790
913.09	16691
913.204	16927
913.318	16850
913.431	16877
913.545	17067
913.659	17003
913.772	16820
913.886	16645
914	16531
914.113	16725
914.226	16793
914.34	16755
914.453	16565
914.566	16626
914.68	16436
914.793	16417
914.906	16356
915.019	16299
915.132	16219
915.245	16253
915.358	16261
915.47	16143
915.583	16261
915.696	16322
915.809	16322
915.921	16303
916.034	16173
916.146	16051
916.259	16188
916.371	16253
916.483	16112
916.595	15953
916.708	16040
916.82	16029
916.932	15945
917.044	15895
917.156	15918
917.268	15865
917.38	15888
917.491	15816
917.603	15842
917.715	15850
917.826	15945
917.938	15713
918.049	15671
918.161	15766
918.272	15949
918.384	15736
918.495	15667
918.606	15641
918.717	15606
918.828	15492
918.939	15587
919.05	15443
919.161	15530
919.272	15306
919.383	15439
919.494	15648
919.604	15682
919.715	15523
919.826	15511
919.936	15488
920.047	15580
920.157	15564
920.267	15644
920.378	15492
920.488	15492
920.598	15667
920.708	15808
920.818	15629
920.928	15671
921.038	15759
921.148	15690
921.258	15504
921.368	15450
921.477	15256
921.587	15256
921.697	15138
921.806	15104
921.916	15077
922.025	14937
922.134	14853
922.244	14735
922.353	14777
922.462	14720
922.571	14686
922.68	14537
922.789	14377
922.898	14480
923.007	14518
923.116	14537
923.224	14446
923.333	14328
923.442	14351
923.55	14267
923.659	14370
923.767	14324
923.876	14339
923.984	14290
924.092	14164
924.201	14142
924.309	14111
924.417	14248
924.525	14035
924.633	14107
924.741	15127
924.849	13928
924.956	14016
925.064	13852
925.172	13784
925.279	13864
925.387	13887
925.494	13928
925.602	13913
925.709	13822
925.816	13788
925.924	13841
926.031	13902
926.138	13784
926.245	13890
926.352	13655
926.459	13826
926.566	13830
926.673	13582
926.779	13597
926.886	13586
926.993	13468
927.099	13308
927.206	13388
927.312	13320
927.419	13392
927.525	13411
927.631	13388
927.737	13187
927.843	13183
927.95	13046
928.056	13175
928.162	13225
928.267	13285
928.373	13765
928.479	13198
928.585	12966
928.69	13156
928.796	13190
928.901	12977
929.007	12882
929.112	13061
929.218	12989
929.323	12928
929.428	12886
929.533	13050
929.638	12768
929.743	12791
929.848	12867
929.953	12848
930.058	12795
930.163	12532
930.267	12555
930.372	12760
930.477	12506
930.581	12776
930.685	12513
930.79	12410
930.894	12399
930.998	12384
931.103	12589
931.207	12114
931.311	12152
931.415	12007
931.519	11882
931.623	11767
