Data from test_V78500241_748.txt Node
Date: Fri Mar 25 15:46:58 CST 2022
User: usil
Spectrometer: V785-0024
Trigger mode: 0
Integration Time (sec): 4.000000E-1
Scans to average: 1
Nonlinearity correction enabled: false
Boxcar width: 0
Storing dark spectrum: false
XAxis mode: Wavelengths
Number of Pixels in Spectrum: 1024
>>>>>Begin Spectral Data<<<<<
801.071	28329
801.214	28017
801.356	27964
801.499	27949
801.641	27797
801.783	27713
801.926	27873
802.068	27660
802.211	27694
802.353	27755
802.496	27504
802.638	27519
802.78	27504
802.923	27275
803.065	27397
803.208	27496
803.35	27355
803.492	27500
803.635	27447
803.777	27534
803.919	27523
804.061	27930
804.204	27747
804.346	27610
804.488	27629
804.63	27572
804.773	27507
804.915	27762
805.057	27846
805.199	27652
805.341	27751
805.483	27880
805.626	27648
805.768	27709
805.91	27808
806.052	27751
806.194	27759
806.336	27907
806.478	27903
806.62	27720
806.762	27759
806.904	28166
807.046	28413
807.188	28276
807.33	28105
807.472	28291
807.614	28173
807.756	28249
807.898	28173
808.04	28021
808.182	28154
808.324	27945
808.465	28128
808.607	28329
808.749	28375
808.891	28508
809.033	28577
809.174	28478
809.316	28436
809.458	28500
809.6	28333
809.741	28535
809.883	28645
810.025	28759
810.166	28649
810.308	28820
810.45	28698
810.591	28774
810.733	28481
810.875	28474
811.016	28504
811.158	28485
811.299	28611
811.441	28596
811.582	28577
811.724	28485
811.865	28440
812.007	28546
812.148	28401
812.29	28451
812.431	28698
812.573	28763
812.714	28934
812.855	28812
812.997	29170
813.138	29162
813.279	29113
813.421	28953
813.562	28892
813.703	28698
813.845	28660
813.986	28557
814.127	28310
814.268	28257
814.41	28219
814.551	28200
814.692	28310
814.833	28029
814.974	28063
815.115	28238
815.256	28002
815.397	28090
815.539	27964
815.68	27934
815.821	27895
815.962	28010
816.103	27945
816.244	27941
816.385	27797
816.526	27778
816.666	27492
816.807	27348
816.948	27629
817.089	27690
817.23	27519
817.371	27485
817.512	27439
817.653	27351
817.793	27424
817.934	27431
818.075	27549
818.216	27587
818.356	27420
818.497	27363
818.638	27230
818.778	27138
818.919	27287
819.06	27272
819.2	27344
819.341	27348
819.481	27389
819.622	27526
819.762	27926
819.903	27690
820.043	27663
820.184	27545
820.324	27538
820.465	27724
820.605	27545
820.746	27686
820.886	27435
821.026	27443
821.167	27553
821.307	27610
821.447	27420
821.588	27466
821.728	27264
821.868	27123
822.008	27077
822.149	26982
822.289	26979
822.429	26594
822.569	26609
822.709	26659
822.849	26499
822.99	26419
823.13	26469
823.27	26301
823.41	26221
823.55	26096
823.69	26301
823.83	26286
823.97	26252
824.11	26142
824.25	26016
824.389	26183
824.529	26138
824.669	26122
824.809	26084
824.949	26263
825.089	26282
825.228	26210
825.368	25849
825.508	26012
825.648	25932
825.787	26008
825.927	25997
826.067	25932
826.206	25921
826.346	26031
826.485	26020
826.625	26050
826.765	26084
826.904	26142
827.044	25723
827.183	25757
827.323	25620
827.462	25723
827.601	25738
827.741	25624
827.88	25693
828.02	25594
828.159	25685
828.298	25582
828.437	25715
828.577	25605
828.716	25845
828.855	25552
828.994	25266
829.134	25354
829.273	25422
829.412	25274
829.551	25225
829.69	25320
829.829	25521
829.968	25369
830.107	25392
830.246	25316
830.385	25255
830.524	25346
830.663	25080
830.802	25183
830.941	24947
831.08	24901
831.219	25072
831.357	25034
831.496	25168
831.635	25004
831.774	24859
831.913	24829
832.051	24875
832.19	24916
832.329	24753
832.467	24684
832.606	24661
832.744	24604
832.883	24631
833.022	24631
833.16	24711
833.299	24639
833.437	24677
833.576	24707
833.714	24863
833.852	24730
833.991	24863
834.129	24817
834.267	24867
834.406	24661
834.544	24802
834.682	24635
834.821	24715
834.959	24753
835.097	24601
835.235	24814
835.373	24661
835.511	24661
835.65	24585
835.788	24661
835.926	24513
836.064	24338
836.202	24380
836.34	24722
836.478	24700
836.615	24448
836.753	24578
836.891	24559
837.029	24582
837.167	24456
837.305	24536
837.443	24452
837.58	24308
837.718	24528
837.856	24376
837.993	24448
838.131	24395
838.269	24174
838.406	24296
838.544	24266
838.681	23992
838.819	23954
838.956	23939
839.094	23878
839.231	23931
839.369	24015
839.506	24205
839.643	24022
839.781	23859
839.918	23752
840.055	23821
840.193	23832
840.33	23710
840.467	23805
840.604	23756
840.742	24060
840.879	23649
841.016	23752
841.153	23745
841.29	23847
841.427	23767
841.564	23920
841.701	23764
841.838	23836
841.975	23741
842.112	23646
842.249	23547
842.385	23551
842.522	23779
842.659	23535
842.796	23376
842.933	23368
843.069	23478
843.206	23493
843.343	23623
843.479	23566
843.616	23665
843.752	23204
843.889	23269
844.025	23471
844.162	23296
844.298	23246
844.435	23315
844.571	23349
844.708	23284
844.844	23490
844.98	23414
845.117	23353
845.253	23075
845.389	23060
845.525	23113
845.661	23124
845.798	22927
845.934	23181
846.07	22976
846.206	23014
846.342	23159
846.478	22984
846.614	22767
846.75	22771
846.886	22793
847.022	22790
847.158	22660
847.294	22790
847.429	22820
847.565	22774
847.701	22885
847.837	22565
847.972	22447
848.108	22641
848.244	22538
848.379	22348
848.515	22291
848.65	22504
848.786	22356
848.921	22421
849.057	22337
849.192	22478
849.328	22527
849.463	22390
849.598	22341
849.734	22249
849.869	22204
850.004	22101
850.14	22211
850.275	22150
850.41	21926
850.545	21915
850.68	22048
850.815	22093
850.95	22116
851.085	22333
851.22	22143
851.355	22169
851.49	22025
851.625	22025
851.76	22120
851.895	22002
852.03	21998
852.165	22181
852.299	22006
852.434	22162
852.569	22162
852.703	22090
852.838	22078
852.973	22158
853.107	22284
853.242	22150
853.376	21873
853.511	21873
853.645	21831
853.78	22093
853.914	21960
854.048	21865
854.183	21812
854.317	21884
854.451	22154
854.585	21884
854.72	21953
854.854	21926
854.988	21907
855.122	21888
855.256	21770
855.39	21937
855.524	22017
855.658	21979
855.792	21953
855.926	21941
856.06	21994
856.194	21983
856.327	21888
856.461	21930
856.595	21880
856.729	21899
856.862	22051
856.996	22006
857.13	21899
857.263	21968
857.397	22010
857.53	22017
857.664	21994
857.797	21937
857.931	22128
858.064	21892
858.197	22013
858.331	21941
858.464	21915
858.597	21846
858.731	21968
858.864	21842
858.997	21983
859.13	21941
859.263	21907
859.396	21987
859.529	22006
859.662	21907
859.795	21865
859.928	21892
860.061	21930
860.194	22112
860.327	21991
860.46	21934
860.592	22051
860.725	22017
860.858	22040
860.99	21892
861.123	21960
861.256	21759
861.388	21934
861.521	22615
861.653	21686
861.786	21701
861.918	21766
862.05	21812
862.183	21911
862.315	21918
862.447	21960
862.58	21762
862.712	21595
862.844	21568
862.976	21732
863.108	21656
863.24	22101
863.372	21492
863.504	21667
863.636	21618
863.768	21675
863.9	21564
864.032	21473
864.164	21614
864.296	21610
864.428	21641
864.559	21717
864.691	21762
864.823	21557
864.954	21675
865.086	21591
865.217	21599
865.349	21538
865.48	21511
865.612	21523
865.743	21561
865.875	21450
866.006	21443
866.137	21466
866.269	21408
866.4	21500
866.531	21317
866.662	21439
866.793	21511
866.924	21526
867.055	21481
867.186	21492
867.317	21473
867.448	21344
867.579	21317
867.71	21302
867.841	21294
867.972	21473
868.103	21447
868.233	21374
868.364	21447
868.495	21564
868.625	21667
868.756	21705
868.886	21519
869.017	21564
869.147	21698
869.278	21892
869.408	21781
869.539	21648
869.669	21694
869.799	21751
869.929	21701
870.06	21861
870.19	21949
870.32	22025
870.45	21968
870.58	22017
870.71	22131
870.84	22128
870.97	22086
871.1	22044
871.23	22238
871.36	22299
871.489	22200
871.619	22314
871.749	22268
871.879	22257
872.008	22314
872.138	22341
872.267	22246
872.397	22166
872.526	22017
872.656	22158
872.785	22188
872.915	22367
873.044	22367
873.173	22207
873.303	22348
873.432	22325
873.561	22455
873.69	22268
873.819	22310
873.948	22440
874.077	22276
874.206	22234
874.335	22299
874.464	22470
874.593	22569
874.722	22535
874.851	22599
874.979	22592
875.108	22550
875.237	22462
875.365	22432
875.494	22485
875.623	22615
875.751	22459
875.88	22459
876.008	22527
876.136	22691
876.265	22843
876.393	23003
876.521	22900
876.65	22873
876.778	22953
876.906	22793
877.034	22839
877.162	22949
877.29	22805
877.418	22866
877.546	22847
877.674	22805
877.802	22839
877.93	22847
878.058	22858
878.185	22599
878.313	22816
878.441	22782
878.568	22706
878.696	22805
878.824	22839
878.951	22987
879.079	23086
879.206	23170
879.333	23109
879.461	22946
879.588	23071
879.715	22976
879.842	23223
879.97	23003
880.097	22721
880.224	22596
880.351	22626
880.478	22774
880.605	22603
880.732	22656
880.859	22904
880.986	22694
881.112	22774
881.239	22542
881.366	22405
881.493	22470
881.619	22280
881.746	22261
881.872	22284
881.999	22200
882.125	22173
882.252	22295
882.378	22253
882.505	22287
882.631	22173
882.757	22143
882.883	21956
883.01	21846
883.136	21831
883.262	21922
883.388	21766
883.514	21998
883.64	21953
883.766	21743
883.892	21755
884.018	21743
884.143	21793
884.269	21949
884.395	21675
884.52	21477
884.646	21507
884.772	21534
884.897	21264
885.023	21656
885.148	21694
885.274	21827
885.399	21724
885.524	21500
885.65	21542
885.775	21583
885.9	21504
886.025	21572
886.15	21526
886.275	21545
886.4	21363
886.525	21557
886.65	21599
886.775	21321
886.9	21675
887.025	21686
887.149	21492
887.274	21340
887.399	21450
887.523	21363
887.648	21283
887.773	21161
887.897	21359
888.021	21389
888.146	21233
888.27	21431
888.395	21310
888.519	21378
888.643	21256
888.767	21466
888.891	21192
889.015	21074
889.139	21146
889.263	21100
889.387	21218
889.511	21344
889.635	21184
889.759	21222
889.883	21127
890.006	21116
890.13	21279
890.254	21013
890.377	20971
890.501	20921
890.624	21001
890.748	20975
890.871	20769
890.995	20609
891.118	20735
891.241	20716
891.364	20701
891.488	20750
891.611	20609
891.734	20609
891.857	20708
891.98	20632
892.103	20758
892.226	20613
892.349	20724
892.471	20514
892.594	20632
892.717	20632
892.839	20549
892.962	20568
893.085	20686
893.207	20583
893.33	20556
893.452	20507
893.575	20682
893.697	20549
893.819	20716
893.941	20777
894.064	20686
894.186	20587
894.308	20469
894.43	20663
894.552	20693
894.674	20606
894.796	20434
894.918	20560
895.04	20594
895.161	20651
895.283	20693
895.405	20560
895.526	20598
895.648	20667
895.769	20686
895.891	20686
896.012	20705
896.134	20640
896.255	20644
896.376	20594
896.498	20552
896.619	20507
896.74	20480
896.861	20697
896.982	20861
897.103	21112
897.224	20948
897.345	20823
897.466	20762
897.587	20857
897.708	20944
897.828	20758
897.949	20663
898.07	20533
898.19	20705
898.311	20796
898.431	20773
898.552	20838
898.672	20823
898.792	20868
898.913	20758
899.033	20537
899.153	20552
899.273	20370
899.393	20518
899.513	20556
899.633	20556
899.753	20629
899.873	20492
899.993	20518
900.113	20552
900.232	20533
900.352	20431
900.472	20423
900.591	20294
900.711	20294
900.83	20248
900.95	20370
901.069	20381
901.189	20145
901.308	19951
901.427	19864
901.546	20008
901.665	19974
901.784	19837
901.904	19685
902.023	19647
902.141	19525
902.26	19460
902.379	19480
902.498	19419
902.617	19266
902.735	19521
902.854	19445
902.973	19346
903.091	19050
903.21	19069
903.328	19057
903.446	18901
903.565	18848
903.683	18856
903.801	18722
903.919	18882
904.038	18707
904.156	18536
904.274	18661
904.392	18635
904.51	18646
904.627	18658
904.745	18551
904.863	18631
904.981	18452
905.098	18308
905.216	18361
905.334	18346
905.451	18334
905.569	18194
905.686	18376
905.803	18285
905.921	18068
906.038	18182
906.155	18083
906.272	17904
906.389	18022
906.506	17790
906.623	17783
906.74	17942
906.857	17707
906.974	17733
907.091	17889
907.208	18030
907.324	17809
907.441	17790
907.557	17497
907.674	17532
907.79	17474
907.907	17497
908.023	17547
908.139	17471
908.256	17471
908.372	17414
908.488	17406
908.604	17273
908.72	17239
908.836	17284
908.952	17227
909.068	17246
909.184	17440
909.3	17269
909.415	17174
909.531	17223
909.647	17064
909.762	16976
909.878	16919
909.993	16987
910.108	16934
910.224	16995
910.339	16949
910.454	16873
910.57	16809
910.685	16660
910.8	16965
910.915	16904
911.03	16679
911.145	16542
911.259	16607
911.374	16569
911.489	16386
911.604	16455
911.718	16223
911.833	16375
911.947	16204
912.062	16120
912.176	16306
912.291	16409
912.405	16306
912.519	16310
912.633	16447
912.748	16249
912.862	16333
912.976	16097
913.09	16006
913.204	16029
913.318	15998
913.431	16109
913.545	16185
913.659	16234
913.772	16036
913.886	15899
914	15922
914.113	15964
914.226	15994
914.34	15991
914.453	15762
914.566	15915
914.68	15739
914.793	15770
914.906	15492
915.019	15469
915.132	15393
915.245	15507
915.358	15458
915.47	15435
915.583	15485
915.696	15549
915.809	15542
915.921	15667
916.034	15443
916.146	15374
916.259	15351
916.371	15374
916.483	15401
916.595	15226
916.708	15378
916.82	15348
916.932	15359
917.044	15230
917.156	15214
917.268	15161
917.38	15169
917.491	15135
917.603	15112
917.715	15195
917.826	15306
917.938	15135
918.049	14944
918.161	15123
918.272	15135
918.384	15180
918.495	15020
918.606	14918
918.717	14777
918.828	14861
918.939	14891
919.05	14845
919.161	14914
919.272	14594
919.383	14750
919.494	14910
919.604	15005
919.715	14868
919.826	14655
919.936	14762
920.047	14830
920.157	14807
920.267	15013
920.378	14804
920.488	14705
920.598	14982
920.708	15116
920.818	14982
920.928	14933
921.038	15074
921.148	14944
921.258	14727
921.368	14697
921.477	14552
921.587	14503
921.697	14431
921.806	14598
921.916	14412
922.025	14233
922.134	14244
922.244	14161
922.353	14172
922.462	14062
922.571	13955
922.68	13913
922.789	13811
922.898	13841
923.007	13704
923.116	13868
923.224	13845
923.333	13757
923.442	13693
923.55	13647
923.659	13666
923.767	13715
923.876	13582
923.984	13685
924.092	13559
924.201	13559
924.309	13582
924.417	13537
924.525	13495
924.633	13460
924.741	14442
924.849	13297
924.956	13377
925.064	13198
925.172	13285
925.279	13228
925.387	13297
925.494	13187
925.602	13377
925.709	13339
925.816	13152
925.924	13221
926.031	13221
926.138	13156
926.245	13232
926.352	13046
926.459	13175
926.566	13202
926.673	13034
926.779	12981
926.886	12935
926.993	12905
927.099	12776
927.206	12700
927.312	12738
927.419	12829
927.525	12753
927.631	12817
927.737	12662
927.843	12650
927.95	12528
928.056	12563
928.162	12570
928.267	12635
928.373	13190
928.479	12601
928.585	12502
928.69	12589
928.796	12547
928.901	12460
929.007	12315
929.112	12452
929.218	12498
929.323	12391
929.428	12319
929.533	12521
929.638	12171
929.743	12311
929.848	12262
929.953	12239
930.058	12155
930.163	11999
930.267	11988
930.372	12140
930.477	11950
930.581	12091
930.685	12083
930.79	11882
930.894	11863
930.998	11893
931.103	11961
931.207	11619
931.311	11532
931.415	11547
931.519	11254
931.623	11273
