Data from test_V78500241_1648.txt Node
Date: Fri Mar 25 15:53:13 CST 2022
User: usil
Spectrometer: V785-0024
Trigger mode: 0
Integration Time (sec): 4.000000E-1
Scans to average: 1
Nonlinearity correction enabled: false
Boxcar width: 0
Storing dark spectrum: false
XAxis mode: Wavelengths
Number of Pixels in Spectrum: 1024
>>>>>Begin Spectral Data<<<<<
801.071	27663
801.214	27751
801.356	27530
801.499	27389
801.641	27279
801.783	27321
801.926	27386
802.068	27298
802.211	27184
802.353	27176
802.496	27047
802.638	27070
802.78	26929
802.923	26940
803.065	26895
803.208	26883
803.35	27066
803.492	27199
803.635	27226
803.777	27055
803.919	27096
804.061	27511
804.204	27142
804.346	27138
804.488	27131
804.63	27192
804.773	27173
804.915	27077
805.057	27275
805.199	27154
805.341	27310
805.483	27367
805.626	27344
805.768	27268
805.91	27351
806.052	27310
806.194	27173
806.336	27534
806.478	27294
806.62	27340
806.762	27378
806.904	27709
807.046	27899
807.188	27793
807.33	27682
807.472	27838
807.614	27732
807.756	27747
807.898	27629
808.04	27576
808.182	27523
808.324	27568
808.465	27614
808.607	27766
808.749	27941
808.891	28048
809.033	28116
809.174	27922
809.316	27857
809.458	27983
809.6	27899
809.741	27960
809.883	28105
810.025	28158
810.166	28253
810.308	28215
810.45	28207
810.591	28051
810.733	28002
810.875	27918
811.016	27918
811.158	27686
811.299	27998
811.441	27972
811.582	27979
811.724	28017
811.865	27823
812.007	27956
812.148	28055
812.29	27960
812.431	28192
812.573	28238
812.714	28295
812.855	28523
812.997	28561
813.138	28653
813.279	28569
813.421	28561
813.562	28344
813.703	28268
813.845	28093
813.986	27797
814.127	27724
814.268	27625
814.41	27800
814.551	27542
814.692	27656
814.833	27576
814.974	27568
815.115	27576
815.256	27405
815.397	27447
815.539	27424
815.68	27306
815.821	27386
815.962	27332
816.103	27363
816.244	27085
816.385	27150
816.526	27093
816.666	27043
816.807	26872
816.948	26971
817.089	26940
817.23	26929
817.371	26838
817.512	26921
817.653	26807
817.793	26788
817.934	27020
818.075	26967
818.216	26872
818.356	26724
818.497	26735
818.638	26484
818.778	26746
818.919	26587
819.06	26720
819.2	26777
819.341	26887
819.481	26864
819.622	27005
819.762	27188
819.903	27123
820.043	27146
820.184	27070
820.324	27096
820.465	27028
820.605	26952
820.746	27036
820.886	26788
821.026	26872
821.167	26944
821.307	27039
821.447	26887
821.588	26880
821.728	26644
821.868	26590
822.008	26313
822.149	26419
822.289	26396
822.429	26164
822.569	25909
822.709	26001
822.849	25909
822.99	25845
823.13	25731
823.27	25837
823.41	25727
823.55	25578
823.69	25753
823.83	25685
823.97	25483
824.11	25373
824.25	25392
824.389	25422
824.529	25628
824.669	25613
824.809	25609
824.949	25658
825.089	25597
825.228	25563
825.368	25483
825.508	25297
825.648	25259
825.787	25377
825.927	25453
826.067	25346
826.206	25422
826.346	25327
826.485	25312
826.625	25270
826.765	25441
826.904	25301
827.044	25110
827.183	25076
827.323	24958
827.462	25126
827.601	25171
827.741	25076
827.88	25072
828.02	25027
828.159	25000
828.298	25091
828.437	25122
828.577	24878
828.716	25053
828.855	24935
828.994	24924
829.134	24772
829.273	24798
829.412	24802
829.551	24829
829.69	24738
829.829	24837
829.968	24920
830.107	24768
830.246	24772
830.385	24791
830.524	24593
830.663	24601
830.802	24399
830.941	24372
831.08	24384
831.219	24479
831.357	24380
831.496	24635
831.635	24414
831.774	24216
831.913	24167
832.051	24190
832.19	24144
832.329	24163
832.467	24007
832.606	23977
832.744	23923
832.883	23954
833.022	23969
833.16	24216
833.299	23961
833.437	24026
833.576	24110
833.714	24072
833.852	24186
833.991	24129
834.129	24266
834.267	24121
834.406	24190
834.544	23969
834.682	24106
834.821	24125
834.959	24148
835.097	24034
835.235	24064
835.373	24079
835.511	23977
835.65	24045
835.788	24083
835.926	23832
836.064	23695
836.202	23794
836.34	23908
836.478	23992
836.615	23866
836.753	23832
836.891	23980
837.029	23946
837.167	23882
837.305	23752
837.443	23726
837.58	23771
837.718	23623
837.856	23707
837.993	23687
838.131	23748
838.269	23646
838.406	23684
838.544	23520
838.681	23562
838.819	23471
838.956	23250
839.094	23212
839.231	23200
839.369	23345
839.506	23554
839.643	23478
839.781	23231
839.918	23083
840.055	23414
840.193	23261
840.33	23105
840.467	23105
840.604	23315
840.742	23528
840.879	23083
841.016	23098
841.153	23003
841.29	23337
841.427	23064
841.564	23189
841.701	23239
841.838	23071
841.975	23010
842.112	22930
842.249	22995
842.385	22900
842.522	23181
842.659	22972
842.796	22927
842.933	22854
843.069	22778
843.206	22862
843.343	22984
843.479	22900
843.616	22892
843.752	22744
843.889	22809
844.025	22923
844.162	22504
844.298	22889
844.435	22656
844.571	22740
844.708	22618
844.844	22744
844.98	22911
845.117	22805
845.253	22561
845.389	22535
845.525	22557
845.661	22596
845.798	22455
845.934	22512
846.07	22375
846.206	22455
846.342	22561
846.478	22284
846.614	22029
846.75	22093
846.886	22124
847.022	22166
847.158	22242
847.294	22158
847.429	22215
847.565	22158
847.701	22352
847.837	21751
847.972	21873
848.108	22002
848.244	22032
848.379	21808
848.515	21679
848.65	21686
848.786	21698
848.921	21648
849.057	21873
849.192	21892
849.328	21797
849.463	21819
849.598	21816
849.734	21572
849.869	21652
850.004	21485
850.14	21408
850.275	21492
850.41	21374
850.545	21405
850.68	21435
850.815	21485
850.95	21428
851.085	21622
851.22	21583
851.355	21488
851.49	21416
851.625	21447
851.76	21458
851.895	21443
852.03	21332
852.165	21454
852.299	21435
852.434	21549
852.569	21511
852.703	21568
852.838	21599
852.973	21542
853.107	21629
853.242	21477
853.376	21363
853.511	21252
853.645	21313
853.78	21389
853.914	21389
854.048	21329
854.183	21287
854.317	21355
854.451	21462
854.585	21386
854.72	21233
854.854	21313
854.988	21283
855.122	21260
855.256	21260
855.39	21378
855.524	21386
855.658	21348
855.792	21283
855.926	21321
856.06	21344
856.194	21382
856.327	21382
856.461	21279
856.595	21340
856.729	21359
856.862	21408
856.996	21279
857.13	21466
857.263	21363
857.397	21443
857.53	21298
857.664	21378
857.797	21382
857.931	21424
858.064	21279
858.197	21370
858.331	21363
858.464	21207
858.597	21211
858.731	21287
858.864	21332
858.997	21401
859.13	21317
859.263	21397
859.396	21344
859.529	21252
859.662	21264
859.795	21408
859.928	21272
860.061	21454
860.194	21523
860.327	21420
860.46	21374
860.592	21420
860.725	21561
860.858	21469
860.99	21439
861.123	21294
861.256	21291
861.388	21351
861.521	22101
861.653	21195
861.786	21214
861.918	21165
862.05	21275
862.183	21184
862.315	21199
862.447	21188
862.58	21256
862.712	21100
862.844	20952
862.976	21135
863.108	21135
863.24	21504
863.372	20910
863.504	21028
863.636	21116
863.768	21096
863.9	21070
864.032	21081
864.164	21028
864.296	21100
864.428	21112
864.559	21184
864.691	21112
864.823	21081
864.954	20998
865.086	20941
865.217	20929
865.349	20792
865.48	20990
865.612	20990
865.743	20979
865.875	20937
866.006	20948
866.137	20960
866.269	20963
866.4	20906
866.531	20845
866.662	20830
866.793	20868
866.924	20796
867.055	20891
867.186	20880
867.317	20819
867.448	20788
867.579	20861
867.71	20750
867.841	20727
867.972	20861
868.103	20807
868.233	20842
868.364	20849
868.495	20941
868.625	20960
868.756	21161
868.886	21085
869.017	21112
869.147	21233
869.278	21192
869.408	21036
869.539	21089
869.669	21176
869.799	21256
869.929	21283
870.06	21085
870.19	21370
870.32	21462
870.45	21469
870.58	21507
870.71	21682
870.84	21637
870.97	21580
871.1	21504
871.23	21652
871.36	21766
871.489	21679
871.619	21587
871.749	21774
871.879	21641
872.008	21781
872.138	21679
872.267	21599
872.397	21500
872.526	21595
872.656	21450
872.785	21542
872.915	21690
873.044	21766
873.173	21888
873.303	21705
873.432	21720
873.561	21808
873.69	21819
873.819	21778
873.948	21823
874.077	21671
874.206	21652
874.335	21785
874.464	21812
874.593	21964
874.722	21941
874.851	21880
874.979	21956
875.108	22017
875.237	21892
875.365	21698
875.494	21819
875.623	21968
875.751	21892
875.88	21831
876.008	22010
876.136	22120
876.265	22405
876.393	22459
876.521	22360
876.65	22409
876.778	22348
876.906	22253
877.034	22322
877.162	22295
877.29	22207
877.418	22284
877.546	22246
877.674	22154
877.802	22352
877.93	22223
878.058	22291
878.185	22204
878.313	22177
878.441	22234
878.568	22097
878.696	22268
878.824	22402
878.951	22413
879.079	22535
879.206	22694
879.333	22455
879.461	22432
879.588	22440
879.715	22344
879.842	22538
879.97	22287
880.097	22162
880.224	22128
880.351	22166
880.478	22105
880.605	22040
880.732	22044
880.859	22390
880.986	22139
881.112	22055
881.239	21983
881.366	21945
881.493	21812
881.619	21591
881.746	21736
881.872	21785
881.999	21698
882.125	21557
882.252	21797
882.378	21713
882.505	21739
882.631	21583
882.757	21393
882.883	21466
883.01	21367
883.136	21245
883.262	21157
883.388	21222
883.514	21321
883.64	21405
883.766	21302
883.892	21131
884.018	21245
884.143	21344
884.269	21393
884.395	21081
884.52	20941
884.646	21085
884.772	20921
884.897	20902
885.023	21119
885.148	21093
885.274	21138
885.399	21180
885.524	21043
885.65	21020
885.775	21017
885.9	20971
886.025	21165
886.15	21062
886.275	20891
886.4	20937
886.525	20986
886.65	20979
886.775	20944
886.9	21184
887.025	21157
887.149	21017
887.274	20857
887.399	20762
887.523	20906
887.648	20819
887.773	20830
887.897	20948
888.021	20864
888.146	20830
888.27	20796
888.395	20864
888.519	20773
888.643	20807
888.767	20750
888.891	20659
889.015	20556
889.139	20590
889.263	20541
889.387	20705
889.511	20785
889.635	20727
889.759	20587
889.883	20689
890.006	20492
890.13	20670
890.254	20511
890.377	20469
890.501	20339
890.624	20328
890.748	20412
890.871	20309
890.995	20263
891.118	20134
891.241	20153
891.364	20100
891.488	20218
891.611	20263
891.734	20248
891.857	20210
891.98	20180
892.103	20271
892.226	20183
892.349	20138
892.471	19940
892.594	20248
892.717	20149
892.839	20046
892.962	20122
893.085	20221
893.207	20065
893.33	19997
893.452	20005
893.575	20168
893.697	20077
893.819	20229
893.941	20408
894.064	20244
894.186	20077
894.308	20024
894.43	20122
894.552	20214
894.674	20206
894.796	20016
894.918	20202
895.04	20031
895.161	20130
895.283	20229
895.405	20115
895.526	20202
895.648	20214
895.769	20145
895.891	20153
896.012	20164
896.134	20237
896.255	20161
896.376	20107
896.498	20149
896.619	20149
896.74	20119
896.861	20134
896.982	20484
897.103	20556
897.224	20476
897.345	20328
897.466	20233
897.587	20298
897.708	20301
897.828	20366
897.949	20298
898.07	20172
898.19	20301
898.311	20454
898.431	20358
898.552	20370
898.672	20442
898.792	20488
898.913	20339
899.033	20210
899.153	20145
899.273	20001
899.393	20005
899.513	20050
899.633	20111
899.753	20031
899.873	20119
899.993	20183
900.113	20027
900.232	20100
900.352	20001
900.472	19845
900.591	19845
900.711	19947
900.83	19784
900.95	19921
901.069	19913
901.189	19712
901.308	19518
901.427	19506
901.546	19502
901.665	19464
901.784	19521
901.904	19304
902.023	19297
902.141	19031
902.26	19038
902.379	19069
902.498	18981
902.617	18932
902.735	18962
902.854	19015
902.973	18829
903.091	18650
903.21	18593
903.328	18635
903.446	18525
903.565	18521
903.683	18437
903.801	18399
903.919	18452
904.038	18418
904.156	18174
904.274	18258
904.392	18201
904.51	18091
904.627	18239
904.745	18315
904.863	18254
904.981	17988
905.098	17859
905.216	17832
905.334	17893
905.451	17866
905.569	17824
905.686	17954
905.803	17874
905.921	17703
906.038	17767
906.155	17729
906.272	17566
906.389	17516
906.506	17398
906.623	17444
906.74	17398
906.857	17318
906.974	17326
907.091	17490
907.208	17490
907.324	17505
907.441	17303
907.557	17235
907.674	17109
907.79	16965
907.907	17006
908.023	17166
908.139	17181
908.256	17128
908.372	17045
908.488	16889
908.604	16824
908.72	16831
908.836	16949
908.952	16797
909.068	16923
909.184	16866
909.3	16767
909.415	16824
909.531	16778
909.647	16622
909.762	16637
909.878	16447
909.993	16588
910.108	16508
910.224	16512
910.339	16481
910.454	16451
910.57	16318
910.685	16314
910.8	16649
910.915	16565
911.03	16375
911.145	16154
911.259	16154
911.374	16150
911.489	16097
911.604	15991
911.718	15975
911.833	15953
911.947	15816
912.062	15797
912.176	15838
912.291	15926
912.405	15918
912.519	16128
912.633	16090
912.748	15953
912.862	15911
912.976	15770
913.09	15610
913.204	15679
913.318	15747
913.431	15812
913.545	15781
913.659	15770
913.772	15610
913.886	15504
914	15485
914.113	15515
914.226	15675
914.34	15568
914.453	15279
914.566	15523
914.68	15408
914.793	15306
914.906	15249
915.019	15146
915.132	15093
915.245	15127
915.358	15203
915.47	15100
915.583	15093
915.696	15207
915.809	15226
915.921	15176
916.034	15017
916.146	15017
916.259	14963
916.371	15097
916.483	15005
916.595	14990
916.708	14906
916.82	15005
916.932	15001
917.044	14876
917.156	14876
917.268	14769
917.38	14857
917.491	14872
917.603	14705
917.715	14838
917.826	14746
917.938	14727
918.049	14617
918.161	14773
918.272	14891
918.384	14883
918.495	14731
918.606	14632
918.717	14469
918.828	14568
918.939	14560
919.05	14446
919.161	14503
919.272	14412
919.383	14381
919.494	14495
919.604	14686
919.715	14606
919.826	14488
919.936	14537
920.047	14625
920.157	14438
920.267	14674
920.378	14537
920.488	14511
920.598	14659
920.708	14765
920.818	14663
920.928	14606
921.038	14819
921.148	14712
921.258	14431
921.368	14400
921.477	14237
921.587	14210
921.697	14157
921.806	14237
921.916	14077
922.025	13963
922.134	13898
922.244	13826
922.353	13940
922.462	13791
922.571	13704
922.68	13510
922.789	13552
922.898	13499
923.007	13514
923.116	13540
923.224	13480
923.333	13502
923.442	13354
923.55	13339
923.659	13400
923.767	13396
923.876	13244
923.984	13369
924.092	13304
924.201	13251
924.309	13194
924.417	13247
924.525	13171
924.633	13213
924.741	14103
924.849	13034
924.956	12996
925.064	13012
925.172	12852
925.279	12897
925.387	12958
925.494	12932
925.602	13072
925.709	12954
925.816	12837
925.924	12928
926.031	13008
926.138	12825
926.245	12947
926.352	12772
926.459	13015
926.566	12962
926.673	12886
926.779	12753
926.886	12757
926.993	12566
927.099	12544
927.206	12502
927.312	12479
927.419	12521
927.525	12494
927.631	12513
927.737	12418
927.843	12388
927.95	12209
928.056	12338
928.162	12372
928.267	12407
928.373	12958
928.479	12399
928.585	12220
928.69	12209
928.796	12395
928.901	12152
929.007	12038
929.112	12144
929.218	12129
929.323	12163
929.428	12079
929.533	12175
929.638	11973
929.743	11935
929.848	12057
929.953	11942
930.058	11942
930.163	11707
930.267	11813
930.372	11901
930.477	11695
930.581	11939
930.685	11817
930.79	11630
930.894	11695
930.998	11516
931.103	11726
931.207	11425
931.311	11326
931.415	11189
931.519	10980
931.623	11025
