Data from test_V78500241_2033.txt Node
Date: Fri Mar 25 15:55:53 CST 2022
User: usil
Spectrometer: V785-0024
Trigger mode: 0
Integration Time (sec): 4.000000E-1
Scans to average: 1
Nonlinearity correction enabled: false
Boxcar width: 0
Storing dark spectrum: false
XAxis mode: Wavelengths
Number of Pixels in Spectrum: 1024
>>>>>Begin Spectral Data<<<<<
801.071	28961
801.214	28892
801.356	28816
801.499	28656
801.641	28474
801.783	28641
801.926	28634
802.068	28561
802.211	28459
802.353	28394
802.496	28234
802.638	28424
802.78	28329
802.923	28154
803.065	28090
803.208	28230
803.35	28204
803.492	28428
803.635	28527
803.777	28417
803.919	28504
804.061	28694
804.204	28538
804.346	28497
804.488	28409
804.63	28447
804.773	28447
804.915	28622
805.057	28691
805.199	28421
805.341	28557
805.483	28660
805.626	28713
805.768	28440
805.91	28854
806.052	28736
806.194	28546
806.336	28755
806.478	28622
806.62	28672
806.762	28687
806.904	28930
807.046	29151
807.188	29124
807.33	29155
807.472	29296
807.614	28999
807.756	29060
807.898	28904
808.04	28999
808.182	28946
808.324	28976
808.465	29140
808.607	29299
808.749	29372
808.891	29345
809.033	29463
809.174	29364
809.316	29200
809.458	29425
809.6	29395
809.741	29471
809.883	29497
810.025	29798
810.166	29596
810.308	29707
810.45	29794
810.591	29592
810.733	29463
810.875	29436
811.016	29292
811.158	29444
811.299	29493
811.441	29524
811.582	29459
811.724	29406
811.865	29429
812.007	29421
812.148	29307
812.29	29482
812.431	29566
812.573	29722
812.714	29870
812.855	29901
812.997	30003
813.138	30114
813.279	29992
813.421	29946
813.562	29916
813.703	29680
813.845	29665
813.986	29391
814.127	29094
814.268	29086
814.41	29105
814.551	29064
814.692	29181
814.833	29048
814.974	29086
815.115	29155
815.256	29044
815.397	28904
815.539	28999
815.68	28888
815.821	28873
815.962	28919
816.103	28706
816.244	28877
816.385	28615
816.526	28470
816.666	28447
816.807	28291
816.948	28531
817.089	28436
817.23	28523
817.371	28310
817.512	28363
817.653	28371
817.793	28401
817.934	28333
818.075	28375
818.216	28360
818.356	28287
818.497	28310
818.638	28280
818.778	28143
818.919	28276
819.06	28188
819.2	28272
819.341	28428
819.481	28409
819.622	28611
819.762	28805
819.903	28763
820.043	28569
820.184	28432
820.324	28664
820.465	28637
820.605	28649
820.746	28527
820.886	28394
821.026	28489
821.167	28516
821.307	28641
821.447	28497
821.588	28421
821.728	28436
821.868	27979
822.008	27956
822.149	27861
822.289	27793
822.429	27671
822.569	27549
822.709	27720
822.849	27401
822.99	27458
823.13	27477
823.27	27325
823.41	27195
823.55	27009
823.69	27157
823.83	27275
823.97	27150
824.11	26979
824.25	26933
824.389	27062
824.529	27218
824.669	27001
824.809	27218
824.949	27119
825.089	27184
825.228	27089
825.368	26914
825.508	26918
825.648	26906
825.787	26998
825.927	26971
826.067	26876
826.206	26940
826.346	26998
826.485	26982
826.625	26963
826.765	27184
826.904	27024
827.044	26617
827.183	26667
827.323	26655
827.462	26754
827.601	26724
827.741	26560
827.88	26754
828.02	26587
828.159	26636
828.298	26674
828.437	26804
828.577	26602
828.716	26792
828.855	26514
828.994	26328
829.134	26358
829.273	26457
829.412	26294
829.551	26202
829.69	26366
829.829	26317
829.968	26336
830.107	26370
830.246	26347
830.385	26240
830.524	26100
830.663	26058
830.802	26115
830.941	25947
831.08	25883
831.219	25871
831.357	26195
831.496	26180
831.635	25932
831.774	25879
831.913	25868
832.051	25799
832.19	25868
832.329	25708
832.467	25613
832.606	25453
832.744	25544
832.883	25601
833.022	25491
833.16	25632
833.299	25677
833.437	25616
833.576	25632
833.714	25597
833.852	25784
833.991	25647
834.129	25734
834.267	25772
834.406	25571
834.544	25746
834.682	25575
834.821	25681
834.959	25837
835.097	25601
835.235	25670
835.373	25651
835.511	25769
835.65	25540
835.788	25529
835.926	25358
836.064	25362
836.202	25350
836.34	25449
836.478	25578
836.615	25495
836.753	25381
836.891	25533
837.029	25674
837.167	25434
837.305	25468
837.443	25343
837.58	25392
837.718	25403
837.856	25339
837.993	25304
838.131	25339
838.269	25255
838.406	25228
838.544	25118
838.681	24981
838.819	25012
838.956	24802
839.094	24806
839.231	24856
839.369	24928
839.506	25133
839.643	24977
839.781	24779
839.918	24719
840.055	24814
840.193	24726
840.33	24639
840.467	24692
840.604	24711
840.742	24958
840.879	24578
841.016	24612
841.153	24604
841.29	24768
841.427	24711
841.564	24787
841.701	24757
841.838	24525
841.975	24544
842.112	24589
842.249	24521
842.385	24410
842.522	24665
842.659	24574
842.796	24486
842.933	24308
843.069	24327
843.206	24445
843.343	24502
843.479	24486
843.616	24410
843.752	24220
843.889	24296
844.025	24350
844.162	24144
844.298	24380
844.435	24254
844.571	24243
844.708	24224
844.844	24330
844.98	24327
845.117	24346
845.253	24201
845.389	24038
845.525	24148
845.661	24049
845.798	24030
845.934	24007
846.07	23988
846.206	24121
846.342	24011
846.478	23958
846.614	23741
846.75	23661
846.886	23680
847.022	23851
847.158	23676
847.294	23634
847.429	23752
847.565	23619
847.701	23836
847.837	23337
847.972	23326
848.108	23520
848.244	23505
848.379	23231
848.515	23231
848.65	23292
848.786	23273
848.921	23250
849.057	23307
849.192	23239
849.328	23216
849.463	23235
849.598	23212
849.734	23124
849.869	23174
850.004	22881
850.14	23010
850.275	23014
850.41	23010
850.545	22991
850.68	22972
850.815	23029
850.95	22987
851.085	23223
851.22	23204
851.355	23025
851.49	22987
851.625	23056
851.76	22923
851.895	23048
852.03	22850
852.165	23022
852.299	23018
852.434	23113
852.569	23109
852.703	23010
852.838	22984
852.973	23109
853.107	23086
853.242	22881
853.376	22885
853.511	22698
853.645	22778
853.78	22965
853.914	22946
854.048	22672
854.183	22793
854.317	22858
854.451	23037
854.585	22877
854.72	22858
854.854	22908
854.988	22809
855.122	22850
855.256	22664
855.39	22740
855.524	22877
855.658	22869
855.792	22961
855.926	22797
856.06	22911
856.194	22892
856.327	22801
856.461	22721
856.595	22733
856.729	22923
856.862	22930
856.996	22786
857.13	22919
857.263	22904
857.397	22828
857.53	22805
857.664	22786
857.797	22877
857.931	22919
858.064	22965
858.197	22980
858.331	22717
858.464	22801
858.597	22706
858.731	22763
858.864	22873
858.997	22763
859.13	22847
859.263	22717
859.396	22915
859.529	22896
859.662	22877
859.795	22755
859.928	22854
860.061	23075
860.194	22987
860.327	22908
860.46	22900
860.592	22862
860.725	23037
860.858	22866
860.99	22858
861.123	22759
861.256	22805
861.388	22736
861.521	23558
861.653	22755
861.786	22645
861.918	22580
862.05	22675
862.183	22801
862.315	22740
862.447	22767
862.58	22664
862.712	22535
862.844	22451
862.976	22637
863.108	22645
863.24	22900
863.372	22538
863.504	22542
863.636	22462
863.768	22531
863.9	22656
864.032	22565
864.164	22485
864.296	22561
864.428	22622
864.559	22592
864.691	22649
864.823	22527
864.954	22409
865.086	22481
865.217	22428
865.349	22367
865.48	22474
865.612	22421
865.743	22554
865.875	22447
866.006	22402
866.137	22436
866.269	22344
866.4	22253
866.531	22344
866.662	22261
866.793	22356
866.924	22352
867.055	22394
867.186	22261
867.317	22314
867.448	22253
867.579	22291
867.71	22268
867.841	22299
867.972	22291
868.103	22268
868.233	22310
868.364	22230
868.495	22466
868.625	22538
868.756	22557
868.886	22611
869.017	22500
869.147	22675
869.278	22744
869.408	22580
869.539	22611
869.669	22664
869.799	22694
869.929	22725
870.06	22706
870.19	22790
870.32	22987
870.45	22892
870.58	22965
870.71	23060
870.84	23018
870.97	22991
871.1	22915
871.23	23174
871.36	23223
871.489	23132
871.619	23140
871.749	23200
871.879	23189
872.008	23315
872.138	23140
872.267	23189
872.397	23170
872.526	23041
872.656	23041
872.785	23018
872.915	23124
873.044	23315
873.173	23185
873.303	23296
873.432	23197
873.561	23273
873.69	23303
873.819	23231
873.948	23284
874.077	23159
874.206	23231
874.335	23193
874.464	23391
874.593	23254
874.722	23356
874.851	23360
874.979	23436
875.108	23444
875.237	23315
875.365	23368
875.494	23383
875.623	23474
875.751	23337
875.88	23429
876.008	23554
876.136	23471
876.265	23802
876.393	23927
876.521	23783
876.65	23912
876.778	23859
876.906	23710
877.034	23646
877.162	23805
877.29	23733
877.418	23893
877.546	23665
877.674	23676
877.802	23790
877.93	23733
878.058	23691
878.185	23452
878.313	23649
878.441	23714
878.568	23509
878.696	23490
878.824	23722
878.951	23779
879.079	23954
879.206	23965
879.333	23885
879.461	23741
879.588	23866
879.715	23855
879.842	24133
879.97	23805
880.097	23547
880.224	23490
880.351	23570
880.478	23509
880.605	23570
880.732	23649
880.859	23874
880.986	23623
881.112	23509
881.239	23478
881.366	23258
881.493	23178
881.619	23041
881.746	23155
881.872	23166
881.999	23094
882.125	23006
882.252	23094
882.378	23128
882.505	23280
882.631	22965
882.757	22900
882.883	22915
883.01	22759
883.136	22771
883.262	22672
883.388	22588
883.514	22869
883.64	22748
883.766	22611
883.892	22531
884.018	22580
884.143	22691
884.269	22831
884.395	22546
884.52	22303
884.646	22310
884.772	22375
884.897	22272
885.023	22333
885.148	22550
885.274	22466
885.399	22352
885.524	22459
885.65	22333
885.775	22405
885.9	22485
886.025	22497
886.15	22421
886.275	22318
886.4	22314
886.525	22474
886.65	22272
886.775	22443
886.9	22527
887.025	22546
887.149	22375
887.274	22341
887.399	22169
887.523	22105
887.648	22139
887.773	22067
887.897	22272
888.021	22196
888.146	22154
888.27	22284
888.395	22223
888.519	22067
888.643	22215
888.767	22200
888.891	22135
889.015	22013
889.139	21998
889.263	21937
889.387	22048
889.511	22188
889.635	21937
889.759	21892
889.883	21979
890.006	21930
890.13	22082
890.254	21774
890.377	21907
890.501	21732
890.624	21728
890.748	21614
890.871	21477
890.995	21523
891.118	21534
891.241	21424
891.364	21515
891.488	21641
891.611	21450
891.734	21549
891.857	21644
891.98	21644
892.103	21504
892.226	21610
892.349	21386
892.471	21195
892.594	21382
892.717	21412
892.839	21523
892.962	21401
893.085	21462
893.207	21287
893.33	21264
893.452	21329
893.575	21416
893.697	21230
893.819	21663
893.941	21542
894.064	21462
894.186	21264
894.308	21176
894.43	21538
894.552	21496
894.674	21557
894.796	21386
894.918	21260
895.04	21351
895.161	21393
895.283	21340
895.405	21291
895.526	21329
895.648	21252
895.769	21386
895.891	21397
896.012	21534
896.134	21317
896.255	21256
896.376	21306
896.498	21329
896.619	21374
896.74	21386
896.861	21374
896.982	21656
897.103	21812
897.224	21606
897.345	21641
897.466	21473
897.587	21454
897.708	21675
897.828	21542
897.949	21625
898.07	21454
898.19	21625
898.311	21622
898.431	21454
898.552	21576
898.672	21656
898.792	21625
898.913	21496
899.033	21386
899.153	21283
899.273	21138
899.393	21313
899.513	21329
899.633	21382
899.753	21272
899.873	21188
899.993	21283
900.113	21135
900.232	21104
900.352	21241
900.472	21184
900.591	21024
900.711	21085
900.83	20982
900.95	21032
901.069	21119
901.189	20921
901.308	20693
901.427	20518
901.546	20602
901.665	20655
901.784	20568
901.904	20488
902.023	20518
902.141	20180
902.26	20202
902.379	20218
902.498	20020
902.617	20107
902.735	20081
902.854	20035
902.973	20069
903.091	19738
903.21	19761
903.328	19727
903.446	19674
903.565	19502
903.683	19616
903.801	19373
903.919	19514
904.038	19537
904.156	19251
904.274	19495
904.392	19228
904.51	19331
904.627	19225
904.745	19266
904.863	19388
904.981	19114
905.098	18954
905.216	19137
905.334	18970
905.451	19057
905.569	18947
905.686	19053
905.803	18973
905.921	18856
906.038	18859
906.155	18791
906.272	18726
906.389	18726
906.506	18502
906.623	18490
906.74	18426
906.857	18380
906.974	18365
907.091	18585
907.208	18631
907.324	18483
907.441	18414
907.557	18239
907.674	18209
907.79	18174
907.907	18159
908.023	18201
908.139	18247
908.256	18129
908.372	18041
908.488	18095
908.604	17954
908.72	17931
908.836	17961
908.952	17836
909.068	17935
909.184	18057
909.3	17847
909.415	17961
909.531	17908
909.647	17710
909.762	17672
909.878	17600
909.993	17676
910.108	17539
910.224	17493
910.339	17516
910.454	17455
910.57	17368
910.685	17376
910.8	17512
910.915	17627
911.03	17425
911.145	17193
911.259	17250
911.374	17075
911.489	17124
911.604	17033
911.718	16923
911.833	16915
911.947	16904
912.062	16812
912.176	16881
912.291	16927
912.405	16942
912.519	17067
912.633	17086
912.748	16938
912.862	16858
912.976	16759
913.09	16691
913.204	16679
913.318	16733
913.431	16786
913.545	16877
913.659	16820
913.772	16721
913.886	16592
914	16466
914.113	16542
914.226	16580
914.34	16668
914.453	16295
914.566	16489
914.68	16337
914.793	16367
914.906	16234
915.019	16131
915.132	15998
915.245	16109
915.358	16078
915.47	16029
915.583	16112
915.696	16124
915.809	16150
915.921	16238
916.034	16078
916.146	15892
916.259	15972
916.371	16120
916.483	16040
916.595	15972
916.708	15972
916.82	15865
916.932	15812
917.044	15899
917.156	15842
917.268	15610
917.38	15819
917.491	15762
917.603	15755
917.715	15778
917.826	15861
917.938	15717
918.049	15504
918.161	15496
918.272	15823
918.384	15842
918.495	15614
918.606	15564
918.717	15340
918.828	15485
918.939	15454
919.05	15378
919.161	15428
919.272	15249
919.383	15279
919.494	15447
919.604	15572
919.715	15367
919.826	15374
919.936	15416
920.047	15416
920.157	15435
920.267	15622
920.378	15466
920.488	15386
920.598	15526
920.708	15732
920.818	15557
920.928	15504
921.038	15606
921.148	15576
921.258	15336
921.368	15138
921.477	15188
921.587	15039
921.697	15058
921.806	15214
921.916	14937
922.025	14830
922.134	14823
922.244	14693
922.353	14804
922.462	14610
922.571	14492
922.68	14469
922.789	14389
922.898	14438
923.007	14210
923.116	14454
923.224	14351
923.333	14393
923.442	14168
923.55	14176
923.659	14244
923.767	14248
923.876	14096
923.984	14221
924.092	13986
924.201	14153
924.309	14103
924.417	14103
924.525	13978
924.633	13970
924.741	14902
924.849	13757
924.956	13974
925.064	13864
925.172	13719
925.279	13734
925.387	13757
925.494	13719
925.602	13833
925.709	13833
925.816	13582
925.924	13590
926.031	13845
926.138	13712
926.245	13761
926.352	13605
926.459	13727
926.566	13613
926.673	13525
926.779	13483
926.886	13483
926.993	13339
927.099	13324
927.206	13206
927.312	13217
927.419	13343
927.525	13270
927.631	13255
927.737	13103
927.843	13107
927.95	13012
928.056	13114
928.162	13038
928.267	13107
928.373	13719
928.479	13129
928.585	12787
928.69	13004
928.796	13050
928.901	12985
929.007	12840
929.112	12996
929.218	12924
929.323	12878
929.428	12890
929.533	12962
929.638	12620
929.743	12738
929.848	12700
929.953	12650
930.058	12722
930.163	12452
930.267	12422
930.372	12555
930.477	12456
930.581	12574
930.685	12441
930.79	12304
930.894	12429
930.998	12311
931.103	12471
931.207	12098
931.311	12034
931.415	11935
931.519	11649
931.623	11646
