Data from test_V78500241_2939.txt Node
Date: Fri Mar 25 16:02:09 CST 2022
User: usil
Spectrometer: V785-0024
Trigger mode: 0
Integration Time (sec): 4.000000E-1
Scans to average: 1
Nonlinearity correction enabled: false
Boxcar width: 0
Storing dark spectrum: false
XAxis mode: Wavelengths
Number of Pixels in Spectrum: 1024
>>>>>Begin Spectral Data<<<<<
801.071	28577
801.214	28538
801.356	28318
801.499	28306
801.641	28177
801.783	28219
801.926	28272
802.068	28188
802.211	28211
802.353	28131
802.496	28067
802.638	28013
802.78	27842
802.923	27682
803.065	27789
803.208	27774
803.35	27717
803.492	27873
803.635	27964
803.777	27979
803.919	28185
804.061	28447
804.204	28082
804.346	28124
804.488	28051
804.63	28128
804.773	28070
804.915	28223
805.057	28169
805.199	28196
805.341	28154
805.483	28162
805.626	28154
805.768	28032
805.91	28234
806.052	28131
806.194	28207
806.336	28329
806.478	28303
806.62	28322
806.762	28386
806.904	28512
807.046	28850
807.188	28599
807.33	28615
807.472	28866
807.614	28653
807.756	28557
807.898	28672
808.04	28550
808.182	28523
808.324	28618
808.465	28641
808.607	28706
808.749	28999
808.891	28949
809.033	29060
809.174	28946
809.316	29022
809.458	28946
809.6	28908
809.741	29083
809.883	29071
810.025	29246
810.166	29178
810.308	29204
810.45	29140
810.591	29181
810.733	28946
810.875	28961
811.016	28797
811.158	28835
811.299	28984
811.441	29288
811.582	29128
811.724	28904
811.865	28946
812.007	28854
812.148	28847
812.29	28965
812.431	29174
812.573	29265
812.714	29379
812.855	29459
812.997	29493
813.138	29619
813.279	29687
813.421	29524
813.562	29455
813.703	29273
813.845	29113
813.986	29025
814.127	28831
814.268	28721
814.41	28713
814.551	28637
814.692	28615
814.833	28550
814.974	28557
815.115	28596
815.256	28607
815.397	28634
815.539	28611
815.68	28508
815.821	28280
815.962	28379
816.103	28421
816.244	28249
816.385	28249
816.526	28177
816.666	27987
816.807	27956
816.948	28158
817.089	28059
817.23	28223
817.371	28021
817.512	28006
817.653	28086
817.793	27937
817.934	27899
818.075	28044
818.216	28013
818.356	27983
818.497	27846
818.638	27720
818.778	27622
818.919	27751
819.06	27857
819.2	27808
819.341	27953
819.481	28070
819.622	28074
819.762	28405
819.903	28272
820.043	28215
820.184	28105
820.324	28097
820.465	28074
820.605	28036
820.746	28040
820.886	27869
821.026	28074
821.167	28139
821.307	27945
821.447	27930
821.588	27972
821.728	27732
821.868	27739
822.008	27564
822.149	27564
822.289	27435
822.429	27207
822.569	27112
822.709	27138
822.849	27036
822.99	26990
823.13	26975
823.27	26944
823.41	26906
823.55	26693
823.69	26796
823.83	26857
823.97	26746
824.11	26537
824.25	26609
824.389	26735
824.529	26609
824.669	26518
824.809	26708
824.949	26754
825.089	26807
825.228	26651
825.368	26355
825.508	26385
825.648	26617
825.787	26552
825.927	26575
826.067	26476
826.206	26552
826.346	26575
826.485	26549
826.625	26438
826.765	26632
826.904	26556
827.044	26229
827.183	26191
827.323	26145
827.462	26233
827.601	26305
827.741	26069
827.88	26355
828.02	26130
828.159	26233
828.298	26347
828.437	26229
828.577	26081
828.716	26324
828.855	26103
828.994	25986
829.134	25780
829.273	25845
829.412	25860
829.551	25822
829.69	25906
829.829	25928
829.968	26039
830.107	25932
830.246	25833
830.385	25894
830.524	25788
830.663	25712
830.802	25563
830.941	25483
831.08	25434
831.219	25548
831.357	25609
831.496	25731
831.635	25529
831.774	25396
831.913	25445
832.051	25251
832.19	25301
832.329	25293
832.467	25168
832.606	25012
832.744	25095
832.883	25198
833.022	25164
833.16	25202
833.299	25278
833.437	25122
833.576	25278
833.714	25320
833.852	25183
833.991	25335
834.129	25301
834.267	25403
834.406	25289
834.544	25168
834.682	25297
834.821	25168
834.959	25430
835.097	25251
835.235	25301
835.373	25244
835.511	25175
835.65	25129
835.788	25027
835.926	24894
836.064	24760
836.202	24890
836.34	25034
836.478	25015
836.615	25061
836.753	25088
836.891	25152
837.029	25012
837.167	25099
837.305	25008
837.443	24970
837.58	24890
837.718	25000
837.856	24920
837.993	24844
838.131	24943
838.269	24802
838.406	24905
838.544	24757
838.681	24521
838.819	24532
838.956	24407
839.094	24258
839.231	24502
839.369	24639
839.506	24677
839.643	24612
839.781	24414
839.918	24213
840.055	24281
840.193	24304
840.33	24323
840.467	24186
840.604	24414
840.742	24521
840.879	24155
841.016	24201
841.153	24129
841.29	24319
841.427	24258
841.564	24350
841.701	24285
841.838	24205
841.975	24338
842.112	24197
842.249	24068
842.385	24038
842.522	24239
842.659	24018
842.796	24003
842.933	24018
843.069	23973
843.206	24057
843.343	24117
843.479	23958
843.616	23882
843.752	23836
843.889	23752
844.025	23992
844.162	23893
844.298	23889
844.435	23878
844.571	23627
844.708	23866
844.844	23832
844.98	24015
845.117	23988
845.253	23764
845.389	23589
845.525	23680
845.661	23680
845.798	23577
845.934	23566
846.07	23501
846.206	23535
846.342	23592
846.478	23444
846.614	23280
846.75	23170
846.886	23212
847.022	23360
847.158	23258
847.294	23204
847.429	23265
847.565	23227
847.701	23448
847.837	22949
847.972	23003
848.108	23185
848.244	23064
848.379	22752
848.515	22858
848.65	22771
848.786	22782
848.921	22908
849.057	23067
849.192	22892
849.328	22881
849.463	22831
849.598	22790
849.734	22729
849.869	22744
850.004	22561
850.14	22637
850.275	22588
850.41	22493
850.545	22348
850.68	22615
850.815	22683
850.95	22634
851.085	22824
851.22	22702
851.355	22660
851.49	22504
851.625	22497
851.76	22596
851.895	22569
852.03	22554
852.165	22668
852.299	22615
852.434	22717
852.569	22649
852.703	22622
852.838	22615
852.973	22759
853.107	22744
853.242	22497
853.376	22550
853.511	22287
853.645	22451
853.78	22607
853.914	22356
854.048	22417
854.183	22287
854.317	22485
854.451	22615
854.585	22333
854.72	22344
854.854	22531
854.988	22379
855.122	22478
855.256	22261
855.39	22447
855.524	22519
855.658	22546
855.792	22470
855.926	22417
856.06	22417
856.194	22508
856.327	22314
856.461	22344
856.595	22478
856.729	22284
856.862	22577
856.996	22474
857.13	22432
857.263	22424
857.397	22512
857.53	22421
857.664	22382
857.797	22459
857.931	22580
858.064	22470
858.197	22481
858.331	22379
858.464	22322
858.597	22253
858.731	22367
858.864	22459
858.997	22268
859.13	22424
859.263	22322
859.396	22535
859.529	22379
859.662	22409
859.795	22299
859.928	22386
860.061	22557
860.194	22580
860.327	22459
860.46	22409
860.592	22561
860.725	22588
860.858	22569
860.99	22325
861.123	22405
861.256	22314
861.388	22455
861.521	23147
861.653	22360
861.786	22234
861.918	22341
862.05	22314
862.183	22318
862.315	22485
862.447	22470
862.58	22363
862.712	22055
862.844	22063
862.976	22196
863.108	22188
863.24	22622
863.372	22162
863.504	22078
863.636	22128
863.768	22158
863.9	22147
864.032	22074
864.164	22097
864.296	22143
864.428	22135
864.559	22200
864.691	22135
864.823	22059
864.954	22074
865.086	22097
865.217	21949
865.349	22048
865.48	22040
865.612	21964
865.743	22070
865.875	21998
866.006	21937
866.137	21991
866.269	21956
866.4	21979
866.531	22021
866.662	21934
866.793	21892
866.924	21972
867.055	21941
867.186	21991
867.317	21926
867.448	21903
867.579	21865
867.71	21861
867.841	21861
867.972	21895
868.103	21972
868.233	21998
868.364	21949
868.495	22006
868.625	22116
868.756	22177
868.886	22200
869.017	22097
869.147	22287
869.278	22246
869.408	22226
869.539	22139
869.669	22284
869.799	22333
869.929	22344
870.06	22223
870.19	22535
870.32	22474
870.45	22375
870.58	22478
870.71	22630
870.84	22752
870.97	22497
871.1	22550
871.23	22744
871.36	22843
871.489	22748
871.619	22869
871.749	22824
871.879	22881
872.008	22927
872.138	22835
872.267	22847
872.397	22824
872.526	22611
872.656	22679
872.785	22763
872.915	22828
873.044	22881
873.173	22786
873.303	22873
873.432	22900
873.561	22976
873.69	22934
873.819	22816
873.948	22816
874.077	22847
874.206	22953
874.335	22961
874.464	22889
874.593	23064
874.722	22999
874.851	23052
874.979	23090
875.108	23151
875.237	22972
875.365	22972
875.494	23079
875.623	23079
875.751	23041
875.88	23025
876.008	23075
876.136	23227
876.265	23345
876.393	23535
876.521	23551
876.65	23493
876.778	23493
876.906	23395
877.034	23425
877.162	23448
877.29	23360
877.418	23459
877.546	23372
877.674	23417
877.802	23463
877.93	23330
878.058	23360
878.185	23193
878.313	23288
878.441	23410
878.568	23265
878.696	23387
878.824	23387
878.951	23551
879.079	23642
879.206	23684
879.333	23531
879.461	23387
879.588	23406
879.715	23497
879.842	23615
879.97	23406
880.097	23250
880.224	23250
880.351	23212
880.478	23197
880.605	23075
880.732	23452
880.859	23455
880.986	23151
881.112	23299
881.239	23014
881.366	22991
881.493	22824
881.619	22797
881.746	22820
881.872	22782
881.999	22733
882.125	22702
882.252	22847
882.378	22721
882.505	22831
882.631	22679
882.757	22527
882.883	22451
883.01	22508
883.136	22527
883.262	22363
883.388	22299
883.514	22474
883.64	22440
883.766	22367
883.892	22185
884.018	22325
884.143	22432
884.269	22417
884.395	22192
884.52	22078
884.646	22006
884.772	22036
884.897	22063
885.023	22139
885.148	22166
885.274	22207
885.399	22188
885.524	22032
885.65	22063
885.775	22147
885.9	21934
886.025	22166
886.15	22192
886.275	22006
886.4	22017
886.525	22093
886.65	21983
886.775	22040
886.9	22124
887.025	22185
887.149	22101
887.274	21865
887.399	21865
887.523	21903
887.648	21759
887.773	21694
887.897	21937
888.021	21926
888.146	21823
888.27	21941
888.395	21865
888.519	21964
888.643	21998
888.767	21964
888.891	21713
889.015	21701
889.139	21789
889.263	21572
889.387	21652
889.511	21812
889.635	21755
889.759	21671
889.883	21511
890.006	21599
890.13	21614
890.254	21530
890.377	21542
890.501	21355
890.624	21313
890.748	21306
890.871	21321
890.995	21085
891.118	21074
891.241	21184
891.364	21291
891.488	21378
891.611	21173
891.734	21260
891.857	21192
891.98	21089
892.103	21165
892.226	21192
892.349	21138
892.471	21066
892.594	21013
892.717	21089
892.839	21112
892.962	21066
893.085	21199
893.207	21089
893.33	20906
893.452	20956
893.575	21104
893.697	21017
893.819	21192
893.941	21336
894.064	21119
894.186	21077
894.308	20963
894.43	21096
894.552	21192
894.674	21032
894.796	20921
894.918	20998
895.04	21020
895.161	21058
895.283	21032
895.405	20910
895.526	21066
895.648	21013
895.769	21100
895.891	21013
896.012	21131
896.134	21173
896.255	21085
896.376	21013
896.498	21005
896.619	21104
896.74	20944
896.861	21131
896.982	21348
897.103	21580
897.224	21283
897.345	21214
897.466	21119
897.587	21382
897.708	21329
897.828	21321
897.949	21188
898.07	21123
898.19	21207
898.311	21348
898.431	21089
898.552	21252
898.672	21329
898.792	21332
898.913	21264
899.033	21230
899.153	21009
899.273	20941
899.393	20971
899.513	21039
899.633	20914
899.753	21020
899.873	20834
899.993	21013
900.113	20845
900.232	20868
900.352	20998
900.472	20739
900.591	20743
900.711	20781
900.83	20708
900.95	20823
901.069	20830
901.189	20659
901.308	20431
901.427	20305
901.546	20374
901.665	20309
901.784	20252
901.904	20286
902.023	20081
902.141	19902
902.26	19913
902.379	20027
902.498	19944
902.617	19875
902.735	19731
902.854	19757
902.973	19852
903.091	19373
903.21	19506
903.328	19567
903.446	19362
903.565	19202
903.683	19422
903.801	19118
903.919	19247
904.038	19285
904.156	19061
904.274	19160
904.392	18993
904.51	19042
904.627	19057
904.745	19053
904.863	19137
904.981	18783
905.098	18631
905.216	18681
905.334	18810
905.451	18757
905.569	18722
905.686	18734
905.803	18669
905.921	18441
906.038	18627
906.155	18418
906.272	18418
906.389	18437
906.506	18232
906.623	18296
906.74	18235
906.857	18125
906.974	18171
907.091	18300
907.208	18399
907.324	18213
907.441	18159
907.557	18030
907.674	17954
907.79	17760
907.907	17923
908.023	17996
908.139	17859
908.256	17904
908.372	17775
908.488	17882
908.604	17684
908.72	17596
908.836	17733
908.952	17532
909.068	17726
909.184	17653
909.3	17566
909.415	17714
909.531	17581
909.647	17391
909.762	17315
909.878	17349
909.993	17387
910.108	17299
910.224	17216
910.339	17216
910.454	17261
910.57	17121
910.685	17041
910.8	17349
910.915	17330
911.03	17136
911.145	17025
911.259	16862
911.374	17006
911.489	16835
911.604	16755
911.718	16672
911.833	16672
911.947	16622
912.062	16535
912.176	16603
912.291	16740
912.405	16630
912.519	16835
912.633	16828
912.748	16725
912.862	16519
912.976	16478
913.09	16394
913.204	16413
913.318	16470
913.431	16615
913.545	16413
913.659	16630
913.772	16428
913.886	16276
914	16253
914.113	16341
914.226	16428
914.34	16462
914.453	16169
914.566	16348
914.68	16177
914.793	16124
914.906	15918
915.019	15869
915.132	15759
915.245	15869
915.358	15873
915.47	15789
915.583	15884
915.696	15907
915.809	15972
915.921	15918
916.034	15884
916.146	15705
916.259	15690
916.371	15766
916.483	15747
916.595	15675
916.708	15736
916.82	15663
916.932	15595
917.044	15599
917.156	15507
917.268	15496
917.38	15485
917.491	15408
917.603	15485
917.715	15545
917.826	15477
917.938	15344
918.049	15420
918.161	15401
918.272	15481
918.384	15431
918.495	15462
918.606	15245
918.717	15150
918.828	15184
918.939	15283
919.05	15176
919.161	15165
919.272	15051
919.383	15085
919.494	15176
919.604	15351
919.715	15173
919.826	15108
919.936	15184
920.047	15279
920.157	15161
920.267	15367
920.378	15180
920.488	15127
920.598	15268
920.708	15382
920.818	15176
920.928	15306
921.038	15507
921.148	15401
921.258	15051
921.368	15039
921.477	14944
921.587	14967
921.697	14838
921.806	14804
921.916	14750
922.025	14545
922.134	14530
922.244	14530
922.353	14575
922.462	14442
922.571	14256
922.68	14206
922.789	14168
922.898	14195
923.007	14123
923.116	14286
923.224	14130
923.333	14168
923.442	13974
923.55	13997
923.659	14046
923.767	14035
923.876	14031
923.984	13989
924.092	13750
924.201	13955
924.309	13997
924.417	13875
924.525	13887
924.633	13818
924.741	14777
924.849	13662
924.956	13822
925.064	13609
925.172	13563
925.279	13487
925.387	13521
925.494	13563
925.602	13636
925.709	13597
925.816	13464
925.924	13476
926.031	13597
926.138	13464
926.245	13597
926.352	13384
926.459	13499
926.566	13594
926.673	13441
926.779	13343
926.886	13266
926.993	13152
927.099	13122
927.206	13107
927.312	13107
927.419	13114
927.525	13110
927.631	13069
927.737	12932
927.843	12928
927.95	12715
928.056	12837
928.162	12901
928.267	12970
928.373	13544
928.479	12913
928.585	12719
928.69	12772
928.796	12932
928.901	12757
929.007	12635
929.112	12738
929.218	12719
929.323	12711
929.428	12506
929.533	12837
929.638	12597
929.743	12585
929.848	12604
929.953	12521
930.058	12456
930.163	12239
930.267	12376
930.372	12414
930.477	12304
930.581	12483
930.685	12277
930.79	12129
930.894	12190
930.998	12171
931.103	12304
931.207	11901
931.311	11851
931.415	11767
931.519	11581
931.623	11398
