Data from test_V78500241_3233.txt Node
Date: Fri Mar 25 16:04:11 CST 2022
User: usil
Spectrometer: V785-0024
Trigger mode: 0
Integration Time (sec): 4.000000E-1
Scans to average: 1
Nonlinearity correction enabled: false
Boxcar width: 0
Storing dark spectrum: false
XAxis mode: Wavelengths
Number of Pixels in Spectrum: 1024
>>>>>Begin Spectral Data<<<<<
801.071	28930
801.214	28771
801.356	28618
801.499	28523
801.641	28535
801.783	28550
801.926	28538
802.068	28588
802.211	28459
802.353	28409
802.496	28196
802.638	28143
802.78	28135
802.923	28120
803.065	28131
803.208	28291
803.35	28272
803.492	28394
803.635	28557
803.777	28371
803.919	28337
804.061	28702
804.204	28421
804.346	28500
804.488	28386
804.63	28451
804.773	28337
804.915	28554
805.057	28702
805.199	28466
805.341	28478
805.483	28713
805.626	28538
805.768	28474
805.91	28622
806.052	28698
806.194	28531
806.336	28824
806.478	28554
806.62	28565
806.762	28801
806.904	28904
807.046	29258
807.188	29098
807.33	29090
807.472	29216
807.614	28965
807.756	29029
807.898	29109
808.04	28820
808.182	28850
808.324	28991
808.465	29041
808.607	29197
808.749	29288
808.891	29414
809.033	29417
809.174	29273
809.316	29208
809.458	29307
809.6	29368
809.741	29516
809.883	29570
810.025	29657
810.166	29585
810.308	29661
810.45	29672
810.591	29497
810.733	29299
810.875	29406
811.016	29231
811.158	29227
811.299	29638
811.441	29478
811.582	29516
811.724	29341
811.865	29391
812.007	29436
812.148	29341
812.29	29292
812.431	29577
812.573	29722
812.714	29794
812.855	29882
812.997	29973
813.138	30136
813.279	30091
813.421	29897
813.562	29741
813.703	29676
813.845	29600
813.986	29425
814.127	29208
814.268	29071
814.41	29006
814.551	29014
814.692	29117
814.833	29056
814.974	29090
815.115	29025
815.256	28965
815.397	28923
815.539	28934
815.68	28801
815.821	28900
815.962	28904
816.103	28790
816.244	28729
816.385	28759
816.526	28790
816.666	28417
816.807	28379
816.948	28497
817.089	28443
817.23	28474
817.371	28417
817.512	28401
817.653	28367
817.793	28230
817.934	28443
818.075	28421
818.216	28417
818.356	28367
818.497	28253
818.638	28135
818.778	28143
818.919	28048
819.06	28200
819.2	28363
819.341	28413
819.481	28394
819.622	28500
819.762	28740
819.903	28637
820.043	28630
820.184	28615
820.324	28603
820.465	28717
820.605	28607
820.746	28436
820.886	28398
821.026	28470
821.167	28519
821.307	28447
821.447	28409
821.588	28325
821.728	28390
821.868	28090
822.008	27823
822.149	27888
822.289	27827
822.429	27576
822.569	27564
822.709	27542
822.849	27317
822.99	27496
823.13	27294
823.27	27332
823.41	27298
823.55	27024
823.69	27176
823.83	27283
823.97	27089
824.11	27055
824.25	26929
824.389	27055
824.529	27024
824.669	27093
824.809	27138
824.949	27180
825.089	27100
825.228	27108
825.368	26979
825.508	26823
825.648	26918
825.787	26921
825.927	26853
826.067	26990
826.206	26872
826.346	26918
826.485	27058
826.625	26956
826.765	27169
826.904	26956
827.044	26686
827.183	26640
827.323	26571
827.462	26792
827.601	26674
827.741	26613
827.88	26594
828.02	26469
828.159	26655
828.298	26746
828.437	26731
828.577	26621
828.716	26765
828.855	26701
828.994	26362
829.134	26533
829.273	26423
829.412	26389
829.551	26336
829.69	26332
829.829	26347
829.968	26427
830.107	26343
830.246	26351
830.385	26290
830.524	26225
830.663	26229
830.802	26073
830.941	26050
831.08	25742
831.219	26024
831.357	26039
831.496	26115
831.635	25978
831.774	25791
831.913	25849
832.051	25693
832.19	25765
832.329	25719
832.467	25632
832.606	25556
832.744	25575
832.883	25616
833.022	25594
833.16	25544
833.299	25582
833.437	25628
833.576	25719
833.714	25674
833.852	25685
833.991	25700
834.129	25765
834.267	25540
834.406	25696
834.544	25674
834.682	25742
834.821	25742
834.959	25738
835.097	25689
835.235	25620
835.373	25620
835.511	25605
835.65	25586
835.788	25559
835.926	25285
836.064	25301
836.202	25297
836.34	25506
836.478	25548
836.615	25464
836.753	25422
836.891	25590
837.029	25529
837.167	25392
837.305	25453
837.443	25384
837.58	25263
837.718	25388
837.856	25430
837.993	25324
838.131	25403
838.269	25198
838.406	25266
838.544	25099
838.681	25015
838.819	24882
838.956	24821
839.094	24757
839.231	24791
839.369	25000
839.506	25183
839.643	25031
839.781	24760
839.918	24623
840.055	24798
840.193	24665
840.33	24681
840.467	24848
840.604	24745
840.742	24962
840.879	24551
841.016	24669
841.153	24642
841.29	24764
841.427	24627
841.564	24707
841.701	24673
841.838	24635
841.975	24635
842.112	24563
842.249	24563
842.385	24441
842.522	24665
842.659	24509
842.796	24433
842.933	24334
843.069	24342
843.206	24452
843.343	24350
843.479	24418
843.616	24445
843.752	24190
843.889	24243
844.025	24384
844.162	24213
844.298	24361
844.435	24228
844.571	24201
844.708	24281
844.844	24205
844.98	24285
845.117	24334
845.253	24167
845.389	24053
845.525	24163
845.661	24106
845.798	23878
845.934	23969
846.07	24026
846.206	23935
846.342	24083
846.478	23992
846.614	23805
846.75	23707
846.886	23649
847.022	23695
847.158	23589
847.294	23585
847.429	23608
847.565	23767
847.701	23927
847.837	23337
847.972	23387
848.108	23436
848.244	23474
848.379	23303
848.515	23231
848.65	23326
848.786	23273
848.921	23288
849.057	23303
849.192	23425
849.328	23356
849.463	23311
849.598	23258
849.734	23185
849.869	23200
850.004	22881
850.14	23025
850.275	22961
850.41	22972
850.545	22976
850.68	22972
850.815	23105
850.95	23022
851.085	23216
851.22	23113
851.355	23044
851.49	23018
851.625	22904
851.76	23041
851.895	22957
852.03	22987
852.165	23052
852.299	23113
852.434	23143
852.569	23086
852.703	23216
852.838	23018
852.973	23029
853.107	23067
853.242	22908
853.376	22881
853.511	22881
853.645	22847
853.78	22858
853.914	22866
854.048	22706
854.183	22900
854.317	22908
854.451	22984
854.585	22843
854.72	22877
854.854	23006
854.988	22816
855.122	22904
855.256	22725
855.39	22801
855.524	22938
855.658	22923
855.792	22824
855.926	22889
856.06	22900
856.194	22934
856.327	22850
856.461	22782
856.595	22812
856.729	22820
856.862	22809
856.996	22816
857.13	22919
857.263	22934
857.397	22976
857.53	22774
857.664	22820
857.797	22862
857.931	22877
858.064	22771
858.197	22858
858.331	22892
858.464	22782
858.597	22892
858.731	22877
858.864	22771
858.997	22831
859.13	22904
859.263	22740
859.396	22900
859.529	22862
859.662	22744
859.795	22797
859.928	22854
860.061	22900
860.194	23018
860.327	22767
860.46	22953
860.592	22866
860.725	22968
860.858	23025
860.99	22877
861.123	22698
861.256	22713
861.388	22759
861.521	23486
861.653	22771
861.786	22664
861.918	22668
862.05	22599
862.183	22698
862.315	22786
862.447	22824
862.58	22740
862.712	22599
862.844	22531
862.976	22630
863.108	22535
863.24	22995
863.372	22394
863.504	22470
863.636	22440
863.768	22531
863.9	22577
864.032	22478
864.164	22569
864.296	22588
864.428	22618
864.559	22615
864.691	22649
864.823	22668
864.954	22573
865.086	22542
865.217	22481
865.349	22306
865.48	22493
865.612	22565
865.743	22493
865.875	22409
866.006	22436
866.137	22455
866.269	22405
866.4	22314
866.531	22265
866.662	22348
866.793	22367
866.924	22299
867.055	22344
867.186	22322
867.317	22329
867.448	22181
867.579	22348
867.71	22272
867.841	22291
867.972	22215
868.103	22409
868.233	22352
868.364	22367
868.495	22405
868.625	22531
868.756	22580
868.886	22516
869.017	22565
869.147	22759
869.278	22740
869.408	22611
869.539	22485
869.669	22626
869.799	22713
869.929	22637
870.06	22729
870.19	22896
870.32	22839
870.45	22949
870.58	23003
870.71	23113
870.84	23044
870.97	22949
871.1	22881
871.23	23041
871.36	23117
871.489	23083
871.619	23128
871.749	23140
871.879	23204
872.008	23337
872.138	23212
872.267	23159
872.397	23075
872.526	22900
872.656	23113
872.785	23022
872.915	23235
873.044	23269
873.173	23261
873.303	23250
873.432	23197
873.561	23315
873.69	23250
873.819	23246
873.948	23280
874.077	23197
874.206	23197
874.335	23197
874.464	23269
874.593	23337
874.722	23414
874.851	23425
874.979	23326
875.108	23562
875.237	23356
875.365	23322
875.494	23322
875.623	23433
875.751	23436
875.88	23402
876.008	23589
876.136	23573
876.265	23748
876.393	23950
876.521	23920
876.65	23870
876.778	23916
876.906	23680
877.034	23699
877.162	23802
877.29	23649
877.418	23733
877.546	23764
877.674	23710
877.802	23695
877.93	23866
878.058	23661
878.185	23592
878.313	23649
878.441	23687
878.568	23520
878.696	23566
878.824	23817
878.951	23901
879.079	23931
879.206	24026
879.333	23935
879.461	23802
879.588	23798
879.715	23836
879.842	23946
879.97	23756
880.097	23623
880.224	23520
880.351	23619
880.478	23547
880.605	23547
880.732	23592
880.859	23718
880.986	23577
881.112	23570
881.239	23455
881.366	23326
881.493	23216
881.619	23166
881.746	23151
881.872	23083
881.999	23124
882.125	23006
882.252	23250
882.378	23067
882.505	23121
882.631	23048
882.757	22854
882.883	22930
883.01	22869
883.136	22771
883.262	22782
883.388	22519
883.514	22885
883.64	22809
883.766	22687
883.892	22516
884.018	22656
884.143	22744
884.269	22812
884.395	22466
884.52	22405
884.646	22523
884.772	22424
884.897	22405
885.023	22394
885.148	22584
885.274	22569
885.399	22451
885.524	22455
885.65	22413
885.775	22478
885.9	22310
886.025	22607
886.15	22542
886.275	22341
886.4	22363
886.525	22367
886.65	22341
886.775	22253
886.9	22478
887.025	22550
887.149	22421
887.274	22211
887.399	22109
887.523	22135
887.648	22196
887.773	22078
887.897	22284
888.021	22257
888.146	22036
888.27	22249
888.395	22234
888.519	22093
888.643	22207
888.767	22207
888.891	22013
889.015	21941
889.139	22036
889.263	21991
889.387	22097
889.511	22166
889.635	22147
889.759	21956
889.883	21941
890.006	21960
890.13	22105
890.254	21857
890.377	21861
890.501	21667
890.624	21774
890.748	21709
890.871	21557
890.995	21542
891.118	21466
891.241	21530
891.364	21454
891.488	21519
891.611	21511
891.734	21481
891.857	21473
891.98	21561
892.103	21511
892.226	21568
892.349	21393
892.471	21218
892.594	21367
892.717	21466
892.839	21355
892.962	21443
893.085	21439
893.207	21264
893.33	21241
893.452	21222
893.575	21454
893.697	21374
893.819	21496
893.941	21587
894.064	21690
894.186	21378
894.308	21272
894.43	21530
894.552	21477
894.674	21431
894.796	21241
894.918	21256
895.04	21374
895.161	21389
895.283	21439
895.405	21306
895.526	21302
895.648	21329
895.769	21348
895.891	21272
896.012	21462
896.134	21310
896.255	21408
896.376	21272
896.498	21310
896.619	21279
896.74	21291
896.861	21420
896.982	21778
897.103	21831
897.224	21618
897.345	21618
897.466	21447
897.587	21671
897.708	21633
897.828	21515
897.949	21580
898.07	21363
898.19	21420
898.311	21576
898.431	21530
898.552	21568
898.672	21580
898.792	21747
898.913	21656
899.033	21431
899.153	21329
899.273	21199
899.393	21199
899.513	21268
899.633	21329
899.753	21325
899.873	21241
899.993	21298
900.113	21252
900.232	21199
900.352	21100
900.472	21028
900.591	21085
900.711	21112
900.83	21028
900.95	21195
901.069	21077
901.189	20906
901.308	20640
901.427	20701
901.546	20724
901.665	20629
901.784	20549
901.904	20431
902.023	20374
902.141	20233
902.26	20191
902.379	20244
902.498	20008
902.617	20218
902.735	20164
902.854	20088
902.973	20001
903.091	19902
903.21	19738
903.328	19738
903.446	19628
903.565	19616
903.683	19567
903.801	19449
903.919	19483
904.038	19556
904.156	19217
904.274	19438
904.392	19259
904.51	19274
904.627	19270
904.745	19331
904.863	19373
904.981	19076
905.098	18951
905.216	18935
905.334	18916
905.451	19015
905.569	19023
905.686	18954
905.803	18928
905.921	18779
906.038	18939
906.155	18688
906.272	18616
906.389	18623
906.506	18570
906.623	18536
906.74	18414
906.857	18357
906.974	18384
907.091	18597
907.208	18669
907.324	18532
907.441	18327
907.557	18167
907.674	18323
907.79	18152
907.907	18117
908.023	18174
908.139	18110
908.256	18148
908.372	18098
908.488	18129
908.604	17984
908.72	17836
908.836	17923
908.952	17821
909.068	17897
909.184	17946
909.3	17889
909.415	18045
909.531	17923
909.647	17604
909.762	17653
909.878	17638
909.993	17646
910.108	17646
910.224	17547
910.339	17623
910.454	17471
910.57	17368
910.685	17406
910.8	17608
910.915	17581
911.03	17455
911.145	17391
911.259	17220
911.374	17261
911.489	17170
911.604	17143
911.718	16919
911.833	17003
911.947	16820
912.062	16809
912.176	16961
912.291	16995
912.405	16877
912.519	17117
912.633	17014
912.748	16957
912.862	16934
912.976	16630
913.09	16603
913.204	16698
913.318	16717
913.431	16862
913.545	16774
913.659	16866
913.772	16698
913.886	16485
914	16561
914.113	16706
914.226	16630
914.34	16641
914.453	16428
914.566	16611
914.68	16451
914.793	16306
914.906	16257
915.019	16090
915.132	16025
915.245	16097
915.358	16207
915.47	15998
915.583	16101
915.696	16101
915.809	16223
915.921	16295
916.034	16029
916.146	15975
916.259	15998
916.371	16013
916.483	15975
916.595	15953
916.708	16002
916.82	15876
916.932	15895
917.044	15812
917.156	15838
917.268	15778
917.38	15603
917.491	15652
917.603	15663
917.715	15793
917.826	15804
917.938	15736
918.049	15515
918.161	15614
918.272	15774
918.384	15762
918.495	15762
918.606	15519
918.717	15378
918.828	15420
918.939	15458
919.05	15397
919.161	15462
919.272	15272
919.383	15245
919.494	15561
919.604	15595
919.715	15351
919.826	15249
919.936	15317
920.047	15443
920.157	15313
920.267	15488
920.378	15473
920.488	15329
920.598	15557
920.708	15720
920.818	15488
920.928	15466
921.038	15637
921.148	15618
921.258	15294
921.368	15184
921.477	15104
921.587	15135
921.697	14925
921.806	15116
921.916	15093
922.025	14743
922.134	14743
922.244	14705
922.353	14754
922.462	14602
922.571	14503
922.68	14438
922.789	14374
922.898	14396
923.007	14336
923.116	14419
923.224	14374
923.333	14366
923.442	14263
923.55	14214
923.659	14336
923.767	14278
923.876	14123
923.984	14195
924.092	14084
924.201	14126
924.309	14046
924.417	14092
924.525	13989
924.633	14073
924.741	14785
924.849	13753
924.956	13963
925.064	13734
925.172	13772
925.279	13769
925.387	13788
925.494	13845
925.602	13860
925.709	13822
925.816	13601
925.924	13677
926.031	13742
926.138	13700
926.245	13677
926.352	13685
926.459	13765
926.566	13803
926.673	13578
926.779	13476
926.886	13472
926.993	13358
927.099	13346
927.206	13282
927.312	13301
927.419	13324
927.525	13327
927.631	13312
927.737	13164
927.843	13145
927.95	12966
928.056	13027
928.162	13091
928.267	13152
928.373	13639
928.479	13114
928.585	13019
928.69	13065
928.796	13114
928.901	12985
929.007	12787
929.112	12989
929.218	12840
929.323	12833
929.428	12703
929.533	12848
929.638	12745
929.743	12715
929.848	12783
929.953	12726
930.058	12665
930.163	12517
930.267	12502
930.372	12517
930.477	12475
930.581	12650
930.685	12517
930.79	12372
930.894	12391
930.998	12315
931.103	12391
931.207	12068
931.311	11984
931.415	11931
931.519	11680
931.623	11714
