Data from test_V78500241_3056.txt Node
Date: Fri Mar 25 16:02:58 CST 2022
User: usil
Spectrometer: V785-0024
Trigger mode: 0
Integration Time (sec): 4.000000E-1
Scans to average: 1
Nonlinearity correction enabled: false
Boxcar width: 0
Storing dark spectrum: false
XAxis mode: Wavelengths
Number of Pixels in Spectrum: 1024
>>>>>Begin Spectral Data<<<<<
801.071	28177
801.214	28360
801.356	28025
801.499	28017
801.641	27888
801.783	27846
801.926	27949
802.068	27800
802.211	27812
802.353	27797
802.496	27652
802.638	27492
802.78	27625
802.923	27530
803.065	27408
803.208	27420
803.35	27500
803.492	27660
803.635	27880
803.777	27622
803.919	27652
804.061	28124
804.204	27759
804.346	27618
804.488	27903
804.63	27686
804.773	27759
804.915	27903
805.057	28006
805.199	27804
805.341	27987
805.483	27930
805.626	27914
805.768	27907
805.91	27899
806.052	27934
806.194	27770
806.336	28074
806.478	28013
806.62	27994
806.762	28124
806.904	28318
807.046	28500
807.188	28440
807.33	28535
807.472	28493
807.614	28401
807.756	28333
807.898	28063
808.04	28211
808.182	28196
808.324	28344
808.465	28162
808.607	28603
808.749	28622
808.891	28691
809.033	28767
809.174	28653
809.316	28683
809.458	28550
809.6	28630
809.741	28748
809.883	28729
810.025	28968
810.166	28908
810.308	28976
810.45	28896
810.591	28949
810.733	28801
810.875	28683
811.016	28630
811.158	28615
811.299	28660
811.441	28755
811.582	28843
811.724	28622
811.865	28565
812.007	28618
812.148	28573
812.29	28656
812.431	28866
812.573	28858
812.714	29162
812.855	29216
812.997	29170
813.138	29299
813.279	29379
813.421	29140
813.562	29128
813.703	29029
813.845	28869
813.986	28443
814.127	28493
814.268	28265
814.41	28451
814.551	28112
814.692	28348
814.833	28223
814.974	28303
815.115	28424
815.256	28097
815.397	28128
815.539	28211
815.68	28059
815.821	28135
815.962	28105
816.103	28082
816.244	28101
816.385	27983
816.526	27941
816.666	27747
816.807	27603
816.948	27656
817.089	27720
817.23	27686
817.371	27591
817.512	27622
817.653	27496
817.793	27583
817.934	27549
818.075	27534
818.216	27667
818.356	27523
818.497	27485
818.638	27306
818.778	27496
818.919	27264
819.06	27481
819.2	27515
819.341	27736
819.481	27633
819.622	27663
819.762	27964
819.903	27842
820.043	27736
820.184	27724
820.324	27698
820.465	27911
820.605	27663
820.746	27682
820.886	27488
821.026	27759
821.167	27610
821.307	27850
821.447	27724
821.588	27614
821.728	27287
821.868	27287
822.008	27096
822.149	27123
822.289	27127
822.429	26815
822.569	26796
822.709	26644
822.849	26773
822.99	26644
823.13	26712
823.27	26537
823.41	26442
823.55	26313
823.69	26568
823.83	26347
823.97	26320
824.11	26218
824.25	26199
824.389	26225
824.529	26244
824.669	26248
824.809	26396
824.949	26278
825.089	26336
825.228	26290
825.368	25928
825.508	26065
825.648	26092
825.787	26195
825.927	26157
826.067	26039
826.206	26122
826.346	26172
826.485	26130
826.625	26107
826.765	26244
826.904	26168
827.044	25860
827.183	25791
827.323	25814
827.462	25818
827.601	25902
827.741	25856
827.88	25982
828.02	25677
828.159	25814
828.298	25898
828.437	25670
828.577	25788
828.716	25966
828.855	25822
828.994	25476
829.134	25457
829.273	25628
829.412	25605
829.551	25518
829.69	25502
829.829	25556
829.968	25476
830.107	25643
830.246	25510
830.385	25518
830.524	25479
830.663	25282
830.802	25110
830.941	25118
831.08	25168
831.219	25240
831.357	25091
831.496	25331
831.635	25107
831.774	25114
831.913	24924
832.051	24992
832.19	24829
832.329	24913
832.467	24798
832.606	24715
832.744	24692
832.883	24734
833.022	24779
833.16	24791
833.299	24890
833.437	24745
833.576	24859
833.714	24916
833.852	24844
833.991	25015
834.129	24996
834.267	25057
834.406	24814
834.544	24802
834.682	24817
834.821	24829
834.959	25019
835.097	24768
835.235	24935
835.373	24730
835.511	24764
835.65	24821
835.788	24844
835.926	24525
836.064	24563
836.202	24498
836.34	24589
836.478	24722
836.615	24730
836.753	24707
836.891	24684
837.029	24677
837.167	24688
837.305	24658
837.443	24627
837.58	24509
837.718	24578
837.856	24551
837.993	24464
838.131	24467
838.269	24448
838.406	24517
838.544	24376
838.681	24224
838.819	24152
838.956	23977
839.094	23935
839.231	23946
839.369	23965
839.506	24254
839.643	24167
839.781	23954
839.918	23916
840.055	24057
840.193	23874
840.33	23813
840.467	23980
840.604	23840
840.742	24178
840.879	23882
841.016	23786
841.153	23672
841.29	24011
841.427	23939
841.564	23935
841.701	23821
841.838	23874
841.975	23764
842.112	23809
842.249	23707
842.385	23608
842.522	23828
842.659	23684
842.796	23695
842.933	23531
843.069	23528
843.206	23672
843.343	23668
843.479	23676
843.616	23665
843.752	23486
843.889	23444
844.025	23680
844.162	23448
844.298	23661
844.435	23398
844.571	23611
844.708	23581
844.844	23630
844.98	23653
845.117	23459
845.253	23410
845.389	23280
845.525	23330
845.661	23231
845.798	23208
845.934	23299
846.07	23128
846.206	23193
846.342	23307
846.478	23170
846.614	23025
846.75	22831
846.886	22835
847.022	23022
847.158	22881
847.294	22908
847.429	22877
847.565	22839
847.701	23185
847.837	22622
847.972	22508
848.108	22679
848.244	22622
848.379	22626
848.515	22447
848.65	22421
848.786	22497
848.921	22462
849.057	22508
849.192	22611
849.328	22641
849.463	22504
849.598	22371
849.734	22344
849.869	22447
850.004	22344
850.14	22261
850.275	22322
850.41	22109
850.545	22109
850.68	22242
850.815	22276
850.95	22226
851.085	22432
851.22	22322
851.355	22257
851.49	22284
851.625	22348
851.76	22284
851.895	22147
852.03	22223
852.165	22352
852.299	22295
852.434	22276
852.569	22219
852.703	22158
852.838	22249
852.973	22531
853.107	22375
853.242	22223
853.376	22177
853.511	21846
853.645	21953
853.78	22135
853.914	22097
854.048	22040
854.183	22093
854.317	22097
854.451	22207
854.585	21998
854.72	22150
854.854	22116
854.988	22086
855.122	22101
855.256	22074
855.39	22067
855.524	22158
855.658	22150
855.792	21998
855.926	22173
856.06	22105
856.194	22188
856.327	22074
856.461	22059
856.595	21964
856.729	22131
856.862	22188
856.996	22090
857.13	22139
857.263	22150
857.397	22215
857.53	22067
857.664	22116
857.797	22112
857.931	22120
858.064	22090
858.197	22261
858.331	22097
858.464	22006
858.597	21972
858.731	22078
858.864	21972
858.997	21968
859.13	22143
859.263	22040
859.396	22166
859.529	21895
859.662	22059
859.795	21998
859.928	22101
860.061	22196
860.194	22181
860.327	22105
860.46	22097
860.592	22082
860.725	22188
860.858	22230
860.99	22131
861.123	21865
861.256	21979
861.388	22048
861.521	22850
861.653	21968
861.786	21831
861.918	21842
862.05	21979
862.183	21922
862.315	21930
862.447	22074
862.58	21998
862.712	21728
862.844	21755
862.976	21899
863.108	21804
863.24	22306
863.372	21747
863.504	21682
863.636	21823
863.768	21800
863.9	21747
864.032	21698
864.164	21705
864.296	21701
864.428	21892
864.559	21835
864.691	21857
864.823	21819
864.954	21880
865.086	21720
865.217	21709
865.349	21698
865.48	21572
865.612	21717
865.743	21728
865.875	21751
866.006	21656
866.137	21694
866.269	21663
866.4	21641
866.531	21561
866.662	21553
866.793	21568
866.924	21549
867.055	21599
867.186	21629
867.317	21656
867.448	21564
867.579	21545
867.71	21477
867.841	21564
867.972	21618
868.103	21610
868.233	21591
868.364	21637
868.495	21660
868.625	21835
868.756	21945
868.886	21812
869.017	21812
869.147	22051
869.278	21846
869.408	21835
869.539	21964
869.669	21994
869.799	21899
869.929	21865
870.06	21895
870.19	22154
870.32	22150
870.45	22124
870.58	22295
870.71	22325
870.84	22299
870.97	22242
871.1	22219
871.23	22375
871.36	22375
871.489	22382
871.619	22394
871.749	22554
871.879	22523
872.008	22611
872.138	22466
872.267	22379
872.397	22318
872.526	22238
872.656	22310
872.785	22188
872.915	22478
873.044	22557
873.173	22440
873.303	22489
873.432	22470
873.561	22675
873.69	22375
873.819	22557
873.948	22542
874.077	22436
874.206	22436
874.335	22535
874.464	22493
874.593	22683
874.722	22687
874.851	22801
874.979	22736
875.108	22740
875.237	22523
875.365	22668
875.494	22580
875.623	22767
875.751	22717
875.88	22774
876.008	22809
876.136	22908
876.265	23189
876.393	23227
876.521	23181
876.65	23166
876.778	23105
876.906	23094
877.034	23003
877.162	23090
877.29	23079
877.418	23117
877.546	23037
877.674	23029
877.802	22946
877.93	23067
878.058	23018
878.185	23041
878.313	22991
878.441	23128
878.568	22873
878.696	23037
878.824	23170
878.951	23265
879.079	23292
879.206	23356
879.333	23273
879.461	23094
879.588	23174
879.715	23117
879.842	23200
879.97	23178
880.097	22839
880.224	22854
880.351	23022
880.478	22946
880.605	22919
880.732	22881
880.859	23121
880.986	22858
881.112	22843
881.239	22790
881.366	22656
881.493	22459
881.619	22474
881.746	22478
881.872	22341
881.999	22409
882.125	22466
882.252	22538
882.378	22371
882.505	22535
882.631	22280
882.757	22124
882.883	22234
883.01	22257
883.136	22124
883.262	22010
883.388	22010
883.514	22177
883.64	22139
883.766	22002
883.892	21903
884.018	21926
884.143	22048
884.269	22188
884.395	21907
884.52	21793
884.646	21732
884.772	21717
884.897	21675
885.023	21766
885.148	21930
885.274	21827
885.399	21873
885.524	21804
885.65	21797
885.775	21770
885.9	21766
886.025	21903
886.15	21766
886.275	21610
886.4	21705
886.525	21743
886.65	21698
886.775	21690
886.9	21827
887.025	21895
887.149	21679
887.274	21500
887.399	21526
887.523	21523
887.648	21545
887.773	21492
887.897	21618
888.021	21641
888.146	21397
888.27	21766
888.395	21637
888.519	21515
888.643	21488
888.767	21625
888.891	21424
889.015	21298
889.139	21329
889.263	21203
889.387	21428
889.511	21473
889.635	21378
889.759	21302
889.883	21355
890.006	21306
890.13	21321
890.254	21131
890.377	21310
890.501	21100
890.624	20941
890.748	21150
890.871	21001
890.995	20864
891.118	20861
891.241	20910
891.364	20826
891.488	20952
891.611	20864
891.734	20883
891.857	21017
891.98	20956
892.103	20838
892.226	20849
892.349	20823
892.471	20689
892.594	20849
892.717	20716
892.839	20807
892.962	20754
893.085	20857
893.207	20785
893.33	20670
893.452	20724
893.575	20849
893.697	20834
893.819	20948
893.941	20887
894.064	20929
894.186	20754
894.308	20636
894.43	20952
894.552	21047
894.674	20758
894.796	20606
894.918	20823
895.04	20754
895.161	20845
895.283	20773
895.405	20720
895.526	20823
895.648	20769
895.769	20754
895.891	20872
896.012	20765
896.134	20727
896.255	20819
896.376	20720
896.498	20815
896.619	20746
896.74	20735
896.861	20800
896.982	21020
897.103	21211
897.224	20998
897.345	21081
897.466	20876
897.587	21001
897.708	21070
897.828	21001
897.949	20925
898.07	20811
898.19	20758
898.311	21024
898.431	20861
898.552	21043
898.672	21085
898.792	21028
898.913	20925
899.033	20769
899.153	20716
899.273	20571
899.393	20651
899.513	20834
899.633	20640
899.753	20701
899.873	20674
899.993	20716
900.113	20697
900.232	20560
900.352	20663
900.472	20511
900.591	20461
900.711	20377
900.83	20419
900.95	20598
901.069	20541
901.189	20313
901.308	20149
901.427	20077
901.546	20180
901.665	20058
901.784	20016
901.904	19906
902.023	19807
902.141	19670
902.26	19578
902.379	19731
902.498	19544
902.617	19590
902.735	19719
902.854	19559
902.973	19476
903.091	19263
903.21	19171
903.328	19187
903.446	19137
903.565	19042
903.683	19042
903.801	19000
903.919	18905
904.038	18947
904.156	18776
904.274	18894
904.392	18798
904.51	18776
904.627	18772
904.745	18821
904.863	18825
904.981	18597
905.098	18357
905.216	18361
905.334	18559
905.451	18506
905.569	18498
905.686	18441
905.803	18437
905.921	18277
906.038	18296
906.155	18232
906.272	18117
906.389	18129
906.506	18038
906.623	18072
906.74	18007
906.857	17851
906.974	17908
907.091	18076
907.208	18178
907.324	18041
907.441	17847
907.557	17680
907.674	17722
907.79	17589
907.907	17562
908.023	17680
908.139	17551
908.256	17661
908.372	17497
908.488	17429
908.604	17421
908.72	17368
908.836	17467
908.952	17299
909.068	17459
909.184	17467
909.3	17368
909.415	17387
909.531	17326
909.647	17151
909.762	17113
909.878	17166
909.993	17124
910.108	16995
910.224	17105
910.339	17029
910.454	16972
910.57	16934
910.685	16797
910.8	17178
910.915	17006
911.03	16847
911.145	16740
911.259	16713
911.374	16653
911.489	16615
911.604	16516
911.718	16352
911.833	16413
911.947	16394
912.062	16192
912.176	16508
912.291	16394
912.405	16478
912.519	16481
912.633	16618
912.748	16421
912.862	16417
912.976	16234
913.09	16120
913.204	16158
913.318	16306
913.431	16344
913.545	16322
913.659	16337
913.772	16169
913.886	16120
914	16059
914.113	16097
914.226	16162
914.34	16128
914.453	15854
914.566	16040
914.68	15911
914.793	15827
914.906	15686
915.019	15720
915.132	15606
915.245	15534
915.358	15656
915.47	15622
915.583	15576
915.696	15519
915.809	15610
915.921	15755
916.034	15614
916.146	15500
916.259	15488
916.371	15587
916.483	15698
916.595	15454
916.708	15439
916.82	15469
916.932	15431
917.044	15374
917.156	15401
917.268	15211
917.38	15222
917.491	15226
917.603	15264
917.715	15237
917.826	15359
917.938	15207
918.049	15104
918.161	15245
918.272	15241
918.384	15279
918.495	15097
918.606	15077
918.717	15017
918.828	15062
918.939	15024
919.05	14971
919.161	14876
919.272	14815
919.383	14861
919.494	15055
919.604	15268
919.715	14990
919.826	14899
919.936	14948
920.047	15043
920.157	15047
920.267	15226
920.378	14941
920.488	14960
920.598	15108
920.708	15249
920.818	15100
920.928	15077
921.038	15256
921.148	15310
921.258	14925
921.368	14788
921.477	14682
921.587	14705
921.697	14541
921.806	14651
921.916	14507
922.025	14396
922.134	14278
922.244	14267
922.353	14423
922.462	14164
922.571	14096
922.68	14005
922.789	13890
922.898	13959
923.007	13887
923.116	14035
923.224	13989
923.333	13879
923.442	13822
923.55	13822
923.659	13856
923.767	13826
923.876	13765
923.984	13879
924.092	13628
924.201	13685
924.309	13674
924.417	13639
924.525	13544
924.633	13693
924.741	14355
924.849	13506
924.956	13495
925.064	13388
925.172	13251
925.279	13320
925.387	13453
925.494	13441
925.602	13548
925.709	13369
925.816	13206
925.924	13213
926.031	13525
926.138	13247
926.245	13247
926.352	13175
926.459	13365
926.566	13369
926.673	13213
926.779	13168
926.886	13076
926.993	12958
927.099	12837
927.206	12814
927.312	12844
927.419	12916
927.525	12973
927.631	12989
927.737	12779
927.843	12749
927.95	12639
928.056	12631
928.162	12730
928.267	12787
928.373	13350
928.479	12810
928.585	12639
928.69	12669
928.796	12757
928.901	12559
929.007	12445
929.112	12544
929.218	12448
929.323	12475
929.428	12437
929.533	12582
929.638	12334
929.743	12403
929.848	12426
929.953	12384
930.058	12228
930.163	12117
930.267	12163
930.372	12327
930.477	12019
930.581	12388
930.685	12186
930.79	12072
930.894	12022
930.998	11889
931.103	12022
931.207	11783
931.311	11657
931.415	11509
931.519	11349
931.623	11303
