Data from test_V78500241_3315.txt Node
Date: Fri Mar 25 16:04:45 CST 2022
User: usil
Spectrometer: V785-0024
Trigger mode: 0
Integration Time (sec): 4.000000E-1
Scans to average: 1
Nonlinearity correction enabled: false
Boxcar width: 0
Storing dark spectrum: false
XAxis mode: Wavelengths
Number of Pixels in Spectrum: 1024
>>>>>Begin Spectral Data<<<<<
801.071	28866
801.214	28691
801.356	28424
801.499	28500
801.641	28382
801.783	28261
801.926	28329
802.068	28398
802.211	28276
802.353	28371
802.496	28242
802.638	28131
802.78	28109
802.923	27911
803.065	27934
803.208	27964
803.35	28112
803.492	28128
803.635	28246
803.777	28169
803.919	28223
804.061	28637
804.204	28474
804.346	28295
804.488	28261
804.63	28367
804.773	28200
804.915	28478
805.057	28413
805.199	28379
805.341	28401
805.483	28573
805.626	28474
805.768	28333
805.91	28622
806.052	28519
806.194	28352
806.336	28637
806.478	28538
806.62	28493
806.762	28664
806.904	28790
807.046	29060
807.188	28942
807.33	28877
807.472	28980
807.614	28980
807.756	28733
807.898	28797
808.04	28786
808.182	28725
808.324	28816
808.465	28820
808.607	29124
808.749	29254
808.891	29166
809.033	29296
809.174	29166
809.316	29178
809.458	29166
809.6	29216
809.741	29311
809.883	29372
810.025	29402
810.166	29444
810.308	29509
810.45	29467
810.591	29448
810.733	29277
810.875	29231
811.016	29143
811.158	29155
811.299	29288
811.441	29425
811.582	29326
811.724	29345
811.865	29261
812.007	29280
812.148	29193
812.29	29174
812.431	29410
812.573	29547
812.714	29520
812.855	29775
812.997	29695
813.138	30034
813.279	29817
813.421	29817
813.562	29661
813.703	29531
813.845	29433
813.986	29174
814.127	29014
814.268	28782
814.41	28987
814.551	28915
814.692	29071
814.833	28968
814.974	28911
815.115	29014
815.256	28702
815.397	28736
815.539	28790
815.68	28797
815.821	28706
815.962	28710
816.103	28641
816.244	28691
816.385	28615
816.526	28554
816.666	28173
816.807	28310
816.948	28413
817.089	28238
817.23	28306
817.371	28207
817.512	28135
817.653	28143
817.793	28204
817.934	28139
818.075	28276
818.216	28348
818.356	28143
818.497	28158
818.638	28040
818.778	27854
818.919	27972
819.06	28154
819.2	28059
819.341	28276
819.481	28306
819.622	28390
819.762	28626
819.903	28637
820.043	28481
820.184	28432
820.324	28344
820.465	28485
820.605	28344
820.746	28424
820.886	28185
821.026	28394
821.167	28322
821.307	28386
821.447	28257
821.588	28128
821.728	27937
821.868	27934
822.008	27739
822.149	27671
822.289	27728
822.429	27397
822.569	27378
822.709	27424
822.849	27173
822.99	27256
823.13	27310
823.27	27264
823.41	27096
823.55	27066
823.69	27096
823.83	27020
823.97	26986
824.11	26804
824.25	26758
824.389	26971
824.529	26861
824.669	26811
824.809	26975
824.949	27036
825.089	26929
825.228	26842
825.368	26788
825.508	26739
825.648	26796
825.787	26773
825.927	26849
826.067	26785
826.206	26765
826.346	26811
826.485	26910
826.625	26796
826.765	26785
826.904	26769
827.044	26545
827.183	26636
827.323	26499
827.462	26484
827.601	26575
827.741	26499
827.88	26549
828.02	26374
828.159	26514
828.298	26488
828.437	26438
828.577	26267
828.716	26678
828.855	26412
828.994	26195
829.134	26218
829.273	26328
829.412	26134
829.551	26100
829.69	26176
829.829	26168
829.968	26145
830.107	26187
830.246	26138
830.385	26100
830.524	26031
830.663	25978
830.802	25898
830.941	25784
831.08	25841
831.219	25830
831.357	25871
831.496	26084
831.635	25788
831.774	25757
831.913	25674
832.051	25693
832.19	25556
832.329	25616
832.467	25491
832.606	25327
832.744	25476
832.883	25392
833.022	25415
833.16	25575
833.299	25415
833.437	25426
833.576	25548
833.714	25544
833.852	25468
833.991	25567
834.129	25548
834.267	25586
834.406	25460
834.544	25658
834.682	25472
834.821	25449
834.959	25616
835.097	25453
835.235	25613
835.373	25582
835.511	25499
835.65	25373
835.788	25384
835.926	25190
836.064	25080
836.202	25255
836.34	25362
836.478	25495
836.615	25438
836.753	25266
836.891	25396
837.029	25335
837.167	25312
837.305	25179
837.443	25206
837.58	25156
837.718	25187
837.856	25221
837.993	25156
838.131	25183
838.269	25031
838.406	25091
838.544	25088
838.681	24764
838.819	24764
838.956	24547
839.094	24608
839.231	24669
839.369	24844
839.506	24985
839.643	24791
839.781	24700
839.918	24547
840.055	24604
840.193	24528
840.33	24418
840.467	24490
840.604	24517
840.742	24741
840.879	24315
841.016	24429
841.153	24544
841.29	24563
841.427	24456
841.564	24620
841.701	24490
841.838	24471
841.975	24486
842.112	24388
842.249	24452
842.385	24369
842.522	24486
842.659	24486
842.796	24300
842.933	24334
843.069	24247
843.206	24201
843.343	24350
843.479	24372
843.616	24232
843.752	24205
843.889	24003
844.025	24186
844.162	24083
844.298	23992
844.435	23901
844.571	24091
844.708	24140
844.844	24228
844.98	24251
845.117	24209
845.253	24102
845.389	23870
845.525	23984
845.661	23969
845.798	23908
845.934	23764
846.07	23760
846.206	23836
846.342	23859
846.478	23703
846.614	23577
846.75	23547
846.886	23448
847.022	23661
847.158	23505
847.294	23581
847.429	23562
847.565	23516
847.701	23779
847.837	23254
847.972	23235
848.108	23379
848.244	23364
848.379	23060
848.515	23067
848.65	23155
848.786	23155
848.921	23075
849.057	23231
849.192	23105
849.328	23212
849.463	23128
849.598	23033
849.734	23064
849.869	23094
850.004	22896
850.14	22923
850.275	22782
850.41	22782
850.545	22801
850.68	22881
850.815	22930
850.95	22831
851.085	23048
851.22	22984
851.355	22946
851.49	22934
851.625	22805
851.76	22919
851.895	22801
852.03	22748
852.165	22869
852.299	22900
852.434	22991
852.569	22919
852.703	22923
852.838	22900
852.973	22976
853.107	22976
853.242	22816
853.376	22858
853.511	22459
853.645	22634
853.78	22824
853.914	22763
854.048	22672
854.183	22710
854.317	22698
854.451	22961
854.585	22740
854.72	22660
854.854	22694
854.988	22603
855.122	22694
855.256	22523
855.39	22611
855.524	22797
855.658	22656
855.792	22736
855.926	22637
856.06	22725
856.194	22793
856.327	22641
856.461	22500
856.595	22626
856.729	22554
856.862	22850
856.996	22698
857.13	22706
857.263	22908
857.397	22881
857.53	22615
857.664	22763
857.797	22637
857.931	22763
858.064	22656
858.197	22812
858.331	22603
858.464	22611
858.597	22478
858.731	22641
858.864	22618
858.997	22664
859.13	22748
859.263	22698
859.396	22869
859.529	22752
859.662	22557
859.795	22763
859.928	22740
860.061	22908
860.194	22938
860.327	22733
860.46	22554
860.592	22881
860.725	22881
860.858	22771
860.99	22778
861.123	22580
861.256	22679
861.388	22615
861.521	23425
861.653	22622
861.786	22577
861.918	22523
862.05	22451
862.183	22599
862.315	22672
862.447	22615
862.58	22626
862.712	22371
862.844	22284
862.976	22516
863.108	22424
863.24	22911
863.372	22322
863.504	22356
863.636	22462
863.768	22459
863.9	22344
864.032	22398
864.164	22382
864.296	22382
864.428	22474
864.559	22531
864.691	22379
864.823	22462
864.954	22390
865.086	22333
865.217	22253
865.349	22131
865.48	22169
865.612	22284
865.743	22341
865.875	22413
866.006	22291
866.137	22242
866.269	22242
866.4	22280
866.531	22226
866.662	22284
866.793	22223
866.924	22105
867.055	22276
867.186	22177
867.317	22173
867.448	22177
867.579	22150
867.71	22223
867.841	22196
867.972	22219
868.103	22215
868.233	22131
868.364	22131
868.495	22242
868.625	22367
868.756	22584
868.886	22440
869.017	22333
869.147	22481
869.278	22607
869.408	22428
869.539	22478
869.669	22542
869.799	22535
869.929	22478
870.06	22607
870.19	22710
870.32	22706
870.45	22740
870.58	22801
870.71	22911
870.84	22904
870.97	22923
871.1	22892
871.23	23105
871.36	23006
871.489	22961
871.619	23029
871.749	23064
871.879	22957
872.008	23151
872.138	23044
872.267	23143
872.397	22976
872.526	22869
872.656	22900
872.785	22889
872.915	22984
873.044	23079
873.173	22991
873.303	23113
873.432	23029
873.561	23136
873.69	23105
873.819	22999
873.948	23102
874.077	23052
874.206	23006
874.335	22987
874.464	23193
874.593	23250
874.722	23273
874.851	23284
874.979	23459
875.108	23273
875.237	23235
875.365	23216
875.494	23102
875.623	23482
875.751	23273
875.88	23277
876.008	23349
876.136	23429
876.265	23737
876.393	23809
876.521	23836
876.65	23684
876.778	23718
876.906	23531
877.034	23600
877.162	23665
877.29	23471
877.418	23554
877.546	23623
877.674	23543
877.802	23566
877.93	23539
878.058	23608
878.185	23516
878.313	23699
878.441	23676
878.568	23482
878.696	23554
878.824	23611
878.951	23634
879.079	23802
879.206	23885
879.333	23733
879.461	23665
879.588	23764
879.715	23752
879.842	23904
879.97	23748
880.097	23539
880.224	23444
880.351	23512
880.478	23528
880.605	23459
880.732	23535
880.859	23604
880.986	23539
881.112	23356
881.239	23311
881.366	23212
881.493	23083
881.619	23041
881.746	23044
881.872	22965
881.999	22908
882.125	22968
882.252	22968
882.378	22889
882.505	23132
882.631	23041
882.757	22740
882.883	22649
883.01	22717
883.136	22634
883.262	22557
883.388	22497
883.514	22702
883.64	22683
883.766	22554
883.892	22428
884.018	22440
884.143	22641
884.269	22687
884.395	22413
884.52	22234
884.646	22242
884.772	22234
884.897	22177
885.023	22253
885.148	22413
885.274	22512
885.399	22341
885.524	22367
885.65	22382
885.775	22284
885.9	22314
886.025	22386
886.15	22352
886.275	22207
886.4	22196
886.525	22242
886.65	22185
886.775	22261
886.9	22348
887.025	22550
887.149	22276
887.274	22032
887.399	22128
887.523	22139
887.648	21964
887.773	21895
887.897	22166
888.021	22128
888.146	21888
888.27	22090
888.395	22082
888.519	22090
888.643	22078
888.767	22101
888.891	21960
889.015	21888
889.139	21964
889.263	21713
889.387	21945
889.511	22002
889.635	21918
889.759	21823
889.883	21804
890.006	21835
890.13	21918
890.254	21766
890.377	21888
890.501	21610
890.624	21587
890.748	21561
890.871	21351
890.995	21355
891.118	21336
891.241	21367
891.364	21386
891.488	21420
891.611	21561
891.734	21317
891.857	21348
891.98	21401
892.103	21496
892.226	21313
892.349	21321
892.471	21157
892.594	21275
892.717	21382
892.839	21321
892.962	21374
893.085	21306
893.207	21283
893.33	21230
893.452	21211
893.575	21321
893.697	21252
893.819	21412
893.941	21424
894.064	21355
894.186	21287
894.308	21180
894.43	21340
894.552	21401
894.674	21367
894.796	21184
894.918	21283
895.04	21203
895.161	21207
895.283	21222
895.405	21222
895.526	21180
895.648	21329
895.769	21298
895.891	21233
896.012	21218
896.134	21367
896.255	21325
896.376	21256
896.498	21214
896.619	21344
896.74	21195
896.861	21252
896.982	21526
897.103	21637
897.224	21481
897.345	21511
897.466	21485
897.587	21530
897.708	21553
897.828	21504
897.949	21256
898.07	21226
898.19	21321
898.311	21523
898.431	21386
898.552	21378
898.672	21576
898.792	21481
898.913	21473
899.033	21256
899.153	21302
899.273	21252
899.393	21165
899.513	21165
899.633	21348
899.753	21230
899.873	20994
899.993	21184
900.113	21085
900.232	21096
900.352	21104
900.472	21032
900.591	20876
900.711	20933
900.83	20937
900.95	21077
901.069	20956
901.189	20815
901.308	20621
901.427	20499
901.546	20381
901.665	20438
901.784	20366
901.904	20294
902.023	20069
902.141	20039
902.26	20084
902.379	20081
902.498	20027
902.617	19925
902.735	19947
902.854	20081
902.973	19898
903.091	19677
903.21	19795
903.328	19655
903.446	19544
903.565	19510
903.683	19548
903.801	19419
903.919	19324
904.038	19457
904.156	19308
904.274	19308
904.392	19259
904.51	19061
904.627	19126
904.745	19236
904.863	19274
904.981	19008
905.098	18829
905.216	18806
905.334	18993
905.451	18798
905.569	18814
905.686	18958
905.803	18814
905.921	18616
906.038	18665
906.155	18700
906.272	18574
906.389	18597
906.506	18429
906.623	18239
906.74	18357
906.857	18281
906.974	18323
907.091	18300
907.208	18479
907.324	18471
907.441	18334
907.557	18205
907.674	18163
907.79	17946
907.907	18049
908.023	18083
908.139	18057
908.256	18091
908.372	18041
908.488	18019
908.604	17840
908.72	17805
908.836	17843
908.952	17809
909.068	17828
909.184	17904
909.3	17760
909.415	17775
909.531	17847
909.647	17570
909.762	17566
909.878	17452
909.993	17482
910.108	17520
910.224	17455
910.339	17406
910.454	17379
910.57	17345
910.685	17280
910.8	17535
910.915	17512
911.03	17322
911.145	17147
911.259	17143
911.374	17045
911.489	17022
911.604	16885
911.718	16812
911.833	16869
911.947	16778
912.062	16675
912.176	16850
912.291	16835
912.405	16835
912.519	16942
912.633	17003
912.748	16900
912.862	16774
912.976	16679
913.09	16603
913.204	16622
913.318	16599
913.431	16782
913.545	16729
913.659	16740
913.772	16637
913.886	16466
914	16432
914.113	16481
914.226	16535
914.34	16436
914.453	16344
914.566	16398
914.68	16261
914.793	16253
914.906	16071
915.019	16025
915.132	16021
915.245	16032
915.358	15941
915.47	16010
915.583	15949
915.696	16051
915.809	16116
915.921	16071
916.034	15975
916.146	15960
916.259	15778
916.371	16006
916.483	15934
916.595	15895
916.708	15770
916.82	15831
916.932	15819
917.044	15766
917.156	15770
917.268	15603
917.38	15671
917.491	15561
917.603	15709
917.715	15732
917.826	15778
917.938	15564
918.049	15450
918.161	15538
918.272	15732
918.384	15618
918.495	15633
918.606	15359
918.717	15230
918.828	15344
918.939	15416
919.05	15241
919.161	15302
919.272	15119
919.383	15195
919.494	15367
919.604	15450
919.715	15389
919.826	15211
919.936	15264
920.047	15382
920.157	15272
920.267	15393
920.378	15348
920.488	15313
920.598	15477
920.708	15515
920.818	15511
920.928	15439
921.038	15641
921.148	15576
921.258	15272
921.368	15176
921.477	15066
921.587	15001
921.697	14906
921.806	15005
921.916	14921
922.025	14773
922.134	14697
922.244	14598
922.353	14678
922.462	14606
922.571	14415
922.68	14377
922.789	14275
922.898	14347
923.007	14229
923.116	14301
923.224	14259
923.333	14218
923.442	14107
923.55	14130
923.659	14103
923.767	14115
923.876	14043
923.984	14134
924.092	13993
924.201	14077
924.309	14035
924.417	14077
924.525	14039
924.633	13940
924.741	14914
924.849	13715
924.956	13902
925.064	13769
925.172	13643
925.279	13620
925.387	13700
925.494	13658
925.602	13849
925.709	13742
925.816	13575
925.924	13575
926.031	13700
926.138	13563
926.245	13666
926.352	13460
926.459	13582
926.566	13639
926.673	13510
926.779	13365
926.886	13339
926.993	13206
927.099	13213
927.206	13183
927.312	13160
927.419	13228
927.525	13179
927.631	13289
927.737	13126
927.843	13107
927.95	12897
928.056	12981
928.162	12958
928.267	13057
928.373	13613
928.479	13213
928.585	12837
928.69	12985
928.796	12996
928.901	12890
929.007	12764
929.112	12913
929.218	12795
929.323	12798
929.428	12711
929.533	12935
929.638	12639
929.743	12662
929.848	12741
929.953	12703
930.058	12585
930.163	12357
930.267	12426
930.372	12578
930.477	12270
930.581	12681
930.685	12380
930.79	12235
930.894	12281
930.998	12254
931.103	12475
931.207	11992
931.311	11977
931.415	11805
931.519	11707
931.623	11585
