Data from test_V78500241_3111.txt Node
Date: Fri Mar 25 16:03:21 CST 2022
User: usil
Spectrometer: V785-0024
Trigger mode: 0
Integration Time (sec): 4.000000E-1
Scans to average: 1
Nonlinearity correction enabled: false
Boxcar width: 0
Storing dark spectrum: false
XAxis mode: Wavelengths
Number of Pixels in Spectrum: 1024
>>>>>Begin Spectral Data<<<<<
801.071	28531
801.214	28535
801.356	28143
801.499	28215
801.641	28070
801.783	28036
801.926	27979
802.068	27945
802.211	28021
802.353	28120
802.496	27800
802.638	27861
802.78	27686
802.923	27705
803.065	27599
803.208	27637
803.35	27622
803.492	27953
803.635	28002
803.777	27774
803.919	28067
804.061	28120
804.204	27975
804.346	28067
804.488	27865
804.63	27941
804.773	27987
804.915	28010
805.057	28093
805.199	28002
805.341	28044
805.483	28177
805.626	28082
805.768	28059
805.91	28131
806.052	28143
806.194	28124
806.336	28295
806.478	28287
806.62	28013
806.762	28272
806.904	28470
807.046	28710
807.188	28584
807.33	28687
807.472	28557
807.614	28626
807.756	28580
807.898	28546
808.04	28348
808.182	28489
808.324	28455
808.465	28398
808.607	28687
808.749	28869
808.891	28888
809.033	28915
809.174	28930
809.316	28767
809.458	28694
809.6	28767
809.741	28687
809.883	28862
810.025	29060
810.166	29018
810.308	29014
810.45	29018
810.591	28984
810.733	28900
810.875	28972
811.016	28748
811.158	28641
811.299	28869
811.441	28892
811.582	29132
811.724	28847
811.865	28816
812.007	28946
812.148	28862
812.29	28896
812.431	28984
812.573	29147
812.714	29406
812.855	29284
812.997	29467
813.138	29463
813.279	29535
813.421	29349
813.562	29155
813.703	29098
813.845	29181
813.986	28763
814.127	28470
814.268	28523
814.41	28535
814.551	28554
814.692	28478
814.833	28504
814.974	28599
815.115	28455
815.256	28337
815.397	28295
815.539	28284
815.68	28234
815.821	28268
815.962	28318
816.103	28440
816.244	28120
816.385	28200
816.526	28128
816.666	27968
816.807	27717
816.948	27819
817.089	27945
817.23	27755
817.371	27850
817.512	27857
817.653	27861
817.793	27747
817.934	27709
818.075	27850
818.216	27808
818.356	27850
818.497	27755
818.638	27629
818.778	27587
818.919	27595
819.06	27694
819.2	27800
819.341	27865
819.481	27880
819.622	27941
819.762	28299
819.903	28150
820.043	28013
820.184	27968
820.324	27968
820.465	28131
820.605	28036
820.746	28067
820.886	27892
821.026	27956
821.167	27956
821.307	27945
821.447	27804
821.588	27854
821.728	27759
821.868	27389
822.008	27302
822.149	27214
822.289	27237
822.429	27001
822.569	27058
822.709	27062
822.849	26796
822.99	26861
823.13	26811
823.27	26857
823.41	26708
823.55	26617
823.69	26579
823.83	26522
823.97	26613
824.11	26530
824.25	26442
824.389	26469
824.529	26609
824.669	26427
824.809	26587
824.949	26374
825.089	26526
825.228	26453
825.368	26320
825.508	26507
825.648	26366
825.787	26385
825.927	26366
826.067	26275
826.206	26328
826.346	26362
826.485	26355
826.625	26294
826.765	26507
826.904	26358
827.044	26218
827.183	26077
827.323	26005
827.462	26164
827.601	26111
827.741	26020
827.88	25993
828.02	26001
828.159	26050
828.298	26176
828.437	26199
828.577	26012
828.716	26122
828.855	26020
828.994	25772
829.134	25788
829.273	25746
829.412	25784
829.551	25685
829.69	25639
829.829	25742
829.968	25837
830.107	25811
830.246	25708
830.385	25731
830.524	25689
830.663	25506
830.802	25506
830.941	25403
831.08	25285
831.219	25457
831.357	25346
831.496	25506
831.635	25362
831.774	25225
831.913	25263
832.051	25148
832.19	25206
832.329	25038
832.467	25061
832.606	24863
832.744	25000
832.883	24981
833.022	25095
833.16	24992
833.299	25084
833.437	25103
833.576	25114
833.714	25187
833.852	25023
833.991	24992
834.129	25194
834.267	25091
834.406	25103
834.544	25080
834.682	25057
834.821	25084
834.959	25209
835.097	24973
835.235	25027
835.373	25057
835.511	25034
835.65	24932
835.788	24935
835.926	24753
836.064	24700
836.202	24776
836.34	24901
836.478	25027
836.615	24875
836.753	24901
836.891	25015
837.029	24909
837.167	24928
837.305	24745
837.443	24768
837.58	24719
837.718	24867
837.856	24738
837.993	24642
838.131	24658
838.269	24639
838.406	24616
838.544	24601
838.681	24357
838.819	24376
838.956	24228
839.094	24186
839.231	24395
839.369	24426
839.506	24608
839.643	24350
839.781	24281
839.918	24178
840.055	24232
840.193	24110
840.33	24072
840.467	24140
840.604	24144
840.742	24330
840.879	23969
841.016	24083
841.153	23984
841.29	24152
841.427	24152
841.564	24110
841.701	24018
841.838	24095
841.975	23920
842.112	24045
842.249	24018
842.385	23821
842.522	24182
842.659	23961
842.796	23931
842.933	23904
843.069	23767
843.206	23821
843.343	23817
843.479	23828
843.616	23927
843.752	23608
843.889	23668
844.025	23794
844.162	23649
844.298	23638
844.435	23726
844.571	23623
844.708	23665
844.844	23752
844.98	23752
845.117	23752
845.253	23634
845.389	23471
845.525	23554
845.661	23535
845.798	23436
845.934	23490
846.07	23318
846.206	23391
846.342	23486
846.478	23296
846.614	23162
846.75	23025
846.886	23121
847.022	23117
847.158	23147
847.294	23216
847.429	22972
847.565	23204
847.701	23425
847.837	22869
847.972	22881
848.108	22896
848.244	23029
848.379	22759
848.515	22740
848.65	22675
848.786	22759
848.921	22733
849.057	22885
849.192	22725
849.328	22733
849.463	22816
849.598	22626
849.734	22687
849.869	22519
850.004	22508
850.14	22596
850.275	22470
850.41	22371
850.545	22310
850.68	22428
850.815	22360
850.95	22470
851.085	22516
851.22	22656
851.355	22485
851.49	22443
851.625	22394
851.76	22352
851.895	22504
852.03	22333
852.165	22500
852.299	22592
852.434	22466
852.569	22504
852.703	22329
852.838	22470
852.973	22653
853.107	22474
853.242	22417
853.376	22207
853.511	22291
853.645	22276
853.78	22352
853.914	22481
854.048	22303
854.183	22265
854.317	22268
854.451	22474
854.585	22375
854.72	22242
854.854	22352
854.988	22299
855.122	22344
855.256	22158
855.39	22276
855.524	22382
855.658	22284
855.792	22291
855.926	22291
856.06	22200
856.194	22344
856.327	22356
856.461	22284
856.595	22242
856.729	22154
856.862	22348
856.996	22257
857.13	22265
857.263	22382
857.397	22253
857.53	22185
857.664	22268
857.797	22348
857.931	22356
858.064	22306
858.197	22447
858.331	22169
858.464	22192
858.597	22067
858.731	22257
858.864	22211
858.997	22204
859.13	22276
859.263	22265
859.396	22341
859.529	22204
859.662	22192
859.795	22169
859.928	22276
860.061	22371
860.194	22451
860.327	22409
860.46	22253
860.592	22440
860.725	22333
860.858	22557
860.99	22417
861.123	22162
861.256	22200
861.388	22215
861.521	22995
861.653	22093
861.786	22059
861.918	22173
862.05	22059
862.183	22109
862.315	22230
862.447	22230
862.58	22204
862.712	22017
862.844	22036
862.976	22143
863.108	22074
863.24	22348
863.372	21903
863.504	22013
863.636	21926
863.768	21930
863.9	22055
864.032	21873
864.164	21983
864.296	21987
864.428	22135
864.559	22093
864.691	22044
864.823	21994
864.954	22044
865.086	21937
865.217	21842
865.349	21808
865.48	21907
865.612	21842
865.743	21968
865.875	21823
866.006	21800
866.137	21945
866.269	21857
866.4	21865
866.531	21705
866.662	21789
866.793	21717
866.924	21739
867.055	21800
867.186	21876
867.317	21743
867.448	21682
867.579	21698
867.71	21618
867.841	21644
867.972	21778
868.103	21873
868.233	21770
868.364	21770
868.495	21911
868.625	22017
868.756	22154
868.886	21884
869.017	21991
869.147	22097
869.278	22265
869.408	22044
869.539	21983
869.669	22093
869.799	22185
869.929	22097
870.06	22185
870.19	22200
870.32	22341
870.45	22421
870.58	22459
870.71	22455
870.84	22497
870.97	22417
871.1	22500
871.23	22584
871.36	22694
871.489	22462
871.619	22702
871.749	22561
871.879	22805
872.008	22801
872.138	22542
872.267	22588
872.397	22519
872.526	22417
872.656	22504
872.785	22451
872.915	22683
873.044	22771
873.173	22622
873.303	22717
873.432	22816
873.561	22740
873.69	22740
873.819	22630
873.948	22713
874.077	22710
874.206	22713
874.335	22557
874.464	22679
874.593	22862
874.722	22778
874.851	22946
874.979	22877
875.108	22972
875.237	22908
875.365	22801
875.494	22831
875.623	22915
875.751	22847
875.88	22793
876.008	22949
876.136	23083
876.265	23208
876.393	23421
876.521	23258
876.65	23330
876.778	23318
876.906	23261
877.034	23223
877.162	23239
877.29	23151
877.418	23178
877.546	23387
877.674	23277
877.802	23227
877.93	23151
878.058	23254
878.185	23064
878.313	23094
878.441	23204
878.568	23071
878.696	23189
878.824	23208
878.951	23296
879.079	23303
879.206	23486
879.333	23395
879.461	23143
879.588	23433
879.715	23341
879.842	23391
879.97	23398
880.097	23018
880.224	22942
880.351	23117
880.478	23022
880.605	23090
880.732	23010
880.859	23284
880.986	23041
881.112	23105
881.239	22911
881.366	22805
881.493	22649
881.619	22584
881.746	22588
881.872	22588
881.999	22481
882.125	22516
882.252	22660
882.378	22592
882.505	22702
882.631	22500
882.757	22310
882.883	22303
883.01	22196
883.136	22219
883.262	22143
883.388	22021
883.514	22337
883.64	22341
883.766	22219
883.892	22093
884.018	22067
884.143	22219
884.269	22360
884.395	22063
884.52	21869
884.646	21953
884.772	21804
884.897	21759
885.023	21766
885.148	21991
885.274	21835
885.399	22013
885.524	21956
885.65	21918
885.775	21991
885.9	21812
886.025	21968
886.15	22036
886.275	21941
886.4	21755
886.525	21800
886.65	21842
886.775	21819
886.9	22051
887.025	22063
887.149	21854
887.274	21660
887.399	21656
887.523	21572
887.648	21580
887.773	21492
887.897	21751
888.021	21766
888.146	21663
888.27	21728
888.395	21667
888.519	21732
888.643	21808
888.767	21774
888.891	21450
889.015	21466
889.139	21614
889.263	21504
889.387	21496
889.511	21717
889.635	21462
889.759	21363
889.883	21473
890.006	21382
890.13	21511
890.254	21431
890.377	21420
890.501	21214
890.624	21199
890.748	21332
890.871	21089
890.995	21028
891.118	20883
891.241	21135
891.364	21013
891.488	21150
891.611	21112
891.734	20937
891.857	21142
891.98	20952
892.103	21005
892.226	20952
892.349	20845
892.471	20834
892.594	20891
892.717	20845
892.839	20842
892.962	20925
893.085	21009
893.207	20902
893.33	20918
893.452	20899
893.575	20887
893.697	20902
893.819	21062
893.941	21100
894.064	20975
894.186	20811
894.308	20823
894.43	20986
894.552	21017
894.674	21127
894.796	20781
894.918	20967
895.04	20948
895.161	20986
895.283	20857
895.405	20708
895.526	20773
895.648	20929
895.769	20815
895.891	20967
896.012	20925
896.134	20910
896.255	20906
896.376	20834
896.498	20899
896.619	20807
896.74	20895
896.861	21047
896.982	21192
897.103	21313
897.224	21108
897.345	21119
897.466	21051
897.587	21192
897.708	21188
897.828	21226
897.949	21070
898.07	20998
898.19	20998
898.311	21173
898.431	21074
898.552	21001
898.672	21150
898.792	21100
898.913	21138
899.033	20986
899.153	20876
899.273	20682
899.393	20853
899.513	20834
899.633	20838
899.753	20849
899.873	20689
899.993	20891
900.113	20743
900.232	20899
900.352	20598
900.472	20575
900.591	20564
900.711	20617
900.83	20651
900.95	20754
901.069	20716
901.189	20526
901.308	20278
901.427	20214
901.546	20153
901.665	20218
901.784	20111
901.904	20084
902.023	19986
902.141	19681
902.26	19662
902.379	19765
902.498	19597
902.617	19689
902.735	19814
902.854	19597
902.973	19624
903.091	19476
903.21	19407
903.328	19255
903.446	19312
903.565	19145
903.683	19126
903.801	18966
903.919	19072
904.038	19160
904.156	18856
904.274	18928
904.392	18958
904.51	18924
904.627	18890
904.745	18981
904.863	18973
904.981	18688
905.098	18551
905.216	18593
905.334	18559
905.451	18521
905.569	18593
905.686	18563
905.803	18536
905.921	18323
906.038	18376
906.155	18426
906.272	18247
906.389	18315
906.506	18064
906.623	18102
906.74	18015
906.857	17927
906.974	17855
907.091	18076
907.208	18258
907.324	18155
907.441	18049
907.557	17908
907.674	17821
907.79	17695
907.907	17726
908.023	17836
908.139	17726
908.256	17756
908.372	17608
908.488	17699
908.604	17532
908.72	17493
908.836	17535
908.952	17467
909.068	17573
909.184	17581
909.3	17547
909.415	17482
909.531	17433
909.647	17296
909.762	17273
909.878	17258
909.993	17239
910.108	17204
910.224	17155
910.339	17105
910.454	17159
910.57	16923
910.685	17003
910.8	17246
910.915	17197
911.03	16927
911.145	16885
911.259	16786
911.374	16809
911.489	16793
911.604	16565
911.718	16565
911.833	16538
911.947	16500
912.062	16272
912.176	16519
912.291	16607
912.405	16622
912.519	16698
912.633	16755
912.748	16611
912.862	16375
912.976	16341
913.09	16207
913.204	16268
913.318	16329
913.431	16470
913.545	16436
913.659	16382
913.772	16257
913.886	16124
914	16101
914.113	16322
914.226	16196
914.34	16078
914.453	16017
914.566	16105
914.68	16040
914.793	15922
914.906	15774
915.019	15709
915.132	15641
915.245	15648
915.358	15724
915.47	15717
915.583	15606
915.696	15709
915.809	15728
915.921	15846
916.034	15618
916.146	15564
916.259	15660
916.371	15739
916.483	15564
916.595	15500
916.708	15507
916.82	15603
916.932	15595
917.044	15534
917.156	15519
917.268	15443
917.38	15393
917.491	15302
917.603	15332
917.715	15412
917.826	15439
917.938	15245
918.049	15211
918.161	15332
918.272	15355
918.384	15401
918.495	15302
918.606	15108
918.717	15077
918.828	15093
918.939	15161
919.05	15116
919.161	15001
919.272	14941
919.383	15062
919.494	15032
919.604	15355
919.715	15051
919.826	14933
919.936	15028
920.047	15123
920.157	15047
920.267	15245
920.378	15062
920.488	14971
920.598	15237
920.708	15412
920.818	15192
920.928	15195
921.038	15264
921.148	15245
921.258	14883
921.368	14956
921.477	14762
921.587	14648
921.697	14648
921.806	14838
921.916	14629
922.025	14465
922.134	14415
922.244	14324
922.353	14552
922.462	14275
922.571	14278
922.68	14107
922.789	14130
922.898	14115
923.007	14016
923.116	14138
923.224	14111
923.333	14005
923.442	13963
923.55	13856
923.659	13936
923.767	13925
923.876	13761
923.984	13883
924.092	13807
924.201	13693
924.309	13799
924.417	13814
924.525	13674
924.633	13708
924.741	14469
924.849	13548
924.956	13499
925.064	13472
925.172	13419
925.279	13392
925.387	13567
925.494	13449
925.602	13597
925.709	13514
925.816	13343
925.924	13415
926.031	13476
926.138	13392
926.245	13403
926.352	13312
926.459	13422
926.566	13518
926.673	13335
926.779	13168
926.886	13175
926.993	13015
927.099	12863
927.206	12973
927.312	12821
927.419	13122
927.525	13023
927.631	13015
927.737	12859
927.843	12821
927.95	12760
928.056	12745
928.162	12768
928.267	12791
928.373	13411
928.479	12924
928.585	12684
928.69	12798
928.796	12726
928.901	12601
929.007	12551
929.112	12627
929.218	12589
929.323	12540
929.428	12578
929.533	12658
929.638	12380
929.743	12536
929.848	12601
929.953	12429
930.058	12418
930.163	12194
930.267	12251
930.372	12338
930.477	12133
930.581	12391
930.685	12266
930.79	11950
930.894	12121
930.998	12049
931.103	12171
931.207	11767
931.311	11672
931.415	11668
931.519	11395
931.623	11463
