Data from test_V78500241_2635.txt Node
Date: Fri Mar 25 16:00:03 CST 2022
User: usil
Spectrometer: V785-0024
Trigger mode: 0
Integration Time (sec): 4.000000E-1
Scans to average: 1
Nonlinearity correction enabled: false
Boxcar width: 0
Storing dark spectrum: false
XAxis mode: Wavelengths
Number of Pixels in Spectrum: 1024
>>>>>Begin Spectral Data<<<<<
801.071	28942
801.214	28892
801.356	28717
801.499	28778
801.641	28527
801.783	28557
801.926	28786
802.068	28523
802.211	28508
802.353	28459
802.496	28421
802.638	28177
802.78	28234
802.923	28303
803.065	28268
803.208	28333
803.35	28280
803.492	28481
803.635	28459
803.777	28306
803.919	28428
804.061	28763
804.204	28630
804.346	28459
804.488	28409
804.63	28379
804.773	28405
804.915	28683
805.057	28649
805.199	28500
805.341	28626
805.483	28653
805.626	28721
805.768	28660
805.91	28683
806.052	28774
806.194	28489
806.336	28828
806.478	28763
806.62	28698
806.762	28752
806.904	28968
807.046	29212
807.188	29204
807.33	29227
807.472	29117
807.614	28942
807.756	29250
807.898	28995
808.04	28850
808.182	29094
808.324	28976
808.465	29124
808.607	29288
808.749	29414
808.891	29341
809.033	29501
809.174	29478
809.316	29600
809.458	29391
809.6	29414
809.741	29318
809.883	29687
810.025	29638
810.166	29490
810.308	29672
810.45	29630
810.591	29703
810.733	29444
810.875	29486
811.016	29360
811.158	29391
811.299	29436
811.441	29516
811.582	29398
811.724	29406
811.865	29360
812.007	29543
812.148	29425
812.29	29463
812.431	29646
812.573	29794
812.714	29813
812.855	29805
812.997	29904
813.138	30235
813.279	30060
813.421	29920
813.562	29908
813.703	29859
813.845	29649
813.986	29341
814.127	29235
814.268	29136
814.41	29220
814.551	29105
814.692	29261
814.833	28972
814.974	29132
815.115	29143
815.256	29014
815.397	29033
815.539	29064
815.68	29029
815.821	28934
815.962	28919
816.103	28717
816.244	28687
816.385	28866
816.526	28561
816.666	28546
816.807	28314
816.948	28523
817.089	28447
817.23	28470
817.371	28527
817.512	28394
817.653	28398
817.793	28443
817.934	28565
818.075	28459
818.216	28398
818.356	28478
818.497	28226
818.638	28253
818.778	28234
818.919	28261
819.06	28421
819.2	28337
819.341	28497
819.481	28436
819.622	28588
819.762	28820
819.903	28748
820.043	28584
820.184	28573
820.324	28660
820.465	28641
820.605	28717
820.746	28409
820.886	28299
821.026	28626
821.167	28455
821.307	28687
821.447	28531
821.588	28386
821.728	28253
821.868	28090
822.008	27987
822.149	27831
822.289	27880
822.429	27694
822.569	27622
822.709	27625
822.849	27374
822.99	27447
823.13	27340
823.27	27313
823.41	27355
823.55	27085
823.69	27237
823.83	27378
823.97	27260
824.11	27070
824.25	26998
824.389	27058
824.529	27169
824.669	27146
824.809	27279
824.949	27131
825.089	27321
825.228	27157
825.368	26887
825.508	26990
825.648	26906
825.787	27009
825.927	27077
826.067	26834
826.206	27017
826.346	26990
826.485	27085
826.625	26902
826.765	27135
826.904	27024
827.044	26834
827.183	26727
827.323	26663
827.462	26796
827.601	26712
827.741	26739
827.88	26632
828.02	26621
828.159	26708
828.298	26739
828.437	26712
828.577	26667
828.716	26773
828.855	26499
828.994	26396
829.134	26263
829.273	26473
829.412	26442
829.551	26332
829.69	26385
829.829	26351
829.968	26518
830.107	26419
830.246	26347
830.385	26355
830.524	26415
830.663	26259
830.802	26115
830.941	25974
831.08	26008
831.219	25959
831.357	26153
831.496	26214
831.635	25966
831.774	26039
831.913	25856
832.051	25708
832.19	25811
832.329	25731
832.467	25795
832.606	25693
832.744	25529
832.883	25613
833.022	25563
833.16	25712
833.299	25693
833.437	25734
833.576	25864
833.714	25765
833.852	25757
833.991	25738
834.129	25795
834.267	25670
834.406	25712
834.544	25704
834.682	25708
834.821	25693
834.959	25864
835.097	25685
835.235	25765
835.373	25677
835.511	25605
835.65	25582
835.788	25586
835.926	25491
836.064	25377
836.202	25377
836.34	25559
836.478	25533
836.615	25506
836.753	25457
836.891	25559
837.029	25415
837.167	25499
837.305	25468
837.443	25514
837.58	25320
837.718	25407
837.856	25403
837.993	25312
838.131	25270
838.269	25202
838.406	25335
838.544	25194
838.681	25122
838.819	25012
838.956	24772
839.094	24909
839.231	24890
839.369	24996
839.506	25266
839.643	25080
839.781	24726
839.918	24760
840.055	24863
840.193	24795
840.33	24867
840.467	24886
840.604	24661
840.742	25008
840.879	24582
841.016	24707
841.153	24700
841.29	25053
841.427	24654
841.564	24825
841.701	24730
841.838	24665
841.975	24669
842.112	24593
842.249	24696
842.385	24365
842.522	24768
842.659	24593
842.796	24479
842.933	24464
843.069	24452
843.206	24433
843.343	24532
843.479	24521
843.616	24448
843.752	24273
843.889	24327
844.025	24346
844.162	24213
844.298	24338
844.435	24334
844.571	24247
844.708	24285
844.844	24448
844.98	24410
845.117	24277
845.253	24068
845.389	24155
845.525	24224
845.661	24121
845.798	23977
845.934	23942
846.07	23969
846.206	23969
846.342	24167
846.478	23988
846.614	23745
846.75	23691
846.886	23687
847.022	23707
847.158	23786
847.294	23691
847.429	23729
847.565	23733
847.701	23798
847.837	23376
847.972	23459
848.108	23581
848.244	23596
848.379	23379
848.515	23227
848.65	23341
848.786	23296
848.921	23299
849.057	23402
849.192	23448
849.328	23376
849.463	23303
849.598	23292
849.734	23235
849.869	23170
850.004	22965
850.14	22976
850.275	23075
850.41	23018
850.545	22980
850.68	22892
850.815	23006
850.95	23079
851.085	23246
851.22	23178
851.355	23143
851.49	22900
851.625	23014
851.76	23014
851.895	23044
852.03	22976
852.165	23083
852.299	23178
852.434	23041
852.569	23102
852.703	23113
852.838	23162
852.973	23208
853.107	23151
853.242	23067
853.376	22957
853.511	22812
853.645	22862
853.78	23010
853.914	23014
854.048	22862
854.183	22774
854.317	22858
854.451	23113
854.585	22767
854.72	22908
854.854	22995
854.988	22824
855.122	22881
855.256	22717
855.39	22858
855.524	22953
855.658	22873
855.792	22881
855.926	22946
856.06	22896
856.194	22866
856.327	22991
856.461	22866
856.595	22850
856.729	22892
856.862	23071
856.996	22866
857.13	22965
857.263	23052
857.397	22965
857.53	22869
857.664	23018
857.797	22904
857.931	22869
858.064	23022
858.197	22965
858.331	22919
858.464	22812
858.597	22793
858.731	22915
858.864	22812
858.997	22782
859.13	22881
859.263	22938
859.396	22961
859.529	22889
859.662	22850
859.795	22896
859.928	22927
860.061	23056
860.194	23067
860.327	22957
860.46	22885
860.592	22873
860.725	23067
860.858	23094
860.99	22915
861.123	22850
861.256	22748
861.388	22828
861.521	23642
861.653	22759
861.786	22698
861.918	22839
862.05	22759
862.183	22748
862.315	22904
862.447	22736
862.58	22797
862.712	22535
862.844	22603
862.976	22778
863.108	22523
863.24	22930
863.372	22478
863.504	22675
863.636	22531
863.768	22466
863.9	22596
864.032	22561
864.164	22516
864.296	22512
864.428	22668
864.559	22683
864.691	22668
864.823	22580
864.954	22588
865.086	22493
865.217	22466
865.349	22291
865.48	22436
865.612	22440
865.743	22561
865.875	22504
866.006	22436
866.137	22557
866.269	22466
866.4	22360
866.531	22402
866.662	22447
866.793	22325
866.924	22371
867.055	22466
867.186	22508
867.317	22440
867.448	22177
867.579	22367
867.71	22333
867.841	22230
867.972	22550
868.103	22310
868.233	22379
868.364	22291
868.495	22504
868.625	22603
868.756	22786
868.886	22470
869.017	22592
869.147	22683
869.278	22675
869.408	22694
869.539	22596
869.669	22653
869.799	22790
869.929	22733
870.06	22630
870.19	22839
870.32	22953
870.45	22980
870.58	22896
870.71	23117
870.84	23105
870.97	22915
871.1	22987
871.23	23128
871.36	23292
871.489	23105
871.619	23189
871.749	23140
871.879	23334
872.008	23471
872.138	23254
872.267	23227
872.397	23140
872.526	22953
872.656	23067
872.785	23006
872.915	23166
873.044	23231
873.173	23265
873.303	23280
873.432	23356
873.561	23353
873.69	23223
873.819	23235
873.948	23246
874.077	23254
874.206	23102
874.335	23280
874.464	23318
874.593	23372
874.722	23372
874.851	23417
874.979	23528
875.108	23425
875.237	23322
875.365	23376
875.494	23376
875.623	23448
875.751	23421
875.88	23395
876.008	23520
876.136	23707
876.265	23748
876.393	23977
876.521	23817
876.65	23824
876.778	23832
876.906	23729
877.034	23684
877.162	23794
877.29	23745
877.418	23805
877.546	23817
877.674	23707
877.802	23729
877.93	23760
878.058	23619
878.185	23737
878.313	23779
878.441	23703
878.568	23703
878.696	23680
878.824	23840
878.951	23805
879.079	23912
879.206	24106
879.333	24015
879.461	23718
879.588	23939
879.715	24049
879.842	24079
879.97	23809
880.097	23528
880.224	23531
880.351	23680
880.478	23531
880.605	23509
880.732	23619
880.859	23790
880.986	23676
881.112	23646
881.239	23520
881.366	23379
881.493	23242
881.619	23200
881.746	23185
881.872	23204
881.999	23124
882.125	23128
882.252	23128
882.378	23003
882.505	23299
882.631	22991
882.757	22812
882.883	22911
883.01	22915
883.136	22759
883.262	22698
883.388	22729
883.514	22824
883.64	22835
883.766	22713
883.892	22611
884.018	22622
884.143	22683
884.269	22839
884.395	22615
884.52	22284
884.646	22527
884.772	22303
884.897	22367
885.023	22508
885.148	22531
885.274	22474
885.399	22607
885.524	22402
885.65	22440
885.775	22382
885.9	22440
886.025	22485
886.15	22569
886.275	22428
886.4	22322
886.525	22367
886.65	22341
886.775	22261
886.9	22546
887.025	22641
887.149	22363
887.274	22276
887.399	22219
887.523	22207
887.648	22093
887.773	22063
887.897	22333
888.021	22322
888.146	22131
888.27	22200
888.395	22284
888.519	22272
888.643	22196
888.767	22158
888.891	22074
889.015	21934
889.139	21998
889.263	22040
889.387	22128
889.511	22147
889.635	22013
889.759	21956
889.883	21945
890.006	21953
890.13	22044
890.254	21835
890.377	21930
890.501	21755
890.624	21732
890.748	21816
890.871	21549
890.995	21576
891.118	21496
891.241	21485
891.364	21576
891.488	21682
891.611	21637
891.734	21587
891.857	21568
891.98	21625
892.103	21542
892.226	21488
892.349	21401
892.471	21370
892.594	21473
892.717	21576
892.839	21545
892.962	21336
893.085	21431
893.207	21386
893.33	21336
893.452	21408
893.575	21473
893.697	21321
893.819	21648
893.941	21583
894.064	21682
894.186	21462
894.308	21203
894.43	21534
894.552	21591
894.674	21405
894.796	21447
894.918	21393
895.04	21378
895.161	21549
895.283	21443
895.405	21207
895.526	21382
895.648	21496
895.769	21473
895.891	21397
896.012	21462
896.134	21420
896.255	21485
896.376	21481
896.498	21389
896.619	21431
896.74	21336
896.861	21466
896.982	21724
897.103	21819
897.224	21625
897.345	21641
897.466	21447
897.587	21595
897.708	21652
897.828	21694
897.949	21523
898.07	21378
898.19	21538
898.311	21652
898.431	21469
898.552	21485
898.672	21652
898.792	21530
898.913	21637
899.033	21420
899.153	21428
899.273	21203
899.393	21321
899.513	21260
899.633	21351
899.753	21245
899.873	21192
899.993	21340
900.113	21131
900.232	21245
900.352	21192
900.472	21161
900.591	21013
900.711	21146
900.83	20941
900.95	21214
901.069	21112
901.189	20979
901.308	20716
901.427	20727
901.546	20606
901.665	20838
901.784	20629
901.904	20488
902.023	20343
902.141	20256
902.26	20210
902.379	20183
902.498	20202
902.617	20081
902.735	20130
902.854	20153
902.973	20039
903.091	19811
903.21	19696
903.328	19772
903.446	19731
903.565	19620
903.683	19518
903.801	19518
903.919	19567
904.038	19556
904.156	19377
904.274	19453
904.392	19339
904.51	19335
904.627	19213
904.745	19327
904.863	19316
904.981	19168
905.098	19038
905.216	19088
905.334	19019
905.451	19034
905.569	18943
905.686	19008
905.803	18947
905.921	18791
906.038	18894
906.155	18806
906.272	18646
906.389	18749
906.506	18559
906.623	18517
906.74	18540
906.857	18452
906.974	18464
907.091	18574
907.208	18506
907.324	18521
907.441	18422
907.557	18315
907.674	18243
907.79	18106
907.907	18155
908.023	18319
908.139	18254
908.256	18228
908.372	18163
908.488	17992
908.604	17969
908.72	17870
908.836	18057
908.952	17863
909.068	18064
909.184	18098
909.3	17901
909.415	18076
909.531	17893
909.647	17619
909.762	17665
909.878	17638
909.993	17668
910.108	17551
910.224	17528
910.339	17589
910.454	17448
910.57	17436
910.685	17353
910.8	17562
910.915	17623
911.03	17402
911.145	17181
911.259	17193
911.374	17216
911.489	17121
911.604	17086
911.718	16961
911.833	16911
911.947	16873
912.062	16812
912.176	16915
912.291	17060
912.405	16980
912.519	17098
912.633	17052
912.748	17037
912.862	16843
912.976	16831
913.09	16664
913.204	16691
913.318	16869
913.431	16824
913.545	16873
913.659	16892
913.772	16641
913.886	16523
914	16577
914.113	16603
914.226	16660
914.34	16531
914.453	16459
914.566	16580
914.68	16333
914.793	16219
914.906	16238
915.019	16105
915.132	16044
915.245	16112
915.358	16093
915.47	16101
915.583	16112
915.696	16048
915.809	16230
915.921	16303
916.034	16025
916.146	15922
916.259	15934
916.371	16093
916.483	15998
916.595	15949
916.708	15953
916.82	15888
916.932	15846
917.044	15895
917.156	15800
917.268	15648
917.38	15778
917.491	15671
917.603	15739
917.715	15793
917.826	15873
917.938	15610
918.049	15530
918.161	15549
918.272	15724
918.384	15724
918.495	15671
918.606	15473
918.717	15367
918.828	15523
918.939	15557
919.05	15367
919.161	15420
919.272	15203
919.383	15428
919.494	15458
919.604	15679
919.715	15507
919.826	15275
919.936	15393
920.047	15447
920.157	15321
920.267	15576
920.378	15382
920.488	15458
920.598	15481
920.708	15633
920.818	15564
920.928	15610
921.038	15648
921.148	15568
921.258	15378
921.368	15245
921.477	15203
921.587	15089
921.697	15005
921.806	15157
921.916	14925
922.025	14872
922.134	14830
922.244	14785
922.353	14849
922.462	14663
922.571	14617
922.68	14450
922.789	14294
922.898	14381
923.007	14412
923.116	14396
923.224	14454
923.333	14385
923.442	14271
923.55	14301
923.659	14244
923.767	14366
923.876	14172
923.984	14252
924.092	14172
924.201	14100
924.309	14164
924.417	14134
924.525	14126
924.633	14024
924.741	15005
924.849	13856
924.956	13955
925.064	13837
925.172	13788
925.279	13826
925.387	13841
925.494	13856
925.602	13860
925.709	13837
925.816	13693
925.924	13826
926.031	13811
926.138	13712
926.245	13791
926.352	13563
926.459	13822
926.566	13807
926.673	13601
926.779	13571
926.886	13499
926.993	13350
927.099	13343
927.206	13301
927.312	13354
927.419	13289
927.525	13381
927.631	13411
927.737	13247
927.843	13255
927.95	13019
928.056	13149
928.162	13156
928.267	13152
928.373	13681
928.479	13289
928.585	13000
928.69	13103
928.796	13152
928.901	13057
929.007	12802
929.112	12954
929.218	12875
929.323	12848
929.428	12810
929.533	13053
929.638	12684
929.743	12859
929.848	12863
929.953	12677
930.058	12734
930.163	12555
930.267	12578
930.372	12623
930.477	12506
930.581	12715
930.685	12467
930.79	12407
930.894	12395
930.998	12292
931.103	12509
931.207	12136
931.311	12019
931.415	11908
931.519	11786
931.623	11726
