Data from test_V78500241_1913.txt Node
Date: Fri Mar 25 15:55:03 CST 2022
User: usil
Spectrometer: V785-0024
Trigger mode: 0
Integration Time (sec): 4.000000E-1
Scans to average: 1
Nonlinearity correction enabled: false
Boxcar width: 0
Storing dark spectrum: false
XAxis mode: Wavelengths
Number of Pixels in Spectrum: 1024
>>>>>Begin Spectral Data<<<<<
801.071	28755
801.214	28672
801.356	28352
801.499	28474
801.641	28379
801.783	28154
801.926	28238
802.068	28246
802.211	28154
802.353	28093
802.496	27941
802.638	27819
802.78	27903
802.923	27926
803.065	27911
803.208	27751
803.35	28010
803.492	28032
803.635	28200
803.777	27968
803.919	28246
804.061	28401
804.204	28306
804.346	28078
804.488	28051
804.63	28207
804.773	28093
804.915	28310
805.057	28268
805.199	28257
805.341	28344
805.483	28246
805.626	28352
805.768	28303
805.91	28314
806.052	28348
806.194	28169
806.336	28668
806.478	28382
806.62	28375
806.762	28489
806.904	28618
807.046	28881
807.188	28801
807.33	28717
807.472	28961
807.614	28729
807.756	28577
807.898	28577
808.04	28546
808.182	28394
808.324	28554
808.465	28649
808.607	28995
808.749	28946
808.891	29143
809.033	29193
809.174	29052
809.316	29197
809.458	29060
809.6	29102
809.741	29193
809.883	29250
810.025	29433
810.166	29334
810.308	29216
810.45	29387
810.591	29178
810.733	29155
810.875	28896
811.016	28938
811.158	28946
811.299	29239
811.441	29170
811.582	29311
811.724	28930
811.865	28854
812.007	29003
812.148	29098
812.29	29064
812.431	29261
812.573	29478
812.714	29471
812.855	29531
812.997	29592
813.138	29684
813.279	29562
813.421	29589
813.562	29619
813.703	29345
813.845	29318
813.986	29060
814.127	28862
814.268	28649
814.41	28790
814.551	28698
814.692	28664
814.833	28679
814.974	28797
815.115	28710
815.256	28500
815.397	28691
815.539	28493
815.68	28493
815.821	28538
815.962	28763
816.103	28546
816.244	28440
816.385	28394
816.526	28242
816.666	28230
816.807	28070
816.948	28150
817.089	28181
817.23	27873
817.371	28112
817.512	28090
817.653	28006
817.793	27994
817.934	28040
818.075	28048
818.216	28105
818.356	28082
818.497	27835
818.638	27724
818.778	27800
818.919	27842
819.06	27930
819.2	27888
819.341	28128
819.481	27994
819.622	28196
819.762	28211
819.903	28443
820.043	28249
820.184	28188
820.324	28257
820.465	28272
820.605	28181
820.746	28242
820.886	27994
821.026	28169
821.167	28097
821.307	28226
821.447	28086
821.588	27934
821.728	27724
821.868	27698
822.008	27663
822.149	27553
822.289	27473
822.429	27150
822.569	27233
822.709	27142
822.849	27093
822.99	27093
823.13	26902
823.27	26940
823.41	26743
823.55	26781
823.69	26876
823.83	26815
823.97	26724
824.11	26739
824.25	26667
824.389	26796
824.529	26792
824.669	26712
824.809	26712
824.949	26781
825.089	26861
825.228	26746
825.368	26568
825.508	26655
825.648	26667
825.787	26632
825.927	26625
826.067	26507
826.206	26511
826.346	26484
826.485	26594
826.625	26564
826.765	26655
826.904	26541
827.044	26434
827.183	26385
827.323	26210
827.462	26453
827.601	26362
827.741	26275
827.88	26374
828.02	26320
828.159	26248
828.298	26294
828.437	26313
828.577	26229
828.716	26374
828.855	26191
828.994	25917
829.134	25898
829.273	26035
829.412	25959
829.551	25864
829.69	25875
829.829	25887
829.968	26031
830.107	26069
830.246	26122
830.385	25944
830.524	25868
830.663	25742
830.802	25597
830.941	25567
831.08	25502
831.219	25666
831.357	25731
831.496	25704
831.635	25628
831.774	25373
831.913	25453
832.051	25327
832.19	25415
832.329	25540
832.467	25285
832.606	25122
832.744	25168
832.883	25145
833.022	25202
833.16	25278
833.299	25259
833.437	25194
833.576	25282
833.714	25308
833.852	25479
833.991	25278
834.129	25415
834.267	25373
834.406	25327
834.544	25282
834.682	25339
834.821	25407
834.959	25491
835.097	25164
835.235	25289
835.373	25209
835.511	25206
835.65	25266
835.788	25133
835.926	25084
836.064	24894
836.202	24837
836.34	25065
836.478	25228
836.615	25091
836.753	25122
836.891	25236
837.029	25175
837.167	25038
837.305	25053
837.443	25122
837.58	24947
837.718	24852
837.856	24989
837.993	24814
838.131	24932
838.269	24920
838.406	24806
838.544	24939
838.681	24582
838.819	24551
838.956	24536
839.094	24418
839.231	24521
839.369	24547
839.506	24707
839.643	24646
839.781	24429
839.918	24338
840.055	24220
840.193	24407
840.33	24418
840.467	24422
840.604	24380
840.742	24597
840.879	24224
841.016	24399
841.153	24171
841.29	24525
841.427	24384
841.564	24456
841.701	24220
841.838	24315
841.975	24205
842.112	24144
842.249	24125
842.385	24110
842.522	24258
842.659	24228
842.796	24167
842.933	24053
843.069	24003
843.206	24034
843.343	24121
843.479	24041
843.616	24125
843.752	23939
843.889	23809
844.025	24087
844.162	23973
844.298	23828
844.435	23821
844.571	23729
844.708	23878
844.844	23965
844.98	24072
845.117	23931
845.253	23752
845.389	23802
845.525	23843
845.661	23596
845.798	23577
845.934	23596
846.07	23493
846.206	23642
846.342	23687
846.478	23596
846.614	23444
846.75	23368
846.886	23376
847.022	23410
847.158	23337
847.294	23334
847.429	23311
847.565	23345
847.701	23573
847.837	23086
847.972	22892
848.108	23075
848.244	23060
848.379	22877
848.515	22786
848.65	22915
848.786	22991
848.921	22900
849.057	23006
849.192	22999
849.328	22976
849.463	22790
849.598	22797
849.734	22858
849.869	22771
850.004	22717
850.14	22519
850.275	22694
850.41	22645
850.545	22527
850.68	22402
850.815	22584
850.95	22599
851.085	22877
851.22	22713
851.355	22706
851.49	22561
851.625	22664
851.76	22557
851.895	22550
852.03	22569
852.165	22679
852.299	22660
852.434	22698
852.569	22683
852.703	22649
852.838	22672
852.973	22782
853.107	22839
853.242	22580
853.376	22546
853.511	22303
853.645	22390
853.78	22656
853.914	22466
854.048	22424
854.183	22413
854.317	22516
854.451	22611
854.585	22538
854.72	22394
854.854	22592
854.988	22497
855.122	22443
855.256	22367
855.39	22512
855.524	22596
855.658	22527
855.792	22489
855.926	22402
856.06	22596
856.194	22432
856.327	22527
856.461	22363
856.595	22443
856.729	22470
856.862	22375
856.996	22382
857.13	22379
857.263	22546
857.397	22573
857.53	22447
857.664	22390
857.797	22588
857.931	22615
858.064	22451
858.197	22634
858.331	22379
858.464	22451
858.597	22424
858.731	22424
858.864	22489
858.997	22432
859.13	22379
859.263	22489
859.396	22577
859.529	22417
859.662	22466
859.795	22455
859.928	22516
860.061	22626
860.194	22649
860.327	22474
860.46	22516
860.592	22557
860.725	22546
860.858	22512
860.99	22542
861.123	22268
861.256	22398
861.388	22546
861.521	23322
861.653	22291
861.786	22291
861.918	22265
862.05	22394
862.183	22329
862.315	22447
862.447	22318
862.58	22440
862.712	22131
862.844	22109
862.976	22280
863.108	22181
863.24	22668
863.372	22135
863.504	22188
863.636	22196
863.768	22322
863.9	22101
864.032	22082
864.164	22044
864.296	22306
864.428	22276
864.559	22314
864.691	22204
864.823	22063
864.954	22204
865.086	22158
865.217	22090
865.349	21945
865.48	22044
865.612	22109
865.743	22207
865.875	22109
866.006	22017
866.137	22059
866.269	22051
866.4	22006
866.531	21926
866.662	21884
866.793	21876
866.924	21926
867.055	22063
867.186	21968
867.317	21987
867.448	21857
867.579	21895
867.71	21857
867.841	21880
867.972	22082
868.103	21892
868.233	21895
868.364	21945
868.495	22109
868.625	22246
868.756	22322
868.886	22139
869.017	22215
869.147	22310
869.278	22375
869.408	22261
869.539	22207
869.669	22310
869.799	22230
869.929	22306
870.06	22409
870.19	22512
870.32	22516
870.45	22580
870.58	22664
870.71	22820
870.84	22809
870.97	22546
871.1	22596
871.23	22767
871.36	22744
871.489	22847
871.619	22927
871.749	22748
871.879	22900
872.008	22927
872.138	22801
872.267	22782
872.397	22672
872.526	22630
872.656	22504
872.785	22577
872.915	22911
873.044	22889
873.173	22847
873.303	22847
873.432	22877
873.561	22984
873.69	22843
873.819	22835
873.948	22771
874.077	22858
874.206	22831
874.335	22812
874.464	22820
874.593	23166
874.722	22991
874.851	23006
874.979	23083
875.108	22957
875.237	23037
875.365	22904
875.494	22984
875.623	23128
875.751	22965
875.88	22991
876.008	23155
876.136	23220
876.265	23379
876.393	23474
876.521	23493
876.65	23463
876.778	23318
876.906	23410
877.034	23341
877.162	23433
877.29	23356
877.418	23368
877.546	23516
877.674	23395
877.802	23315
877.93	23318
878.058	23444
878.185	23277
878.313	23356
878.441	23368
878.568	23128
878.696	23318
878.824	23436
878.951	23573
879.079	23551
879.206	23687
879.333	23615
879.461	23478
879.588	23463
879.715	23414
879.842	23718
879.97	23486
880.097	23223
880.224	23231
880.351	23216
880.478	23208
880.605	23277
880.732	23117
880.859	23379
880.986	23166
881.112	23159
881.239	23052
881.366	22843
881.493	22881
881.619	22797
881.746	22877
881.872	22702
881.999	22630
882.125	22702
882.252	22725
882.378	22729
882.505	22968
882.631	22542
882.757	22504
882.883	22417
883.01	22375
883.136	22367
883.262	22295
883.388	22253
883.514	22466
883.64	22375
883.766	22394
883.892	22067
884.018	22204
884.143	22306
884.269	22402
884.395	22181
884.52	22128
884.646	22105
884.772	21941
884.897	21949
885.023	22112
885.148	22150
885.274	22211
885.399	22192
885.524	22097
885.65	22090
885.775	22078
885.9	21979
886.025	22070
886.15	22086
886.275	22063
886.4	21991
886.525	22105
886.65	21968
886.775	21987
886.9	22253
887.025	22120
887.149	22040
887.274	21778
887.399	21857
887.523	21865
887.648	21690
887.773	21755
887.897	21941
888.021	21793
888.146	21812
888.27	21892
888.395	22013
888.519	21876
888.643	21899
888.767	21930
888.891	21865
889.015	21633
889.139	21633
889.263	21663
889.387	21789
889.511	21762
889.635	21762
889.759	21591
889.883	21572
890.006	21530
890.13	21701
890.254	21591
890.377	21526
890.501	21397
890.624	21287
890.748	21420
890.871	21264
890.995	21123
891.118	21062
891.241	21176
891.364	21176
891.488	21298
891.611	21207
891.734	21119
891.857	21233
891.98	21180
892.103	21173
892.226	21249
892.349	20998
892.471	20952
892.594	21028
892.717	21112
892.839	21036
892.962	21154
893.085	21123
893.207	21131
893.33	20948
893.452	20853
893.575	21112
893.697	20998
893.819	21272
893.941	21119
894.064	21180
894.186	20990
894.308	21085
894.43	21123
894.552	21233
894.674	21093
894.796	20952
894.918	21108
895.04	20941
895.161	21119
895.283	20994
895.405	21055
895.526	21077
895.648	20963
895.769	21024
895.891	21032
896.012	21116
896.134	21173
896.255	20956
896.376	20921
896.498	21017
896.619	20986
896.74	21089
896.861	21028
896.982	21431
897.103	21389
897.224	21275
897.345	21374
897.466	21195
897.587	21135
897.708	21393
897.828	21233
897.949	21066
898.07	21039
898.19	21214
898.311	21222
898.431	21154
898.552	21272
898.672	21313
898.792	21378
898.913	21180
899.033	21252
899.153	21017
899.273	20918
899.393	20952
899.513	21070
899.633	21028
899.753	21009
899.873	20979
899.993	21013
900.113	20933
900.232	20975
900.352	20727
900.472	20872
900.591	20625
900.711	20716
900.83	20739
900.95	20891
901.069	20804
901.189	20705
901.308	20400
901.427	20309
901.546	20351
901.665	20332
901.784	20313
901.904	20145
902.023	19993
902.141	19788
902.26	19719
902.379	19898
902.498	19856
902.617	19681
902.735	19666
902.854	19769
902.973	19750
903.091	19430
903.21	19411
903.328	19445
903.446	19506
903.565	19289
903.683	19285
903.801	19225
903.919	19164
904.038	19190
904.156	19057
904.274	19190
904.392	18924
904.51	18973
904.627	18886
904.745	19031
904.863	19122
904.981	18897
905.098	18589
905.216	18757
905.334	18620
905.451	18703
905.569	18570
905.686	18593
905.803	18722
905.921	18418
906.038	18525
906.155	18475
906.272	18327
906.389	18388
906.506	18270
906.623	18163
906.74	18194
906.857	18163
906.974	18045
907.091	18251
907.208	18308
907.324	18197
907.441	18034
907.557	17859
907.674	18030
907.79	17916
907.907	17973
908.023	17897
908.139	17805
908.256	17904
908.372	17775
908.488	17840
908.604	17672
908.72	17627
908.836	17699
908.952	17608
909.068	17547
909.184	17710
909.3	17672
909.415	17630
909.531	17497
909.647	17402
909.762	17303
909.878	17280
909.993	17387
910.108	17330
910.224	17121
910.339	17280
910.454	17197
910.57	17147
910.685	17071
910.8	17349
910.915	17258
911.03	17109
911.145	16965
911.259	16847
911.374	16923
911.489	16889
911.604	16660
911.718	16637
911.833	16656
911.947	16497
912.062	16421
912.176	16740
912.291	16679
912.405	16535
912.519	16858
912.633	16797
912.748	16641
912.862	16573
912.976	16565
913.09	16500
913.204	16421
913.318	16481
913.431	16580
913.545	16546
913.659	16508
913.772	16398
913.886	16295
914	16230
914.113	16451
914.226	16405
914.34	16265
914.453	16200
914.566	16268
914.68	16177
914.793	16196
914.906	16010
915.019	15846
915.132	15865
915.245	15819
915.358	15850
915.47	15819
915.583	15930
915.696	15934
915.809	16010
915.921	15975
916.034	15838
916.146	15800
916.259	15648
916.371	15842
916.483	15827
916.595	15770
916.708	15667
916.82	15717
916.932	15633
917.044	15641
917.156	15720
917.268	15511
917.38	15572
917.491	15610
917.603	15507
917.715	15523
917.826	15568
917.938	15485
918.049	15291
918.161	15458
918.272	15507
918.384	15526
918.495	15450
918.606	15275
918.717	15226
918.828	15329
918.939	15317
919.05	15116
919.161	15188
919.272	15013
919.383	15176
919.494	15184
919.604	15473
919.715	15192
919.826	15089
919.936	15093
920.047	15287
920.157	15260
920.267	15336
920.378	15218
920.488	15165
920.598	15412
920.708	15469
920.818	15291
920.928	15386
921.038	15507
921.148	15462
921.258	15036
921.368	14971
921.477	14982
921.587	14883
921.697	14868
921.806	14933
921.916	14689
922.025	14636
922.134	14533
922.244	14507
922.353	14621
922.462	14446
922.571	14324
922.68	14115
922.789	14336
922.898	14142
923.007	14054
923.116	14195
923.224	14180
923.333	14111
923.442	14020
923.55	14100
923.659	14062
923.767	14054
923.876	13970
923.984	14050
924.092	13875
924.201	13951
924.309	13898
924.417	13925
924.525	13898
924.633	13811
924.741	14731
924.849	13647
924.956	13757
925.064	13666
925.172	13502
925.279	13571
925.387	13636
925.494	13537
925.602	13753
925.709	13582
925.816	13518
925.924	13537
926.031	13556
926.138	13464
926.245	13582
926.352	13377
926.459	13529
926.566	13529
926.673	13422
926.779	13358
926.886	13316
926.993	13137
927.099	13095
927.206	13057
927.312	13065
927.419	13122
927.525	13061
927.631	13133
927.737	12932
927.843	12932
927.95	12791
928.056	12924
928.162	12897
928.267	12954
928.373	13533
928.479	12973
928.585	12738
928.69	12810
928.796	12905
928.901	12810
929.007	12707
929.112	12700
929.218	12772
929.323	12684
929.428	12620
929.533	12741
929.638	12544
929.743	12559
929.848	12616
929.953	12551
930.058	12456
930.163	12277
930.267	12323
930.372	12456
930.477	12273
930.581	12403
930.685	12365
930.79	12163
930.894	12114
930.998	12163
931.103	12216
931.207	11950
931.311	11832
931.415	11828
931.519	11505
931.623	11425
