Data from test_V78500241_3070.txt Node
Date: Fri Mar 25 16:03:04 CST 2022
User: usil
Spectrometer: V785-0024
Trigger mode: 0
Integration Time (sec): 4.000000E-1
Scans to average: 1
Nonlinearity correction enabled: false
Boxcar width: 0
Storing dark spectrum: false
XAxis mode: Wavelengths
Number of Pixels in Spectrum: 1024
>>>>>Begin Spectral Data<<<<<
801.071	28805
801.214	28725
801.356	28554
801.499	28527
801.641	28417
801.783	28280
801.926	28424
802.068	28386
802.211	28382
802.353	28249
802.496	28082
802.638	27979
802.78	28112
802.923	27949
803.065	27960
803.208	27922
803.35	28147
803.492	28188
803.635	28226
803.777	28265
803.919	28280
804.061	28622
804.204	28356
804.346	28226
804.488	28333
804.63	28440
804.773	28352
804.915	28413
805.057	28519
805.199	28318
805.341	28394
805.483	28679
805.626	28401
805.768	28451
805.91	28523
806.052	28527
806.194	28413
806.336	28611
806.478	28637
806.62	28546
806.762	28793
806.904	28687
807.046	28957
807.188	28972
807.33	28919
807.472	29083
807.614	29014
807.756	28873
807.898	28866
808.04	28763
808.182	28721
808.324	28725
808.465	28721
808.607	29060
808.749	29239
808.891	29174
809.033	29383
809.174	29239
809.316	29200
809.458	29044
809.6	29170
809.741	29296
809.883	29410
810.025	29372
810.166	29509
810.308	29600
810.45	29406
810.591	29471
810.733	29280
810.875	29341
811.016	29174
811.158	29220
811.299	29349
811.441	29353
811.582	29410
811.724	29143
811.865	29174
812.007	29193
812.148	29227
812.29	29261
812.431	29372
812.573	29478
812.714	29611
812.855	29741
812.997	29783
813.138	29935
813.279	29878
813.421	29783
813.562	29737
813.703	29486
813.845	29429
813.986	29189
814.127	28949
814.268	28949
814.41	28957
814.551	28965
814.692	28919
814.833	28862
814.974	28904
815.115	28915
815.256	28752
815.397	28790
815.539	28748
815.68	28843
815.821	28778
815.962	28645
816.103	28637
816.244	28645
816.385	28577
816.526	28447
816.666	28322
816.807	28211
816.948	28185
817.089	28386
817.23	28226
817.371	28223
817.512	28242
817.653	28246
817.793	28063
817.934	28242
818.075	28265
818.216	28074
818.356	28207
818.497	28128
818.638	27949
818.778	28017
818.919	27937
819.06	28036
819.2	28135
819.341	28219
819.481	28204
819.622	28299
819.762	28554
819.903	28462
820.043	28580
820.184	28394
820.324	28443
820.465	28424
820.605	28371
820.746	28424
820.886	28276
821.026	28333
821.167	28226
821.307	28443
821.447	28268
821.588	28139
821.728	28055
821.868	27968
822.008	27728
822.149	27755
822.289	27622
822.429	27488
822.569	27321
822.709	27230
822.849	27260
822.99	27218
823.13	27199
823.27	27214
823.41	26979
823.55	26918
823.69	27036
823.83	27039
823.97	27047
824.11	26902
824.25	26842
824.389	26918
824.529	26948
824.669	26921
824.809	26887
824.949	26956
825.089	26990
825.228	27074
825.368	26678
825.508	26826
825.648	26819
825.787	26895
825.927	26838
826.067	26754
826.206	26644
826.346	26921
826.485	26853
826.625	26716
826.765	26800
826.904	26762
827.044	26549
827.183	26549
827.323	26438
827.462	26522
827.601	26476
827.741	26469
827.88	26461
828.02	26423
828.159	26328
828.298	26499
828.437	26533
828.577	26362
828.716	26602
828.855	26400
828.994	26233
829.134	26138
829.273	26199
829.412	26043
829.551	26183
829.69	26103
829.829	26278
829.968	26351
830.107	26317
830.246	26103
830.385	26145
830.524	26111
830.663	25906
830.802	25871
830.941	25757
831.08	25761
831.219	25757
831.357	25738
831.496	26024
831.635	25765
831.774	25727
831.913	25495
832.051	25506
832.19	25582
832.329	25571
832.467	25529
832.606	25358
832.744	25365
832.883	25422
833.022	25339
833.16	25384
833.299	25438
833.437	25384
833.576	25533
833.714	25514
833.852	25586
833.991	25662
834.129	25700
834.267	25540
834.406	25544
834.544	25571
834.682	25563
834.821	25487
834.959	25689
835.097	25571
835.235	25502
835.373	25537
835.511	25445
835.65	25369
835.788	25449
835.926	25171
836.064	25236
836.202	25194
836.34	25396
836.478	25487
836.615	25225
836.753	25179
836.891	25400
837.029	25308
837.167	25293
837.305	25289
837.443	25251
837.58	25122
837.718	25103
837.856	25259
837.993	25145
838.131	25072
838.269	25065
838.406	24985
838.544	24951
838.681	24909
838.819	24787
838.956	24623
839.094	24692
839.231	24665
839.369	24779
839.506	25114
839.643	24791
839.781	24642
839.918	24601
840.055	24536
840.193	24639
840.33	24582
840.467	24471
840.604	24745
840.742	24787
840.879	24277
841.016	24410
841.153	24460
841.29	24513
841.427	24536
841.564	24528
841.701	24532
841.838	24418
841.975	24448
842.112	24380
842.249	24270
842.385	24281
842.522	24498
842.659	24353
842.796	24277
842.933	24289
843.069	24308
843.206	24281
843.343	24441
843.479	24266
843.616	24361
843.752	24091
843.889	24125
844.025	24197
844.162	24076
844.298	24060
844.435	24064
844.571	23965
844.708	23927
844.844	24232
844.98	24190
845.117	24194
845.253	23923
845.389	23893
845.525	23931
845.661	23885
845.798	23767
845.934	23980
846.07	23680
846.206	23783
846.342	23885
846.478	23828
846.614	23501
846.75	23520
846.886	23478
847.022	23524
847.158	23531
847.294	23608
847.429	23474
847.565	23478
847.701	23790
847.837	23292
847.972	23231
848.108	23307
848.244	23231
848.379	23174
848.515	23090
848.65	23083
848.786	23094
848.921	23094
849.057	23109
849.192	23185
849.328	23166
849.463	23102
849.598	23041
849.734	23067
849.869	22911
850.004	22740
850.14	22919
850.275	22927
850.41	22820
850.545	22793
850.68	22717
850.815	22953
850.95	22843
851.085	22980
851.22	22946
851.355	22869
851.49	22980
851.625	22824
851.76	22786
851.895	22637
852.03	22744
852.165	22885
852.299	22892
852.434	22942
852.569	22976
852.703	23025
852.838	22942
852.973	22961
853.107	22976
853.242	22812
853.376	22634
853.511	22675
853.645	22710
853.78	22763
853.914	22694
854.048	22664
854.183	22656
854.317	22790
854.451	22774
854.585	22675
854.72	22691
854.854	22778
854.988	22641
855.122	22664
855.256	22580
855.39	22736
855.524	22725
855.658	22630
855.792	22801
855.926	22729
856.06	22790
856.194	22736
856.327	22698
856.461	22664
856.595	22607
856.729	22645
856.862	22839
856.996	22660
857.13	22831
857.263	22831
857.397	22793
857.53	22599
857.664	22588
857.797	22805
857.931	22873
858.064	22672
858.197	22771
858.331	22759
858.464	22569
858.597	22500
858.731	22656
858.864	22752
858.997	22668
859.13	22649
859.263	22634
859.396	22736
859.529	22622
859.662	22634
859.795	22710
859.928	22759
860.061	22729
860.194	22858
860.327	22816
860.46	22687
860.592	22767
860.725	22801
860.858	22790
860.99	22645
861.123	22637
861.256	22645
861.388	22584
861.521	23512
861.653	22603
861.786	22478
861.918	22436
862.05	22615
862.183	22546
862.315	22599
862.447	22740
862.58	22470
862.712	22371
862.844	22291
862.976	22504
863.108	22474
863.24	22869
863.372	22409
863.504	22554
863.636	22329
863.768	22497
863.9	22322
864.032	22303
864.164	22242
864.296	22478
864.428	22497
864.559	22535
864.691	22424
864.823	22306
864.954	22363
865.086	22394
865.217	22291
865.349	22211
865.48	22306
865.612	22318
865.743	22386
865.875	22280
866.006	22261
866.137	22337
866.269	22207
866.4	22265
866.531	22139
866.662	22128
866.793	22181
866.924	22223
867.055	22333
867.186	22287
867.317	22219
867.448	22124
867.579	22196
867.71	22086
867.841	22105
867.972	22238
868.103	22116
868.233	22284
868.364	22177
868.495	22238
868.625	22424
868.756	22584
868.886	22284
869.017	22512
869.147	22409
869.278	22637
869.408	22523
869.539	22344
869.669	22436
869.799	22478
869.929	22538
870.06	22508
870.19	22645
870.32	22736
870.45	22793
870.58	22691
870.71	23041
870.84	22915
870.97	22839
871.1	22930
871.23	22995
871.36	22991
871.489	22889
871.619	22980
871.749	22904
871.879	22976
872.008	23132
872.138	22946
872.267	23200
872.397	22930
872.526	22873
872.656	22919
872.785	22854
872.915	23128
873.044	23117
873.173	23044
873.303	23022
873.432	23151
873.561	23151
873.69	22991
873.819	23170
873.948	23159
874.077	23132
874.206	23010
874.335	22946
874.464	23109
874.593	23208
874.722	23250
874.851	23181
874.979	23315
875.108	23334
875.237	23231
875.365	23246
875.494	23200
875.623	23368
875.751	23185
875.88	23330
876.008	23398
876.136	23417
876.265	23668
876.393	23668
876.521	23710
876.65	23813
876.778	23585
876.906	23547
877.034	23600
877.162	23703
877.29	23611
877.418	23619
877.546	23592
877.674	23524
877.802	23630
877.93	23657
878.058	23535
878.185	23490
878.313	23520
878.441	23501
878.568	23440
878.696	23649
878.824	23604
878.951	23634
879.079	23718
879.206	23923
879.333	23821
879.461	23551
879.588	23707
879.715	23756
879.842	23878
879.97	23786
880.097	23345
880.224	23501
880.351	23444
880.478	23383
880.605	23303
880.732	23452
880.859	23596
880.986	23444
881.112	23372
881.239	23292
881.366	23041
881.493	23086
881.619	23052
881.746	23022
881.872	23064
881.999	22995
882.125	22889
882.252	22980
882.378	22949
882.505	23041
882.631	22820
882.757	22740
882.883	22752
883.01	22641
883.136	22607
883.262	22599
883.388	22584
883.514	22645
883.64	22698
883.766	22542
883.892	22333
884.018	22375
884.143	22611
884.269	22717
884.395	22417
884.52	22272
884.646	22398
884.772	22291
884.897	22204
885.023	22352
885.148	22459
885.274	22424
885.399	22447
885.524	22341
885.65	22230
885.775	22234
885.9	22303
886.025	22474
886.15	22398
886.275	22246
886.4	22124
886.525	22341
886.65	22379
886.775	22177
886.9	22257
887.025	22447
887.149	22284
887.274	22120
887.399	22051
887.523	22109
887.648	21979
887.773	21968
887.897	22150
888.021	22067
888.146	21987
888.27	22185
888.395	22139
888.519	21991
888.643	22059
888.767	22093
888.891	22101
889.015	21934
889.139	21854
889.263	21800
889.387	21930
889.511	22040
889.635	21930
889.759	21850
889.883	21778
890.006	21922
890.13	21964
890.254	21766
890.377	21736
890.501	21614
890.624	21523
890.748	21690
890.871	21523
890.995	21454
891.118	21230
891.241	21348
891.364	21401
891.488	21500
891.611	21332
891.734	21237
891.857	21450
891.98	21374
892.103	21332
892.226	21454
892.349	21207
892.471	21218
892.594	21348
892.717	21287
892.839	21306
892.962	21241
893.085	21317
893.207	21344
893.33	21237
893.452	21222
893.575	21218
893.697	21203
893.819	21386
893.941	21469
894.064	21439
894.186	21237
894.308	21192
894.43	21329
894.552	21237
894.674	21302
894.796	21104
894.918	21199
895.04	21279
895.161	21367
895.283	21363
895.405	21184
895.526	21207
895.648	21203
895.769	21214
895.891	21260
896.012	21291
896.134	21302
896.255	21317
896.376	21207
896.498	21165
896.619	21203
896.74	21272
896.861	21241
896.982	21557
897.103	21762
897.224	21603
897.345	21378
897.466	21378
897.587	21378
897.708	21553
897.828	21530
897.949	21424
898.07	21214
898.19	21336
898.311	21530
898.431	21329
898.552	21450
898.672	21519
898.792	21435
898.913	21447
899.033	21302
899.153	21226
899.273	21116
899.393	21321
899.513	21256
899.633	21173
899.753	21142
899.873	21112
899.993	21249
900.113	21070
900.232	21096
900.352	21062
900.472	20971
900.591	20895
900.711	20925
900.83	20948
900.95	21058
901.069	21047
901.189	20845
901.308	20670
901.427	20495
901.546	20541
901.665	20438
901.784	20602
901.904	20469
902.023	20355
902.141	20084
902.26	20187
902.379	20176
902.498	20088
902.617	20027
902.735	19970
902.854	19978
902.973	19860
903.091	19742
903.21	19670
903.328	19689
903.446	19639
903.565	19483
903.683	19460
903.801	19259
903.919	19304
904.038	19316
904.156	19209
904.274	19327
904.392	19137
904.51	19137
904.627	19118
904.745	19263
904.863	19206
904.981	18989
905.098	18882
905.216	18867
905.334	19004
905.451	18970
905.569	18810
905.686	18928
905.803	18920
905.921	18654
906.038	18779
906.155	18719
906.272	18525
906.389	18570
906.506	18506
906.623	18426
906.74	18319
906.857	18220
906.974	18296
907.091	18407
907.208	18536
907.324	18445
907.441	18300
907.557	18091
907.674	18076
907.79	18163
907.907	18114
908.023	18121
908.139	18136
908.256	17965
908.372	17965
908.488	18114
908.604	17729
908.72	17684
908.836	17821
908.952	17809
909.068	17859
909.184	17874
909.3	17764
909.415	17958
909.531	17855
909.647	17516
909.762	17486
909.878	17619
909.993	17436
910.108	17562
910.224	17440
910.339	17448
910.454	17406
910.57	17269
910.685	17223
910.8	17585
910.915	17433
911.03	17345
911.145	17109
911.259	17041
911.374	16965
911.489	17079
911.604	17029
911.718	16736
911.833	16862
911.947	16729
912.062	16733
912.176	16725
912.291	16774
912.405	16820
912.519	17079
912.633	16911
912.748	16862
912.862	16771
912.976	16790
913.09	16596
913.204	16653
913.318	16687
913.431	16839
913.545	16656
913.659	16774
913.772	16634
913.886	16481
914	16398
914.113	16493
914.226	16508
914.34	16485
914.453	16280
914.566	16440
914.68	16363
914.793	16166
914.906	16032
915.019	15991
915.132	15907
915.245	15945
915.358	15998
915.47	15975
915.583	15979
915.696	16040
915.809	16093
915.921	16124
916.034	16036
916.146	15869
916.259	15876
916.371	15968
916.483	15899
916.595	15846
916.708	15770
916.82	15713
916.932	15781
917.044	15865
917.156	15656
917.268	15667
917.38	15595
917.491	15545
917.603	15614
917.715	15698
917.826	15644
917.938	15553
918.049	15389
918.161	15492
918.272	15686
918.384	15667
918.495	15477
918.606	15382
918.717	15420
918.828	15424
918.939	15367
919.05	15230
919.161	15329
919.272	15119
919.383	15233
919.494	15420
919.604	15561
919.715	15485
919.826	15298
919.936	15252
920.047	15435
920.157	15264
920.267	15496
920.378	15355
920.488	15237
920.598	15443
920.708	15545
920.818	15412
920.928	15485
921.038	15564
921.148	15557
921.258	15199
921.368	15192
921.477	15074
921.587	14986
921.697	14849
921.806	15024
921.916	14853
922.025	14796
922.134	14693
922.244	14598
922.353	14701
922.462	14552
922.571	14507
922.68	14469
922.789	14313
922.898	14271
923.007	14309
923.116	14355
923.224	14317
923.333	14183
923.442	14111
923.55	14084
923.659	14058
923.767	14126
923.876	14039
923.984	14123
924.092	14088
924.201	14119
924.309	13997
924.417	13974
924.525	13978
924.633	13928
924.741	14720
924.849	13655
924.956	13856
925.064	13845
925.172	13601
925.279	13693
925.387	13738
925.494	13655
925.602	13822
925.709	13666
925.816	13559
925.924	13594
926.031	13799
926.138	13601
926.245	13609
926.352	13483
926.459	13636
926.566	13594
926.673	13476
926.779	13419
926.886	13392
926.993	13217
927.099	13236
927.206	13152
927.312	13069
927.419	13221
927.525	13126
927.631	13274
927.737	13095
927.843	13107
927.95	12916
928.056	12989
928.162	13023
928.267	13031
928.373	13521
928.479	13004
928.585	12821
928.69	12958
928.796	12947
928.901	12897
929.007	12749
929.112	12856
929.218	12875
929.323	12783
929.428	12726
929.533	12817
929.638	12715
929.743	12688
929.848	12639
929.953	12642
930.058	12509
930.163	12456
930.267	12350
930.372	12585
930.477	12399
930.581	12578
930.685	12399
930.79	12311
930.894	12243
930.998	12209
931.103	12296
931.207	12003
931.311	11950
931.415	11904
931.519	11627
931.623	11558
