Data from test_V78500241_561.txt Node
Date: Fri Mar 25 15:45:41 CST 2022
User: usil
Spectrometer: V785-0024
Trigger mode: 0
Integration Time (sec): 4.000000E-1
Scans to average: 1
Nonlinearity correction enabled: false
Boxcar width: 0
Storing dark spectrum: false
XAxis mode: Wavelengths
Number of Pixels in Spectrum: 1024
>>>>>Begin Spectral Data<<<<<
801.071	27401
801.214	27427
801.356	27169
801.499	26990
801.641	26929
801.783	27081
801.926	26979
802.068	26956
802.211	26861
802.353	26659
802.496	26712
802.638	26731
802.78	26606
802.923	26492
803.065	26590
803.208	26564
803.35	26625
803.492	26838
803.635	26750
803.777	26705
803.919	26788
804.061	27096
804.204	26910
804.346	26644
804.488	26762
804.63	26731
804.773	26541
804.915	26777
805.057	26876
805.199	26640
805.341	26712
805.483	26876
805.626	26743
805.768	26769
805.91	26781
806.052	26906
806.194	26842
806.336	27142
806.478	26998
806.62	26933
806.762	26925
806.904	27188
807.046	27359
807.188	27351
807.33	27291
807.472	27336
807.614	27332
807.756	27211
807.898	27184
808.04	27135
808.182	27135
808.324	27089
808.465	27085
808.607	27298
808.749	27439
808.891	27542
809.033	27675
809.174	27663
809.316	27576
809.458	27534
809.6	27561
809.741	27663
809.883	27652
810.025	27857
810.166	27625
810.308	27755
810.45	27797
810.591	27656
810.733	27523
810.875	27469
811.016	27389
811.158	27317
811.299	27656
811.441	27660
811.582	27618
811.724	27557
811.865	27405
812.007	27488
812.148	27523
812.29	27511
812.431	27622
812.573	27755
812.714	27926
812.855	28010
812.997	28105
813.138	28337
813.279	28105
813.421	27972
813.562	27998
813.703	27755
813.845	27713
813.986	27515
814.127	27264
814.268	27214
814.41	27081
814.551	27150
814.692	27211
814.833	27169
814.974	27036
815.115	27138
815.256	26967
815.397	26940
815.539	27131
815.68	26971
815.821	26880
815.962	26929
816.103	26933
816.244	26712
816.385	26674
816.526	26705
816.666	26552
816.807	26484
816.948	26469
817.089	26473
817.23	26579
817.371	26339
817.512	26461
817.653	26507
817.793	26423
817.934	26450
818.075	26442
818.216	26385
818.356	26385
818.497	26381
818.638	26206
818.778	26199
818.919	26138
819.06	26187
819.2	26278
819.341	26366
819.481	26309
819.622	26526
819.762	26659
819.903	26655
820.043	26629
820.184	26678
820.324	26556
820.465	26648
820.605	26495
820.746	26602
820.886	26453
821.026	26499
821.167	26537
821.307	26552
821.447	26362
821.588	26275
821.728	26271
821.868	26031
822.008	25879
822.149	25883
822.289	25791
822.429	25643
822.569	25601
822.709	25518
822.849	25430
822.99	25453
823.13	25392
823.27	25179
823.41	25297
823.55	25084
823.69	25289
823.83	25179
823.97	25133
824.11	24989
824.25	24966
824.389	24939
824.529	25072
824.669	25091
824.809	25152
824.949	25179
825.089	25179
825.228	25164
825.368	24954
825.508	24844
825.648	24871
825.787	24878
825.927	24977
826.067	24658
826.206	24875
826.346	24840
826.485	24992
826.625	25008
826.765	24825
826.904	24913
827.044	24703
827.183	24528
827.323	24517
827.462	24703
827.601	24620
827.741	24460
827.88	24715
828.02	24334
828.159	24528
828.298	24559
828.437	24616
828.577	24532
828.716	24673
828.855	24597
828.994	24258
829.134	24251
829.273	24399
829.412	24327
829.551	24258
829.69	24319
829.829	24270
829.968	24350
830.107	24296
830.246	24330
830.385	24140
830.524	24140
830.663	24072
830.802	24083
830.941	23901
831.08	23798
831.219	23965
831.357	23969
831.496	24152
831.635	23821
831.774	23836
831.913	23843
832.051	23562
832.19	23642
832.329	23726
832.467	23596
832.606	23551
832.744	23490
832.883	23615
833.022	23509
833.16	23581
833.299	23710
833.437	23649
833.576	23653
833.714	23585
833.852	23684
833.991	23630
834.129	23764
834.267	23790
834.406	23646
834.544	23630
834.682	23611
834.821	23661
834.959	23775
835.097	23589
835.235	23687
835.373	23604
835.511	23589
835.65	23410
835.788	23478
835.926	23337
836.064	23292
836.202	23337
836.34	23478
836.478	23512
836.615	23410
836.753	23528
836.891	23566
837.029	23376
837.167	23402
837.305	23364
837.443	23383
837.58	23239
837.718	23356
837.856	23356
837.993	23143
838.131	23318
838.269	23083
838.406	23197
838.544	23105
838.681	22927
838.819	22858
838.956	22782
839.094	22774
839.231	22881
839.369	22892
839.506	23117
839.643	22984
839.781	22812
839.918	22713
840.055	22782
840.193	22675
840.33	22740
840.467	22622
840.604	22706
840.742	22995
840.879	22637
841.016	22710
841.153	22565
841.29	22805
841.427	22573
841.564	22626
841.701	22767
841.838	22679
841.975	22508
842.112	22603
842.249	22402
842.385	22394
842.522	22721
842.659	22508
842.796	22447
842.933	22382
843.069	22424
843.206	22447
843.343	22493
843.479	22394
843.616	22409
843.752	22185
843.889	22143
844.025	22481
844.162	22185
844.298	22405
844.435	22112
844.571	22169
844.708	22291
844.844	22272
844.98	22474
845.117	22413
845.253	22158
845.389	22109
845.525	22181
845.661	22048
845.798	21960
845.934	22013
846.07	21922
846.206	21937
846.342	22055
846.478	21964
846.614	21736
846.75	21641
846.886	21736
847.022	21774
847.158	21774
847.294	21610
847.429	21701
847.565	21660
847.701	21911
847.837	21511
847.972	21454
848.108	21545
848.244	21603
848.379	21211
848.515	21359
848.65	21249
848.786	21401
848.921	21245
849.057	21469
849.192	21344
849.328	21351
849.463	21211
849.598	21279
849.734	21169
849.869	21055
850.004	21089
850.14	20933
850.275	21062
850.41	20982
850.545	20948
850.68	21093
850.815	21184
850.95	21017
851.085	21207
851.22	21184
851.355	21055
851.49	21036
851.625	21070
851.76	21013
851.895	20941
852.03	21024
852.165	21131
852.299	21100
852.434	21085
852.569	21066
852.703	21055
852.838	21070
852.973	21055
853.107	21085
853.242	21028
853.376	20868
853.511	20746
853.645	20929
853.78	20914
853.914	20929
854.048	20891
854.183	20864
854.317	20887
854.451	21009
854.585	20826
854.72	20876
854.854	20952
854.988	20727
855.122	20910
855.256	20834
855.39	20902
855.524	20967
855.658	20925
855.792	20906
855.926	20830
856.06	20929
856.194	21005
856.327	20868
856.461	20876
856.595	20819
856.729	20830
856.862	20838
856.996	20902
857.13	20891
857.263	20986
857.397	20899
857.53	20845
857.664	20910
857.797	20960
857.931	20906
858.064	20880
858.197	20834
858.331	20883
858.464	20781
858.597	20750
858.731	20952
858.864	20781
858.997	20735
859.13	20823
859.263	20838
859.396	20971
859.529	20895
859.662	20899
859.795	20804
859.928	20838
860.061	21055
860.194	21108
860.327	20891
860.46	20750
860.592	20933
860.725	21039
860.858	20914
860.99	20925
861.123	20697
861.256	20743
861.388	20944
861.521	21386
861.653	20693
861.786	20583
861.918	20739
862.05	20659
862.183	20727
862.315	20739
862.447	20876
862.58	20765
862.712	20640
862.844	20469
862.976	20655
863.108	20568
863.24	21131
863.372	20545
863.504	20735
863.636	20636
863.768	20705
863.9	20484
864.032	20419
864.164	20480
864.296	20457
864.428	20549
864.559	20564
864.691	20670
864.823	20537
864.954	20469
865.086	20530
865.217	20617
865.349	20423
865.48	20465
865.612	20431
865.743	20625
865.875	20587
866.006	20545
866.137	20454
866.269	20549
866.4	20518
866.531	20522
866.662	20328
866.793	20507
866.924	20377
867.055	20511
867.186	20385
867.317	20385
867.448	20366
867.579	20294
867.71	20351
867.841	20324
867.972	20442
868.103	20351
868.233	20415
868.364	20423
868.495	20431
868.625	20583
868.756	20807
868.886	20552
869.017	20606
869.147	20777
869.278	20781
869.408	20552
869.539	20651
869.669	20811
869.799	20705
869.929	20746
870.06	20804
870.19	20967
870.32	20880
870.45	20998
870.58	21116
870.71	21020
870.84	21085
870.97	20990
871.1	20952
871.23	21291
871.36	21180
871.489	21180
871.619	21214
871.749	21211
871.879	21374
872.008	21310
872.138	21233
872.267	21188
872.397	21165
872.526	21085
872.656	21093
872.785	21123
872.915	21302
873.044	21359
873.173	21336
873.303	21233
873.432	21336
873.561	21359
873.69	21332
873.819	21355
873.948	21340
874.077	21203
874.206	21298
874.335	21256
874.464	21367
874.593	21549
874.722	21435
874.851	21545
874.979	21511
875.108	21576
875.237	21530
875.365	21405
875.494	21393
875.623	21629
875.751	21549
875.88	21507
876.008	21637
876.136	21622
876.265	22097
876.393	22006
876.521	21899
876.65	21880
876.778	21907
876.906	21888
877.034	21854
877.162	21808
877.29	21766
877.418	21800
877.546	21983
877.674	21797
877.802	21747
877.93	21800
878.058	21774
878.185	21705
878.313	21747
878.441	21709
878.568	21755
878.696	21785
878.824	21869
878.951	22013
879.079	22124
879.206	22268
879.333	21941
879.461	21911
879.588	21994
879.715	21945
879.842	22139
879.97	21903
880.097	21641
880.224	21694
880.351	21648
880.478	21785
880.605	21568
880.732	21755
880.859	21991
880.986	21709
881.112	21606
881.239	21504
881.366	21447
881.493	21428
881.619	21367
881.746	21378
881.872	21332
881.999	21233
882.125	21135
882.252	21294
882.378	21351
882.505	21287
882.631	21165
882.757	20967
882.883	21028
883.01	20914
883.136	21028
883.262	20925
883.388	20815
883.514	20944
883.64	20998
883.766	20883
883.892	20708
884.018	20758
884.143	20982
884.269	20952
884.395	20731
884.52	20609
884.646	20613
884.772	20541
884.897	20541
885.023	20617
885.148	20708
885.274	20724
885.399	20651
885.524	20579
885.65	20613
885.775	20587
885.9	20480
886.025	20651
886.15	20667
886.275	20587
886.4	20484
886.525	20556
886.65	20533
886.775	20571
886.9	20701
887.025	20849
887.149	20454
887.274	20480
887.399	20374
887.523	20541
887.648	20351
887.773	20267
887.897	20488
888.021	20434
888.146	20259
888.27	20465
888.395	20343
888.519	20461
888.643	20503
888.767	20511
888.891	20282
889.015	20172
889.139	20244
889.263	20164
889.387	20233
889.511	20450
889.635	20313
889.759	20176
889.883	20244
890.006	20233
890.13	20252
890.254	20084
890.377	20115
890.501	20035
890.624	19898
890.748	20054
890.871	19982
890.995	19833
891.118	19769
891.241	19860
891.364	19837
891.488	19909
891.611	19852
891.734	19738
891.857	19890
891.98	19761
892.103	19772
892.226	19818
892.349	19818
892.471	19548
892.594	19761
892.717	19742
892.839	19750
892.962	19609
893.085	19837
893.207	19700
893.33	19552
893.452	19491
893.575	19674
893.697	19750
893.819	19712
893.941	19909
894.064	19769
894.186	19559
894.308	19719
894.43	19677
894.552	19788
894.674	19761
894.796	19582
894.918	19582
895.04	19575
895.161	19742
895.283	19643
895.405	19643
895.526	19757
895.648	19613
895.769	19708
895.891	19734
896.012	19883
896.134	19784
896.255	19681
896.376	19616
896.498	19750
896.619	19647
896.74	19677
896.861	19772
896.982	20077
897.103	20142
897.224	19936
897.345	19875
897.466	19856
897.587	19997
897.708	20020
897.828	19963
897.949	19932
898.07	19814
898.19	19963
898.311	19989
898.431	19887
898.552	19951
898.672	20054
898.792	20043
898.913	19890
899.033	19765
899.153	19731
899.273	19559
899.393	19780
899.513	19723
899.633	19639
899.753	19742
899.873	19620
899.993	19765
900.113	19635
900.232	19731
900.352	19616
900.472	19434
900.591	19453
900.711	19586
900.83	19441
900.95	19563
901.069	19575
901.189	19407
901.308	19148
901.427	19114
901.546	19057
901.665	19118
901.784	19148
901.904	18954
902.023	18859
902.141	18760
902.26	18661
902.379	18623
902.498	18597
902.617	18479
902.735	18608
902.854	18559
902.973	18460
903.091	18266
903.21	18319
903.328	18216
903.446	18239
903.565	18083
903.683	18072
903.801	17931
903.919	18057
904.038	18057
904.156	17775
904.274	17939
904.392	17863
904.51	17843
904.627	17878
904.745	17866
904.863	17840
904.981	17596
905.098	17547
905.216	17535
905.334	17551
905.451	17474
905.569	17520
905.686	17482
905.803	17551
905.921	17239
906.038	17322
906.155	17322
906.272	17246
906.389	17208
906.506	17022
906.623	17075
906.74	17090
906.857	17003
906.974	16949
907.091	17033
907.208	17094
907.324	17033
907.441	17033
907.557	16790
907.674	16828
907.79	16615
907.907	16691
908.023	16816
908.139	16763
908.256	16615
908.372	16721
908.488	16698
908.604	16432
908.72	16428
908.836	16470
908.952	16363
909.068	16493
909.184	16512
909.3	16432
909.415	16584
909.531	16474
909.647	16257
909.762	16230
909.878	16120
909.993	16131
910.108	16150
910.224	16112
910.339	16135
910.454	15991
910.57	15972
910.685	15831
910.8	16268
910.915	16150
911.03	16025
911.145	15816
911.259	15854
911.374	15732
911.489	15766
911.604	15755
911.718	15622
911.833	15568
911.947	15477
912.062	15389
912.176	15618
912.291	15481
912.405	15553
912.519	15774
912.633	15675
912.748	15507
912.862	15576
912.976	15313
913.09	15283
913.204	15317
913.318	15351
913.431	15439
913.545	15481
913.659	15515
913.772	15332
913.886	15230
914	15192
914.113	15180
914.226	15321
914.34	15184
914.453	15062
914.566	15306
914.68	15051
914.793	14994
914.906	14826
915.019	14796
915.132	14716
915.245	14727
915.358	14868
915.47	14781
915.583	14891
915.696	14765
915.809	14853
915.921	14857
916.034	14746
916.146	14708
916.259	14648
916.371	14765
916.483	14731
916.595	14526
916.708	14610
916.82	14594
916.932	14522
917.044	14530
917.156	14571
917.268	14423
917.38	14419
917.491	14434
917.603	14450
917.715	14590
917.826	14518
917.938	14446
918.049	14248
918.161	14499
918.272	14381
918.384	14438
918.495	14336
918.606	14225
918.717	14134
918.828	14263
918.939	14221
919.05	14077
919.161	14191
919.272	14024
919.383	14031
919.494	14263
919.604	14465
919.715	14191
919.826	14088
919.936	14195
920.047	14259
920.157	14123
920.267	14309
920.378	14191
920.488	14123
920.598	14415
920.708	14488
920.818	14343
920.928	14301
921.038	14495
921.148	14362
921.258	14058
921.368	14008
921.477	14016
921.587	13883
921.697	13837
921.806	13940
921.916	13674
922.025	13700
922.134	13563
922.244	13628
922.353	13681
922.462	13464
922.571	13457
922.68	13293
922.789	13156
922.898	13206
923.007	13171
923.116	13187
923.224	13259
923.333	13240
923.442	13038
923.55	13027
923.659	13042
923.767	13114
923.876	13019
923.984	13061
924.092	12951
924.201	13034
924.309	12985
924.417	12966
924.525	12897
924.633	12962
924.741	13883
924.849	12654
924.956	12837
925.064	12692
925.172	12551
925.279	12589
925.387	12779
925.494	12654
925.602	12757
925.709	12749
925.816	12551
925.924	12589
926.031	12692
926.138	12597
926.245	12757
926.352	12498
926.459	12627
926.566	12692
926.673	12475
926.779	12479
926.886	12376
926.993	12376
927.099	12266
927.206	12209
927.312	12224
927.419	12289
927.525	12171
927.631	12201
927.737	12060
927.843	12030
927.95	11980
928.056	12072
928.162	12083
928.267	12125
928.373	12711
928.479	12087
928.585	11980
928.69	11961
928.796	12034
928.901	11992
929.007	11767
929.112	11927
929.218	11882
929.323	11779
929.428	11722
929.533	11942
929.638	11779
929.743	11691
929.848	11889
929.953	11714
930.058	11646
930.163	11543
930.267	11577
930.372	11661
930.477	11486
930.581	11756
930.685	11570
930.79	11402
930.894	11376
930.998	11421
931.103	11501
931.207	11155
931.311	11029
931.415	10961
931.519	10782
931.623	10873
