Data from test_V78500241_3578.txt Node
Date: Fri Mar 25 16:06:35 CST 2022
User: usil
Spectrometer: V785-0024
Trigger mode: 0
Integration Time (sec): 4.000000E-1
Scans to average: 1
Nonlinearity correction enabled: false
Boxcar width: 0
Storing dark spectrum: false
XAxis mode: Wavelengths
Number of Pixels in Spectrum: 1024
>>>>>Begin Spectral Data<<<<<
801.071	28687
801.214	28584
801.356	28299
801.499	28459
801.641	28242
801.783	28360
801.926	28310
802.068	28360
802.211	28215
802.353	28166
802.496	28082
802.638	27972
802.78	28002
802.923	27937
803.065	27907
803.208	28006
803.35	27972
803.492	28139
803.635	28219
803.777	28040
803.919	28166
804.061	28508
804.204	28344
804.346	28219
804.488	28112
804.63	28185
804.773	28158
804.915	28421
805.057	28440
805.199	28223
805.341	28314
805.483	28291
805.626	28333
805.768	28215
805.91	28447
806.052	28447
806.194	28287
806.336	28497
806.478	28462
806.62	28375
806.762	28538
806.904	28706
807.046	28900
807.188	28888
807.33	28786
807.472	28866
807.614	28778
807.756	28980
807.898	28706
808.04	28626
808.182	28660
808.324	28664
808.465	28809
808.607	28980
808.749	29121
808.891	29178
809.033	29277
809.174	29136
809.316	29117
809.458	29033
809.6	29128
809.741	29223
809.883	29261
810.025	29417
810.166	29265
810.308	29311
810.45	29296
810.591	29284
810.733	29284
810.875	29178
811.016	29052
811.158	29003
811.299	29223
811.441	29345
811.582	29200
811.724	29200
811.865	29200
812.007	29197
812.148	29159
812.29	29067
812.431	29288
812.573	29436
812.714	29611
812.855	29672
812.997	29779
813.138	29935
813.279	29783
813.421	29668
813.562	29718
813.703	29452
813.845	29307
813.986	28991
814.127	28900
814.268	28759
814.41	28915
814.551	28744
814.692	28828
814.833	28752
814.974	28752
815.115	28687
815.256	28771
815.397	28778
815.539	28637
815.68	28664
815.821	28531
815.962	28557
816.103	28512
816.244	28470
816.385	28508
816.526	28257
816.666	28329
816.807	28177
816.948	28234
817.089	28181
817.23	28128
817.371	28112
817.512	28082
817.653	28093
817.793	28154
817.934	28051
818.075	28150
818.216	28185
818.356	28040
818.497	27983
818.638	27873
818.778	28021
818.919	27934
819.06	27949
819.2	28017
819.341	28086
819.481	28124
819.622	28246
819.762	28500
819.903	28314
820.043	28375
820.184	28337
820.324	28394
820.465	28356
820.605	28352
820.746	28204
820.886	27991
821.026	28344
821.167	28166
821.307	28295
821.447	28173
821.588	28204
821.728	27869
821.868	27629
822.008	27633
822.149	27603
822.289	27686
822.429	27431
822.569	27279
822.709	27378
822.849	27203
822.99	27275
823.13	27062
823.27	27036
823.41	26910
823.55	26834
823.69	26914
823.83	27043
823.97	26765
824.11	26678
824.25	26731
824.389	26883
824.529	26800
824.669	26686
824.809	26982
824.949	26902
825.089	26872
825.228	26826
825.368	26667
825.508	26568
825.648	26720
825.787	26819
825.927	26708
826.067	26674
826.206	26853
826.346	26792
826.485	26613
826.625	26678
826.765	26716
826.904	26758
827.044	26469
827.183	26377
827.323	26514
827.462	26393
827.601	26347
827.741	26324
827.88	26343
828.02	26377
828.159	26290
828.298	26298
828.437	26465
828.577	26100
828.716	26473
828.855	26237
828.994	26077
829.134	26221
829.273	26092
829.412	25936
829.551	26054
829.69	26027
829.829	26103
829.968	26058
830.107	26233
830.246	26043
830.385	26020
830.524	25974
830.663	25906
830.802	25826
830.941	25883
831.08	25731
831.219	25776
831.357	25742
831.496	25757
831.635	25704
831.774	25609
831.913	25552
832.051	25571
832.19	25346
832.329	25518
832.467	25373
832.606	25156
832.744	25297
832.883	25274
833.022	25274
833.16	25304
833.299	25335
833.437	25457
833.576	25403
833.714	25365
833.852	25445
833.991	25396
834.129	25502
834.267	25556
834.406	25392
834.544	25312
834.682	25304
834.821	25285
834.959	25506
835.097	25282
835.235	25354
835.373	25320
835.511	25301
835.65	25091
835.788	25175
835.926	25156
836.064	24947
836.202	25004
836.34	25141
836.478	25320
836.615	25145
836.753	25297
836.891	25282
837.029	25069
837.167	25171
837.305	25183
837.443	24992
837.58	25076
837.718	25034
837.856	24958
837.993	25053
838.131	25099
838.269	24920
838.406	24928
838.544	24817
838.681	24681
838.819	24848
838.956	24563
839.094	24631
839.231	24544
839.369	24798
839.506	24810
839.643	24642
839.781	24528
839.918	24407
840.055	24555
840.193	24711
840.33	24403
840.467	24448
840.604	24505
840.742	24715
840.879	24399
841.016	24388
841.153	24365
841.29	24460
841.427	24422
841.564	24361
841.701	24376
841.838	24433
841.975	24372
842.112	24464
842.249	24235
842.385	24155
842.522	24388
842.659	24270
842.796	24129
842.933	24190
843.069	24079
843.206	24182
843.343	24304
843.479	24007
843.616	24220
843.752	23916
843.889	24178
844.025	24045
844.162	23916
844.298	24125
844.435	24026
844.571	23908
844.708	23889
844.844	24079
844.98	24178
845.117	24133
845.253	24007
845.389	23809
845.525	23817
845.661	23786
845.798	23623
845.934	23790
846.07	23665
846.206	23722
846.342	23794
846.478	23649
846.614	23524
846.75	23372
846.886	23421
847.022	23467
847.158	23512
847.294	23315
847.429	23414
847.565	23467
847.701	23577
847.837	23128
847.972	23151
848.108	23075
848.244	23220
848.379	23044
848.515	23041
848.65	22892
848.786	23048
848.921	22984
849.057	23075
849.192	23185
849.328	23117
849.463	23113
849.598	23033
849.734	22847
849.869	22812
850.004	22717
850.14	22828
850.275	22683
850.41	22782
850.545	22630
850.68	22691
850.815	22809
850.95	22774
851.085	23083
851.22	22892
851.355	22713
851.49	22782
851.625	22831
851.76	22733
851.895	22664
852.03	22580
852.165	22759
852.299	22828
852.434	22862
852.569	22725
852.703	22790
852.838	22965
852.973	22934
853.107	22904
853.242	22550
853.376	22554
853.511	22421
853.645	22592
853.78	22634
853.914	22611
854.048	22527
854.183	22508
854.317	22500
854.451	22831
854.585	22569
854.72	22622
854.854	22672
854.988	22592
855.122	22660
855.256	22424
855.39	22641
855.524	22767
855.658	22603
855.792	22679
855.926	22634
856.06	22596
856.194	22580
856.327	22554
856.461	22542
856.595	22599
856.729	22485
856.862	22584
856.996	22557
857.13	22569
857.263	22729
857.397	22599
857.53	22493
857.664	22542
857.797	22618
857.931	22683
858.064	22641
858.197	22694
858.331	22637
858.464	22611
858.597	22485
858.731	22561
858.864	22531
858.997	22489
859.13	22565
859.263	22417
859.396	22744
859.529	22584
859.662	22481
859.795	22508
859.928	22637
860.061	22573
860.194	22759
860.327	22584
860.46	22618
860.592	22630
860.725	22729
860.858	22672
860.99	22580
861.123	22466
861.256	22550
861.388	22580
861.521	23356
861.653	22447
861.786	22310
861.918	22527
862.05	22379
862.183	22554
862.315	22557
862.447	22588
862.58	22451
862.712	22280
862.844	22257
862.976	22428
863.108	22325
863.24	22778
863.372	22249
863.504	22337
863.636	22344
863.768	22257
863.9	22363
864.032	22147
864.164	22280
864.296	22344
864.428	22341
864.559	22333
864.691	22390
864.823	22348
864.954	22200
865.086	22295
865.217	22177
865.349	22139
865.48	22173
865.612	22101
865.743	22398
865.875	22226
866.006	22059
866.137	22223
866.269	22249
866.4	22150
866.531	22135
866.662	22082
866.793	22070
866.924	22082
867.055	22234
867.186	22158
867.317	22086
867.448	21941
867.579	22082
867.71	22074
867.841	21941
867.972	22070
868.103	22185
868.233	22131
868.364	22124
868.495	22112
868.625	22268
868.756	22462
868.886	22192
869.017	22169
869.147	22382
869.278	22405
869.408	22440
869.539	22291
869.669	22306
869.799	22363
869.929	22481
870.06	22375
870.19	22580
870.32	22596
870.45	22744
870.58	22599
870.71	22767
870.84	22729
870.97	22786
871.1	22744
871.23	22980
871.36	22949
871.489	22831
871.619	22869
871.749	22896
871.879	22965
872.008	23162
872.138	22995
872.267	22896
872.397	22835
872.526	22763
872.656	22733
872.785	22801
872.915	22831
873.044	23067
873.173	23003
873.303	23136
873.432	22892
873.561	23037
873.69	23029
873.819	22885
873.948	23003
874.077	22934
874.206	22892
874.335	22900
874.464	22942
874.593	23197
874.722	23151
874.851	23132
874.979	23197
875.108	23197
875.237	23044
875.365	23048
875.494	23162
875.623	23132
875.751	23121
875.88	23113
876.008	23212
876.136	23391
876.265	23577
876.393	23653
876.521	23596
876.65	23672
876.778	23566
876.906	23429
877.034	23490
877.162	23558
877.29	23292
877.418	23585
877.546	23478
877.674	23535
877.802	23463
877.93	23490
878.058	23471
878.185	23299
878.313	23448
878.441	23459
878.568	23356
878.696	23505
878.824	23501
878.951	23486
879.079	23824
879.206	23908
879.333	23710
879.461	23535
879.588	23634
879.715	23722
879.842	23775
879.97	23509
880.097	23364
880.224	23265
880.351	23474
880.478	23376
880.605	23322
880.732	23246
880.859	23657
880.986	23318
881.112	23269
881.239	23235
881.366	23128
881.493	23025
881.619	22930
881.746	22995
881.872	22938
881.999	22866
882.125	22778
882.252	22816
882.378	22797
882.505	22858
882.631	22698
882.757	22634
882.883	22554
883.01	22516
883.136	22432
883.262	22466
883.388	22363
883.514	22577
883.64	22542
883.766	22527
883.892	22371
884.018	22455
884.143	22398
884.269	22474
884.395	22371
884.52	22143
884.646	22268
884.772	22051
884.897	22139
885.023	22147
885.148	22219
885.274	22367
885.399	22329
885.524	22226
885.65	22120
885.775	22215
885.9	22067
886.025	22284
886.15	22204
886.275	22109
886.4	22154
886.525	22246
886.65	21991
886.775	22040
886.9	22261
887.025	22291
887.149	22055
887.274	22105
887.399	21983
887.523	21975
887.648	21804
887.773	21751
887.897	21934
888.021	21888
888.146	21869
888.27	21991
888.395	22097
888.519	21941
888.643	22032
888.767	21934
888.891	21880
889.015	21732
889.139	21751
889.263	21724
889.387	21846
889.511	22055
889.635	21880
889.759	21724
889.883	21709
890.006	21831
890.13	21804
890.254	21622
890.377	21618
890.501	21408
890.624	21488
890.748	21477
890.871	21291
890.995	21344
891.118	21260
891.241	21317
891.364	21268
891.488	21275
891.611	21291
891.734	21340
891.857	21336
891.98	21408
892.103	21211
892.226	21340
892.349	21188
892.471	21154
892.594	21032
892.717	21142
892.839	21237
892.962	21112
893.085	21218
893.207	21150
893.33	21062
893.452	21066
893.575	21081
893.697	21340
893.819	21351
893.941	21260
894.064	21237
894.186	21150
894.308	21062
894.43	21165
894.552	21348
894.674	21237
894.796	21169
894.918	21081
895.04	21058
895.161	21252
895.283	21302
895.405	21070
895.526	21131
895.648	21233
895.769	21116
895.891	21222
896.012	21226
896.134	21074
896.255	21070
896.376	21085
896.498	21138
896.619	21180
896.74	21028
896.861	21192
896.982	21382
897.103	21603
897.224	21401
897.345	21329
897.466	21214
897.587	21279
897.708	21469
897.828	21393
897.949	21294
898.07	21249
898.19	21233
898.311	21534
898.431	21325
898.552	21291
898.672	21348
898.792	21348
898.913	21329
899.033	21165
899.153	21070
899.273	20986
899.393	21226
899.513	21119
899.633	21131
899.753	21020
899.873	21036
899.993	21077
900.113	20902
900.232	21017
900.352	20937
900.472	20804
900.591	20762
900.711	20906
900.83	20800
900.95	21051
901.069	20948
901.189	20670
901.308	20579
901.427	20328
901.546	20465
901.665	20492
901.784	20488
901.904	20305
902.023	20298
902.141	19959
902.26	19982
902.379	19978
902.498	19883
902.617	19833
902.735	20016
902.854	19856
902.973	19860
903.091	19594
903.21	19559
903.328	19464
903.446	19430
903.565	19350
903.683	19362
903.801	19247
903.919	19388
904.038	19232
904.156	19137
904.274	19168
904.392	19012
904.51	19251
904.627	19072
904.745	19137
904.863	19091
904.981	18798
905.098	18817
905.216	18810
905.334	18920
905.451	18863
905.569	18863
905.686	18859
905.803	18700
905.921	18551
906.038	18623
906.155	18536
906.272	18467
906.389	18475
906.506	18258
906.623	18357
906.74	18228
906.857	18220
906.974	18155
907.091	18456
907.208	18475
907.324	18361
907.441	18232
907.557	18026
907.674	18049
907.79	17965
907.907	17965
908.023	18041
908.139	17973
908.256	17973
908.372	17950
908.488	17847
908.604	17790
908.72	17653
908.836	17760
908.952	17714
909.068	17798
909.184	17794
909.3	17794
909.415	17722
909.531	17718
909.647	17535
909.762	17486
909.878	17318
909.993	17372
910.108	17387
910.224	17341
910.339	17337
910.454	17277
910.57	17181
910.685	17178
910.8	17417
910.915	17341
911.03	17208
911.145	17025
911.259	16965
911.374	16976
911.489	16942
911.604	16892
911.718	16725
911.833	16820
911.947	16702
912.062	16535
912.176	16820
912.291	16706
912.405	16653
912.519	16869
912.633	16915
912.748	16687
912.862	16691
912.976	16535
913.09	16424
913.204	16421
913.318	16474
913.431	16744
913.545	16622
913.659	16683
913.772	16394
913.886	16382
914	16398
914.113	16382
914.226	16409
914.34	16390
914.453	16204
914.566	16188
914.68	16158
914.793	16154
914.906	15941
915.019	15949
915.132	16017
915.245	15941
915.358	16002
915.47	15873
915.583	15857
915.696	15983
915.809	15964
915.921	16025
916.034	15759
916.146	15732
916.259	15759
916.371	15869
916.483	15827
916.595	15701
916.708	15736
916.82	15724
916.932	15747
917.044	15644
917.156	15599
917.268	15488
917.38	15534
917.491	15504
917.603	15641
917.715	15633
917.826	15690
917.938	15435
918.049	15420
918.161	15447
918.272	15614
918.384	15572
918.495	15515
918.606	15325
918.717	15233
918.828	15351
918.939	15359
919.05	15116
919.161	15222
919.272	15039
919.383	15199
919.494	15367
919.604	15500
919.715	15260
919.826	15188
919.936	15199
920.047	15233
920.157	15260
920.267	15367
920.378	15272
920.488	15245
920.598	15367
920.708	15576
920.818	15428
920.928	15325
921.038	15466
921.148	15511
921.258	15252
921.368	15135
921.477	15093
921.587	14956
921.697	14880
921.806	14967
921.916	14899
922.025	14697
922.134	14689
922.244	14629
922.353	14655
922.462	14533
922.571	14434
922.68	14313
922.789	14225
922.898	14286
923.007	14206
923.116	14282
923.224	14229
923.333	14282
923.442	14161
923.55	14138
923.659	13982
923.767	14069
923.876	14005
923.984	14157
924.092	13963
924.201	14123
924.309	13993
924.417	14005
924.525	13963
924.633	13906
924.741	14807
924.849	13662
924.956	13826
925.064	13666
925.172	13628
925.279	13616
925.387	13674
925.494	13727
925.602	13791
925.709	13731
925.816	13502
925.924	13582
926.031	13700
926.138	13609
926.245	13681
926.352	13563
926.459	13575
926.566	13647
926.673	13445
926.779	13343
926.886	13358
926.993	13251
927.099	13122
927.206	13160
927.312	13126
927.419	13232
927.525	13110
927.631	13202
927.737	13053
927.843	13110
927.95	12913
928.056	12924
928.162	13034
928.267	13095
928.373	13658
928.479	12996
928.585	12806
928.69	12932
928.796	12973
928.901	12837
929.007	12711
929.112	12753
929.218	12821
929.323	12703
929.428	12692
929.533	12852
929.638	12635
929.743	12665
929.848	12616
929.953	12650
930.058	12452
930.163	12323
930.267	12456
930.372	12448
930.477	12323
930.581	12593
930.685	12452
930.79	12159
930.894	12266
930.998	12235
931.103	12338
931.207	11984
931.311	11889
931.415	11794
931.519	11627
931.623	11608
