Data from test_V78500241_1059.txt Node
Date: Fri Mar 25 15:49:08 CST 2022
User: usil
Spectrometer: V785-0024
Trigger mode: 0
Integration Time (sec): 4.000000E-1
Scans to average: 1
Nonlinearity correction enabled: false
Boxcar width: 0
Storing dark spectrum: false
XAxis mode: Wavelengths
Number of Pixels in Spectrum: 1024
>>>>>Begin Spectral Data<<<<<
801.071	28029
801.214	28150
801.356	27895
801.499	27759
801.641	27492
801.783	27644
801.926	27701
802.068	27705
802.211	27435
802.353	27443
802.496	27310
802.638	27192
802.78	27237
802.923	27165
803.065	27119
803.208	27100
803.35	27226
803.492	27260
803.635	27344
803.777	27294
803.919	27447
804.061	27728
804.204	27481
804.346	27382
804.488	27287
804.63	27458
804.773	27443
804.915	27412
805.057	27450
805.199	27485
805.341	27450
805.483	27526
805.626	27663
805.768	27370
805.91	27572
806.052	27614
806.194	27656
806.336	27888
806.478	27496
806.62	27549
806.762	27869
806.904	27960
807.046	28090
807.188	28002
807.33	28032
807.472	28063
807.614	28010
807.756	28021
807.898	27941
808.04	27831
808.182	27850
808.324	28090
808.465	27994
808.607	28173
808.749	28405
808.891	28379
809.033	28394
809.174	28246
809.316	28188
809.458	28234
809.6	28303
809.741	28348
809.883	28440
810.025	28561
810.166	28466
810.308	28569
810.45	28516
810.591	28478
810.733	28398
810.875	28207
811.016	28139
811.158	28112
811.299	28287
811.441	28424
811.582	28394
811.724	28265
811.865	28306
812.007	28204
812.148	28299
812.29	28230
812.431	28512
812.573	28607
812.714	28748
812.855	28831
812.997	28816
813.138	28930
813.279	28942
813.421	28767
813.562	28824
813.703	28683
813.845	28535
813.986	28333
814.127	27975
814.268	27956
814.41	28143
814.551	28074
814.692	28025
814.833	27922
814.974	27918
815.115	27937
815.256	27835
815.397	27812
815.539	27816
815.68	27720
815.821	27644
815.962	27907
816.103	27568
816.244	27564
816.385	27599
816.526	27564
816.666	27374
816.807	27370
816.948	27473
817.089	27386
817.23	27287
817.371	27294
817.512	27203
817.653	27241
817.793	27211
817.934	27176
818.075	27294
818.216	27252
818.356	27252
818.497	27230
818.638	26967
818.778	27066
818.919	26979
819.06	27070
819.2	27154
819.341	27207
819.481	27184
819.622	27397
819.762	27663
819.903	27488
820.043	27374
820.184	27367
820.324	27443
820.465	27435
820.605	27412
820.746	27336
820.886	27214
821.026	27424
821.167	27370
821.307	27454
821.447	27241
821.588	27165
821.728	26937
821.868	26830
822.008	26750
822.149	26857
822.289	26693
822.429	26393
822.569	26564
822.709	26400
822.849	26191
822.99	26317
823.13	26176
823.27	26145
823.41	26065
823.55	25936
823.69	26012
823.83	26100
823.97	26039
824.11	25883
824.25	25757
824.389	25837
824.529	26016
824.669	25875
824.809	26081
824.949	26050
825.089	26027
825.228	25966
825.368	25879
825.508	25864
825.648	25696
825.787	25925
825.927	25803
826.067	25784
826.206	25852
826.346	25959
826.485	25761
826.625	25887
826.765	25928
826.904	25860
827.044	25578
827.183	25590
827.323	25407
827.462	25647
827.601	25544
827.741	25483
827.88	25438
828.02	25301
828.159	25392
828.298	25441
828.437	25601
828.577	25430
828.716	25620
828.855	25327
828.994	25213
829.134	25274
829.273	25168
829.412	25152
829.551	25160
829.69	25080
829.829	25110
829.968	25221
830.107	25206
830.246	25091
830.385	25187
830.524	25099
830.663	25053
830.802	24867
830.941	24703
831.08	24787
831.219	24901
831.357	24764
831.496	25000
831.635	24840
831.774	24608
831.913	24616
832.051	24498
832.19	24555
832.329	24513
832.467	24433
832.606	24410
832.744	24517
832.883	24471
833.022	24441
833.16	24380
833.299	24486
833.437	24528
833.576	24563
833.714	24517
833.852	24513
833.991	24582
834.129	24597
834.267	24422
834.406	24498
834.544	24574
834.682	24395
834.821	24456
834.959	24696
835.097	24391
835.235	24597
835.373	24418
835.511	24486
835.65	24376
835.788	24311
835.926	24155
836.064	24201
836.202	24125
836.34	24441
836.478	24380
836.615	24292
836.753	24372
836.891	24353
837.029	24350
837.167	24350
837.305	24201
837.443	24106
837.58	24114
837.718	24186
837.856	24235
837.993	24136
838.131	24057
838.269	23996
838.406	24114
838.544	23988
838.681	23741
838.819	23760
838.956	23547
839.094	23642
839.231	23668
839.369	23760
839.506	24095
839.643	23904
839.781	23516
839.918	23592
840.055	23577
840.193	23596
840.33	23520
840.467	23653
840.604	23558
840.742	23863
840.879	23474
841.016	23551
841.153	23505
841.29	23497
841.427	23539
841.564	23608
841.701	23577
841.838	23486
841.975	23589
842.112	23402
842.249	23455
842.385	23360
842.522	23501
842.659	23406
842.796	23360
842.933	23239
843.069	23094
843.206	23181
843.343	23311
843.479	23246
843.616	23558
843.752	23041
843.889	23083
844.025	23242
844.162	23083
844.298	23132
844.435	23170
844.571	22961
844.708	23140
844.844	23223
844.98	23216
845.117	23223
845.253	22968
845.389	22911
845.525	22961
845.661	22866
845.798	22919
845.934	22946
846.07	22786
846.206	22934
846.342	22957
846.478	22923
846.614	22531
846.75	22512
846.886	22592
847.022	22611
847.158	22538
847.294	22771
847.429	22512
847.565	22424
847.701	22820
847.837	22204
847.972	22196
848.108	22284
848.244	22375
848.379	22211
848.515	22128
848.65	21964
848.786	22154
848.921	22044
849.057	22268
849.192	22265
849.328	22177
849.463	22112
849.598	22010
849.734	21964
849.869	22048
850.004	21865
850.14	21892
850.275	21903
850.41	21797
850.545	21766
850.68	21850
850.815	21930
850.95	21930
851.085	22078
851.22	22021
851.355	21964
851.49	21774
851.625	21857
851.76	21956
851.895	21675
852.03	21747
852.165	21949
852.299	21972
852.434	21964
852.569	21797
852.703	21831
852.838	21956
852.973	22048
853.107	22074
853.242	21876
853.376	21804
853.511	21553
853.645	21644
853.78	21774
853.914	21766
854.048	21629
854.183	21709
854.317	21781
854.451	21835
854.585	21793
854.72	21656
854.854	21671
854.988	21686
855.122	21682
855.256	21568
855.39	21808
855.524	21819
855.658	21835
855.792	21808
855.926	21736
856.06	21751
856.194	21751
856.327	21728
856.461	21610
856.595	21663
856.729	21755
856.862	21781
856.996	21633
857.13	21751
857.263	21781
857.397	21667
857.53	21682
857.664	21793
857.797	21956
857.931	21694
858.064	21656
858.197	21888
858.331	21671
858.464	21568
858.597	21572
858.731	21694
858.864	21713
858.997	21625
859.13	21743
859.263	21713
859.396	21774
859.529	21656
859.662	21606
859.795	21610
859.928	21743
860.061	21869
860.194	21922
860.327	21736
860.46	21797
860.592	21953
860.725	21934
860.858	21759
860.99	21861
861.123	21629
861.256	21709
861.388	21701
861.521	22443
861.653	21542
861.786	21553
861.918	21595
862.05	21599
862.183	21656
862.315	21724
862.447	21603
862.58	21526
862.712	21412
862.844	21370
862.976	21466
863.108	21431
863.24	21998
863.372	21397
863.504	21389
863.636	21359
863.768	21389
863.9	21473
864.032	21431
864.164	21329
864.296	21412
864.428	21492
864.559	21325
864.691	21671
864.823	21462
864.954	21416
865.086	21272
865.217	21336
865.349	21199
865.48	21279
865.612	21378
865.743	21393
865.875	21306
866.006	21268
866.137	21252
866.269	21306
866.4	21230
866.531	21176
866.662	21294
866.793	21173
866.924	21249
867.055	21233
867.186	21260
867.317	21161
867.448	21142
867.579	21119
867.71	21165
867.841	21085
867.972	21275
868.103	21272
868.233	21310
868.364	21176
868.495	21317
868.625	21477
868.756	21648
868.886	21363
869.017	21583
869.147	21603
869.278	21610
869.408	21485
869.539	21435
869.669	21625
869.799	21595
869.929	21542
870.06	21538
870.19	21743
870.32	21724
870.45	21759
870.58	21739
870.71	21880
870.84	21941
870.97	21846
871.1	21751
871.23	22074
871.36	22105
871.489	21926
871.619	21934
871.749	22040
871.879	21991
872.008	22211
872.138	21979
872.267	22017
872.397	22105
872.526	21968
872.656	21842
872.785	21930
872.915	22051
873.044	22181
873.173	22051
873.303	22150
873.432	22051
873.561	22044
873.69	22093
873.819	22074
873.948	22162
874.077	22215
874.206	21991
874.335	21937
874.464	22112
874.593	22291
874.722	22211
874.851	22398
874.979	22333
875.108	22242
875.237	22325
875.365	22314
875.494	22306
875.623	22371
875.751	22287
875.88	22249
876.008	22363
876.136	22493
876.265	22729
876.393	22740
876.521	22820
876.65	22930
876.778	22607
876.906	22725
877.034	22584
877.162	22618
877.29	22672
877.418	22653
877.546	22622
877.674	22592
877.802	22634
877.93	22698
878.058	22580
878.185	22615
878.313	22645
878.441	22691
878.568	22424
878.696	22538
878.824	22702
878.951	22771
879.079	22869
879.206	22942
879.333	22885
879.461	22618
879.588	22797
879.715	22759
879.842	22809
879.97	22717
880.097	22398
880.224	22478
880.351	22622
880.478	22607
880.605	22371
880.732	22417
880.859	22698
880.986	22459
881.112	22535
881.239	22287
881.366	22306
881.493	22105
881.619	22116
881.746	22074
881.872	22002
881.999	21991
882.125	21953
882.252	22223
882.378	21884
882.505	22192
882.631	21983
882.757	21686
882.883	21850
883.01	21743
883.136	21698
883.262	21682
883.388	21534
883.514	21789
883.64	21804
883.766	21690
883.892	21553
884.018	21526
884.143	21660
884.269	21762
884.395	21538
884.52	21389
884.646	21519
884.772	21408
884.897	21249
885.023	21428
885.148	21450
885.274	21420
885.399	21378
885.524	21321
885.65	21310
885.775	21435
885.9	21416
886.025	21473
886.15	21374
886.275	21226
886.4	21306
886.525	21325
886.65	21268
886.775	21313
886.9	21580
887.025	21583
887.149	21317
887.274	21154
887.399	21165
887.523	21074
887.648	21051
887.773	21024
887.897	21230
888.021	21169
888.146	21020
888.27	21184
888.395	21386
888.519	21195
888.643	21237
888.767	21275
888.891	21017
889.015	20937
889.139	21055
889.263	20861
889.387	21062
889.511	21051
889.635	20979
889.759	20842
889.883	20830
890.006	20921
890.13	21135
890.254	20895
890.377	20861
890.501	20663
890.624	20667
890.748	20750
890.871	20541
890.995	20434
891.118	20438
891.241	20511
891.364	20507
891.488	20632
891.611	20530
891.734	20438
891.857	20651
891.98	20431
892.103	20606
892.226	20549
892.349	20427
892.471	20396
892.594	20396
892.717	20465
892.839	20400
892.962	20404
893.085	20465
893.207	20339
893.33	20233
893.452	20294
893.575	20438
893.697	20408
893.819	20644
893.941	20568
894.064	20434
894.186	20282
894.308	20332
894.43	20514
894.552	20492
894.674	20518
894.796	20259
894.918	20419
895.04	20358
895.161	20381
895.283	20454
895.405	20145
895.526	20499
895.648	20358
895.769	20427
895.891	20495
896.012	20511
896.134	20415
896.255	20286
896.376	20461
896.498	20400
896.619	20366
896.74	20366
896.861	20431
896.982	20769
897.103	20929
897.224	20651
897.345	20590
897.466	20507
897.587	20724
897.708	20750
897.828	20629
897.949	20552
898.07	20480
898.19	20480
898.311	20621
898.431	20431
898.552	20541
898.672	20708
898.792	20701
898.913	20499
899.033	20564
899.153	20377
899.273	20286
899.393	20484
899.513	20374
899.633	20355
899.753	20301
899.873	20336
899.993	20347
900.113	20320
900.232	20393
900.352	20332
900.472	20092
900.591	20046
900.711	20134
900.83	20111
900.95	20271
901.069	20214
901.189	19936
901.308	19807
901.427	19689
901.546	19753
901.665	19723
901.784	19624
901.904	19624
902.023	19529
902.141	19266
902.26	19209
902.379	19381
902.498	19228
902.617	19171
902.735	19206
902.854	19175
902.973	19110
903.091	18848
903.21	18867
903.328	18905
903.446	18703
903.565	18757
903.683	18707
903.801	18570
903.919	18661
904.038	18684
904.156	18483
904.274	18544
904.392	18502
904.51	18304
904.627	18464
904.745	18544
904.863	18445
904.981	18342
905.098	18152
905.216	18155
905.334	18121
905.451	18106
905.569	18079
905.686	18251
905.803	18102
905.921	17950
906.038	18019
906.155	17939
906.272	17771
906.389	17904
906.506	17638
906.623	17646
906.74	17646
906.857	17490
906.974	17528
907.091	17699
907.208	17802
907.324	17570
907.441	17516
907.557	17520
907.674	17288
907.79	17326
907.907	17311
908.023	17368
908.139	17391
908.256	17330
908.372	17318
908.488	17261
908.604	17124
908.72	17083
908.836	17056
908.952	17056
909.068	17079
909.184	17174
909.3	17003
909.415	17060
909.531	17113
909.647	16793
909.762	16767
909.878	16816
909.993	16801
910.108	16828
910.224	16767
910.339	16721
910.454	16687
910.57	16573
910.685	16440
910.8	16862
910.915	16691
911.03	16573
911.145	16440
911.259	16451
911.374	16417
911.489	16284
911.604	16207
911.718	16124
911.833	16112
911.947	16063
912.062	15987
912.176	16097
912.291	16158
912.405	16067
912.519	16272
912.633	16280
912.748	16154
912.862	16078
912.976	15861
913.09	15854
913.204	15956
913.318	15968
913.431	15953
913.545	15964
913.659	15972
913.772	15953
913.886	15827
914	15736
914.113	15812
914.226	15895
914.34	15888
914.453	15606
914.566	15778
914.68	15675
914.793	15587
914.906	15412
915.019	15401
915.132	15275
915.245	15252
915.358	15431
915.47	15287
915.583	15211
915.696	15329
915.809	15382
915.921	15469
916.034	15222
916.146	15222
916.259	15184
916.371	15313
916.483	15287
916.595	15142
916.708	15169
916.82	15161
916.932	15093
917.044	15104
917.156	15116
917.268	14914
917.38	14963
917.491	14963
917.603	14967
917.715	14918
917.826	15032
917.938	14872
918.049	14765
918.161	14887
918.272	14967
918.384	15039
918.495	14845
918.606	14777
918.717	14598
918.828	14739
918.939	14830
919.05	14678
919.161	14613
919.272	14583
919.383	14549
919.494	14785
919.604	14975
919.715	14746
919.826	14712
919.936	14686
920.047	14712
920.157	14796
920.267	14811
920.378	14670
920.488	14629
920.598	14834
920.708	14971
920.818	14830
920.928	14777
921.038	15119
921.148	14937
921.258	14670
921.368	14454
921.477	14347
921.587	14469
921.697	14324
921.806	14419
921.916	14275
922.025	14008
922.134	14031
922.244	14031
922.353	14145
922.462	13932
922.571	13833
922.68	13814
922.789	13700
922.898	13772
923.007	13601
923.116	13746
923.224	13681
923.333	13658
923.442	13514
923.55	13476
923.659	13396
923.767	13597
923.876	13559
923.984	13552
924.092	13392
924.201	13407
924.309	13464
924.417	13476
924.525	13430
924.633	13369
924.741	14130
924.849	13050
924.956	13278
925.064	13194
925.172	13103
925.279	13126
925.387	13008
925.494	13042
925.602	13324
925.709	13133
925.816	13042
925.924	13027
926.031	13202
926.138	12993
926.245	13126
926.352	12954
926.459	13160
926.566	13095
926.673	12981
926.779	12795
926.886	12852
926.993	12715
927.099	12623
927.206	12658
927.312	12642
927.419	12582
927.525	12726
927.631	12608
927.737	12604
927.843	12528
927.95	12433
928.056	12475
928.162	12547
928.267	12563
928.373	13072
928.479	12608
928.585	12422
928.69	12372
928.796	12498
928.901	12361
929.007	12209
929.112	12380
929.218	12308
929.323	12266
929.428	12239
929.533	12372
929.638	12159
929.743	12098
929.848	12155
929.953	12159
930.058	12026
930.163	11920
930.267	11973
930.372	12049
930.477	11821
930.581	12148
930.685	11923
930.79	11688
930.894	11790
930.998	11752
931.103	11897
931.207	11570
931.311	11387
931.415	11429
931.519	11162
931.623	11067
