Data from test_V78500241_61.txt Node
Date: Fri Mar 25 15:42:13 CST 2022
User: usil
Spectrometer: V785-0024
Trigger mode: 0
Integration Time (sec): 4.000000E-1
Scans to average: 1
Nonlinearity correction enabled: false
Boxcar width: 0
Storing dark spectrum: false
XAxis mode: Wavelengths
Number of Pixels in Spectrum: 1024
>>>>>Begin Spectral Data<<<<<
801.071	29760
801.214	29733
801.356	29474
801.499	29516
801.641	29200
801.783	29326
801.926	29429
802.068	29227
802.211	29311
802.353	29254
802.496	28957
802.638	28961
802.78	28938
802.923	28850
803.065	28801
803.208	28923
803.35	28866
803.492	29033
803.635	29181
803.777	29083
803.919	29151
804.061	29395
804.204	29151
804.346	28965
804.488	29022
804.63	28797
804.773	28965
804.915	28984
805.057	28911
805.199	28904
805.341	29102
805.483	29052
805.626	29052
805.768	29022
805.91	28972
806.052	29003
806.194	29018
806.336	29379
806.478	29273
806.62	29147
806.762	29273
806.904	29429
807.046	29630
807.188	29452
807.33	29463
807.472	29539
807.614	29433
807.756	29379
807.898	29364
808.04	29379
808.182	29273
808.324	29307
808.465	29322
808.607	29375
808.749	29646
808.891	29741
809.033	29760
809.174	29577
809.316	29695
809.458	29570
809.6	29543
809.741	29771
809.883	29573
810.025	29824
810.166	29855
810.308	29920
810.45	29961
810.591	29748
810.733	29661
810.875	29630
811.016	29539
811.158	29524
811.299	29638
811.441	29726
811.582	29764
811.724	29608
811.865	29467
812.007	29585
812.148	29562
812.29	29729
812.431	29783
812.573	29958
812.714	29954
812.855	30114
812.997	30125
813.138	30429
813.279	30254
813.421	30041
813.562	29904
813.703	29912
813.845	29627
813.986	29417
814.127	29322
814.268	29200
814.41	29231
814.551	29288
814.692	29299
814.833	29094
814.974	29044
815.115	29143
815.256	29048
815.397	28934
815.539	28904
815.68	28797
815.821	28877
815.962	28816
816.103	28911
816.244	28698
816.385	28588
816.526	28592
816.666	28341
816.807	28329
816.948	28424
817.089	28497
817.23	28337
817.371	28253
817.512	28257
817.653	28318
817.793	28139
817.934	28196
818.075	28246
818.216	28306
818.356	28131
818.497	28215
818.638	27922
818.778	27972
818.919	28097
819.06	28032
819.2	28070
819.341	28128
819.481	28287
819.622	28318
819.762	28443
819.903	28459
820.043	28276
820.184	28143
820.324	28166
820.465	28318
820.605	28223
820.746	28105
820.886	28177
821.026	28226
821.167	28188
821.307	28177
821.447	28169
821.588	28013
821.728	27926
821.868	27854
822.008	27637
822.149	27564
822.289	27713
822.429	27329
822.569	27268
822.709	27233
822.849	27093
822.99	27169
823.13	27104
823.27	26906
823.41	26902
823.55	26800
823.69	26842
823.83	26842
823.97	26686
824.11	26651
824.25	26495
824.389	26545
824.529	26735
824.669	26629
824.809	26697
824.949	26617
825.089	26644
825.228	26511
825.368	26552
825.508	26313
825.648	26427
825.787	26526
825.927	26541
826.067	26457
826.206	26503
826.346	26419
826.485	26469
826.625	26366
826.765	26499
826.904	26393
827.044	26218
827.183	26058
827.323	26134
827.462	26164
827.601	26084
827.741	26031
827.88	26073
828.02	26043
828.159	26008
828.298	26008
828.437	26164
828.577	26050
828.716	26084
828.855	25887
828.994	25879
829.134	25822
829.273	25750
829.412	25742
829.551	25559
829.69	25769
829.829	25696
829.968	25780
830.107	25814
830.246	25742
830.385	25563
830.524	25567
830.663	25540
830.802	25510
830.941	25221
831.08	25293
831.219	25266
831.357	25263
831.496	25422
831.635	25251
831.774	25099
831.913	25160
832.051	24985
832.19	25038
832.329	24966
832.467	24935
832.606	24859
832.744	24825
832.883	24821
833.022	24745
833.16	24814
833.299	24916
833.437	24783
833.576	24901
833.714	24848
833.852	24939
833.991	24924
834.129	24905
834.267	24932
834.406	24798
834.544	24768
834.682	24905
834.821	24829
834.959	24897
835.097	24776
835.235	24760
835.373	24741
835.511	24814
835.65	24741
835.788	24730
835.926	24505
836.064	24384
836.202	24437
836.34	24764
836.478	24696
836.615	24688
836.753	24544
836.891	24745
837.029	24620
837.167	24570
837.305	24566
837.443	24540
837.58	24498
837.718	24570
837.856	24654
837.993	24448
838.131	24494
838.269	24273
838.406	24407
838.544	24270
838.681	24125
838.819	24072
838.956	23984
839.094	23889
839.231	23878
839.369	24015
839.506	24323
839.643	24190
839.781	23786
839.918	23680
840.055	23805
840.193	23817
840.33	23794
840.467	23726
840.604	23904
840.742	24079
840.879	23665
841.016	23585
841.153	23611
841.29	23809
841.427	23687
841.564	23676
841.701	23802
841.838	23649
841.975	23501
842.112	23638
842.249	23581
842.385	23410
842.522	23657
842.659	23589
842.796	23482
842.933	23364
843.069	23440
843.206	23326
843.343	23539
843.479	23341
843.616	23387
843.752	23288
843.889	23174
844.025	23269
844.162	23022
844.298	23159
844.435	23083
844.571	23018
844.708	23208
844.844	23216
844.98	23296
845.117	23265
845.253	23056
845.389	23033
845.525	22995
845.661	23079
845.798	23060
845.934	22885
846.07	22748
846.206	22771
846.342	23022
846.478	22809
846.614	22554
846.75	22626
846.886	22554
847.022	22672
847.158	22565
847.294	22565
847.429	22531
847.565	22641
847.701	22603
847.837	22344
847.972	22185
848.108	22348
848.244	22314
848.379	22135
848.515	22295
848.65	22021
848.786	22070
848.921	22109
849.057	22147
849.192	22272
849.328	22082
849.463	22150
849.598	21960
849.734	21941
849.869	21922
850.004	21846
850.14	22029
850.275	21816
850.41	21781
850.545	21739
850.68	21842
850.815	21911
850.95	21835
851.085	21934
851.22	21994
851.355	21736
851.49	21728
851.625	21736
851.76	21747
851.895	21717
852.03	21682
852.165	21717
852.299	21781
852.434	21816
852.569	21701
852.703	21736
852.838	21846
852.973	21998
853.107	21842
853.242	21770
853.376	21511
853.511	21488
853.645	21633
853.78	21622
853.914	21667
854.048	21515
854.183	21671
854.317	21492
854.451	21781
854.585	21519
854.72	21530
854.854	21625
854.988	21553
855.122	21523
855.256	21454
855.39	21614
855.524	21671
855.658	21701
855.792	21576
855.926	21606
856.06	21492
856.194	21633
856.327	21447
856.461	21530
856.595	21462
856.729	21496
856.862	21576
856.996	21564
857.13	21614
857.263	21576
857.397	21530
857.53	21416
857.664	21739
857.797	21603
857.931	21614
858.064	21507
858.197	21545
858.331	21515
858.464	21439
858.597	21416
858.731	21473
858.864	21428
858.997	21545
859.13	21557
859.263	21542
859.396	21667
859.529	21515
859.662	21428
859.795	21439
859.928	21367
860.061	21720
860.194	21652
860.327	21530
860.46	21576
860.592	21610
860.725	21545
860.858	21523
860.99	21485
861.123	21291
861.256	21317
861.388	21587
861.521	22112
861.653	21428
861.786	21310
861.918	21435
862.05	21420
862.183	21549
862.315	21709
862.447	21739
862.58	21405
862.712	21233
862.844	21237
862.976	21317
863.108	21287
863.24	21523
863.372	21192
863.504	21169
863.636	21085
863.768	21161
863.9	21226
864.032	20982
864.164	21165
864.296	21161
864.428	21256
864.559	21195
864.691	21203
864.823	21085
864.954	21180
865.086	21203
865.217	21108
865.349	20986
865.48	21093
865.612	21188
865.743	21340
865.875	21123
866.006	20998
866.137	21028
866.269	21024
866.4	21146
866.531	21074
866.662	21020
866.793	21013
866.924	21070
867.055	20990
867.186	20975
867.317	20883
867.448	20975
867.579	20906
867.71	20960
867.841	20906
867.972	21058
868.103	20899
868.233	21013
868.364	21032
868.495	21131
868.625	21138
868.756	21230
868.886	21142
869.017	21173
869.147	21310
869.278	21264
869.408	21154
869.539	21146
869.669	21279
869.799	21256
869.929	21351
870.06	21199
870.19	21583
870.32	21405
870.45	21534
870.58	21656
870.71	21641
870.84	21652
870.97	21698
871.1	21568
871.23	21762
871.36	21861
871.489	21717
871.619	21603
871.749	21762
871.879	21808
872.008	21960
872.138	21857
872.267	21804
872.397	21823
872.526	21682
872.656	21789
872.785	21625
872.915	21739
873.044	21800
873.173	21892
873.303	21846
873.432	21880
873.561	21835
873.69	21766
873.819	21747
873.948	21857
874.077	21880
874.206	21774
874.335	21778
874.464	21934
874.593	22139
874.722	22017
874.851	22128
874.979	22116
875.108	22128
875.237	22010
875.365	21895
875.494	21945
875.623	22070
875.751	22128
875.88	22105
876.008	22295
876.136	22322
876.265	22424
876.393	22542
876.521	22618
876.65	22542
876.778	22451
876.906	22352
877.034	22284
877.162	22527
877.29	22386
877.418	22390
877.546	22493
877.674	22462
877.802	22417
877.93	22386
878.058	22409
878.185	22398
878.313	22428
878.441	22398
878.568	22226
878.696	22337
878.824	22386
878.951	22440
879.079	22694
879.206	22744
879.333	22573
879.461	22447
879.588	22713
879.715	22603
879.842	22630
879.97	22516
880.097	22261
880.224	22249
880.351	22287
880.478	22128
880.605	22287
880.732	22242
880.859	22538
880.986	22272
881.112	22337
881.239	22128
881.366	22162
881.493	21949
881.619	21899
881.746	21800
881.872	21854
881.999	21854
882.125	21774
882.252	21831
882.378	21793
882.505	21876
882.631	21774
882.757	21622
882.883	21701
883.01	21500
883.136	21561
883.262	21450
883.388	21458
883.514	21538
883.64	21587
883.766	21477
883.892	21359
884.018	21367
884.143	21526
884.269	21538
884.395	21245
884.52	21237
884.646	21249
884.772	21112
884.897	21051
885.023	21127
885.148	21214
885.274	21348
885.399	21237
885.524	21150
885.65	21173
885.775	21142
885.9	21237
886.025	21321
886.15	21245
886.275	21165
886.4	21017
886.525	21131
886.65	21180
886.775	21138
886.9	21207
887.025	21389
887.149	21154
887.274	21001
887.399	20891
887.523	20902
887.648	20830
887.773	20735
887.897	21062
888.021	20975
888.146	20842
888.27	21005
888.395	20925
888.519	21032
888.643	20941
888.767	20899
888.891	20819
889.015	20746
889.139	20777
889.263	20613
889.387	20830
889.511	20895
889.635	20765
889.759	20613
889.883	20667
890.006	20765
890.13	20640
890.254	20594
890.377	20640
890.501	20495
890.624	20381
890.748	20434
890.871	20298
890.995	20183
891.118	20202
891.241	20393
891.364	20267
891.488	20313
891.611	20286
891.734	20153
891.857	20229
891.98	20252
892.103	20259
892.226	20225
892.349	20187
892.471	19951
892.594	20161
892.717	20275
892.839	20096
892.962	20229
893.085	20240
893.207	20248
893.33	20081
893.452	20172
893.575	20180
893.697	20168
893.819	20320
893.941	20324
894.064	20271
894.186	20046
894.308	20005
894.43	20324
894.552	20362
894.674	20210
894.796	20050
894.918	20069
895.04	20134
895.161	20328
895.283	20202
895.405	20073
895.526	20210
895.648	20073
895.769	20050
895.891	20324
896.012	20237
896.134	20259
896.255	20176
896.376	20187
896.498	20332
896.619	20328
896.74	20218
896.861	20278
896.982	20385
897.103	20579
897.224	20511
897.345	20396
897.466	20499
897.587	20454
897.708	20571
897.828	20415
897.949	20294
898.07	20183
898.19	20377
898.311	20545
898.431	20324
898.552	20461
898.672	20446
898.792	20389
898.913	20374
899.033	20149
899.153	20069
899.273	20016
899.393	19986
899.513	19997
899.633	20100
899.753	19982
899.873	19997
899.993	20103
900.113	19887
900.232	20012
900.352	19986
900.472	19917
900.591	19818
900.711	19856
900.83	19917
900.95	20001
901.069	20035
901.189	19807
901.308	19521
901.427	19556
901.546	19381
901.665	19415
901.784	19419
901.904	19373
902.023	19247
902.141	19008
902.26	18962
902.379	19008
902.498	18932
902.617	18753
902.735	18977
902.854	18741
902.973	18814
903.091	18601
903.21	18631
903.328	18597
903.446	18418
903.565	18372
903.683	18361
903.801	18251
903.919	18300
904.038	18365
904.156	18174
904.274	18304
904.392	18163
904.51	18125
904.627	18178
904.745	18209
904.863	18133
904.981	17984
905.098	17684
905.216	17840
905.334	17863
905.451	17847
905.569	17878
905.686	17874
905.803	17840
905.921	17718
906.038	17802
906.155	17604
906.272	17642
906.389	17520
906.506	17330
906.623	17315
906.74	17337
906.857	17246
906.974	17311
907.091	17452
907.208	17532
907.324	17326
907.441	17311
907.557	17052
907.674	16976
907.79	17006
907.907	17010
908.023	17014
908.139	16995
908.256	16995
908.372	16980
908.488	16900
908.604	16771
908.72	16645
908.836	16710
908.952	16687
909.068	16615
909.184	16771
909.3	16733
909.415	16660
909.531	16630
909.647	16348
909.762	16421
909.878	16344
909.993	16394
910.108	16299
910.224	16409
910.339	16394
910.454	16204
910.57	16204
910.685	16154
910.8	16382
910.915	16333
911.03	16124
911.145	16017
911.259	15975
911.374	15918
911.489	15934
911.604	15797
911.718	15705
911.833	15724
911.947	15595
912.062	15587
912.176	15720
912.291	15743
912.405	15599
912.519	15956
912.633	15915
912.748	15762
912.862	15652
912.976	15500
913.09	15424
913.204	15424
913.318	15485
913.431	15538
913.545	15389
913.659	15572
913.772	15553
913.886	15291
914	15374
914.113	15447
914.226	15397
914.34	15355
914.453	15222
914.566	15321
914.68	15211
914.793	15169
914.906	15001
915.019	15032
915.132	14944
915.245	15005
915.358	14986
915.47	14876
915.583	14910
915.696	15001
915.809	15066
915.921	15043
916.034	14819
916.146	14800
916.259	14842
916.371	14929
916.483	14785
916.595	14811
916.708	14872
916.82	14724
916.932	14705
917.044	14670
917.156	14682
917.268	14579
917.38	14632
917.491	14492
917.603	14667
917.715	14587
917.826	14727
917.938	14461
918.049	14385
918.161	14522
918.272	14579
918.384	14708
918.495	14564
918.606	14419
918.717	14313
918.828	14389
918.939	14347
919.05	14339
919.161	14267
919.272	14138
919.383	14180
919.494	14202
919.604	14545
919.715	14290
919.826	14123
919.936	14336
920.047	14336
920.157	14282
920.267	14408
920.378	14206
920.488	14343
920.598	14492
920.708	14568
920.818	14355
920.928	14431
921.038	14564
921.148	14495
921.258	14313
921.368	14039
921.477	14035
921.587	13970
921.697	13837
921.806	14001
921.916	13780
922.025	13639
922.134	13674
922.244	13681
922.353	13670
922.462	13502
922.571	13396
922.68	13278
922.789	13312
922.898	13282
923.007	13194
923.116	13297
923.224	13350
923.333	13187
923.442	13122
923.55	13107
923.659	13152
923.767	13088
923.876	13072
923.984	13160
924.092	13000
924.201	12924
924.309	13114
924.417	13084
924.525	12882
924.633	12817
924.741	13928
924.849	12741
924.956	12924
925.064	12726
925.172	12582
925.279	12620
925.387	12772
925.494	12688
925.602	12852
925.709	12810
925.816	12700
925.924	12662
926.031	12730
926.138	12719
926.245	12779
926.352	12585
926.459	12764
926.566	12696
926.673	12566
926.779	12471
926.886	12544
926.993	12300
927.099	12277
927.206	12258
927.312	12281
927.419	12304
927.525	12292
927.631	12220
927.737	12079
927.843	12106
927.95	11980
928.056	12038
928.162	12038
928.267	12155
928.373	12662
928.479	12239
928.585	11908
928.69	12072
928.796	12095
928.901	11946
929.007	11824
929.112	11901
929.218	11965
929.323	11802
929.428	11775
929.533	11946
929.638	11786
929.743	11745
929.848	11794
929.953	11649
930.058	11695
930.163	11459
930.267	11547
930.372	11657
930.477	11440
930.581	11577
930.685	11512
930.79	11315
930.894	11360
930.998	11284
931.103	11387
931.207	11136
931.311	11048
931.415	10911
931.519	10725
931.623	10786
