Data from test_V78500241_2558.txt Node
Date: Fri Mar 25 15:59:31 CST 2022
User: usil
Spectrometer: V785-0024
Trigger mode: 0
Integration Time (sec): 4.000000E-1
Scans to average: 1
Nonlinearity correction enabled: false
Boxcar width: 0
Storing dark spectrum: false
XAxis mode: Wavelengths
Number of Pixels in Spectrum: 1024
>>>>>Begin Spectral Data<<<<<
801.071	28687
801.214	28782
801.356	28470
801.499	28394
801.641	28344
801.783	28276
801.926	28333
802.068	28348
802.211	28337
802.353	28124
802.496	28063
802.638	27914
802.78	27994
802.923	27926
803.065	27975
803.208	27937
803.35	28040
803.492	28166
803.635	28181
803.777	28166
803.919	28135
804.061	28656
804.204	28322
804.346	28207
804.488	28211
804.63	28116
804.773	28234
804.915	28249
805.057	28352
805.199	28230
805.341	28394
805.483	28497
805.626	28375
805.768	28341
805.91	28485
806.052	28443
806.194	28379
806.336	28660
806.478	28470
806.62	28474
806.762	28698
806.904	28660
807.046	29006
807.188	28824
807.33	28888
807.472	28965
807.614	28637
807.756	28748
807.898	28797
808.04	28577
808.182	28592
808.324	28740
808.465	28790
808.607	28961
808.749	29124
808.891	29356
809.033	29292
809.174	29258
809.316	29098
809.458	29033
809.6	29041
809.741	29098
809.883	29140
810.025	29436
810.166	29417
810.308	29318
810.45	29318
810.591	29269
810.733	29124
810.875	29132
811.016	29109
811.158	28991
811.299	29117
811.441	29299
811.582	29261
811.724	29033
811.865	28995
812.007	29143
812.148	29128
812.29	29029
812.431	29223
812.573	29436
812.714	29642
812.855	29684
812.997	29619
813.138	29828
813.279	29729
813.421	29535
813.562	29558
813.703	29421
813.845	29349
813.986	28991
814.127	28915
814.268	28919
814.41	29037
814.551	28713
814.692	28919
814.833	28489
814.974	28736
815.115	28888
815.256	28672
815.397	28622
815.539	28607
815.68	28649
815.821	28485
815.962	28683
816.103	28611
816.244	28459
816.385	28375
816.526	28363
816.666	28234
816.807	28139
816.948	28181
817.089	28268
817.23	28105
817.371	28097
817.512	28185
817.653	28040
817.793	28017
817.934	28135
818.075	28177
818.216	28139
818.356	27956
818.497	27960
818.638	27808
818.778	27949
818.919	27914
819.06	27991
819.2	27926
819.341	28074
819.481	28105
819.622	28428
819.762	28470
819.903	28398
820.043	28352
820.184	28356
820.324	28268
820.465	28291
820.605	28169
820.746	28284
820.886	28059
821.026	28265
821.167	28200
821.307	28268
821.447	28139
821.588	27934
821.728	27914
821.868	27743
822.008	27526
822.149	27580
822.289	27610
822.429	27462
822.569	27237
822.709	27272
822.849	27096
822.99	27138
823.13	27165
823.27	26925
823.41	26876
823.55	26899
823.69	26906
823.83	26857
823.97	26712
824.11	26853
824.25	26819
824.389	26762
824.529	26853
824.669	26712
824.809	26975
824.949	26830
825.089	26918
825.228	26838
825.368	26648
825.508	26651
825.648	26625
825.787	26720
825.927	26659
826.067	26469
826.206	26587
826.346	26735
826.485	26743
826.625	26648
826.765	26773
826.904	26678
827.044	26533
827.183	26412
827.323	26294
827.462	26522
827.601	26427
827.741	26214
827.88	26476
828.02	26153
828.159	26347
828.298	26377
828.437	26499
828.577	26191
828.716	26393
828.855	26309
828.994	26065
829.134	26062
829.273	26096
829.412	26024
829.551	25951
829.69	26058
829.829	26077
829.968	26031
830.107	26039
830.246	26008
830.385	25841
830.524	25986
830.663	25837
830.802	25890
830.941	25620
831.08	25457
831.219	25727
831.357	25769
831.496	25856
831.635	25700
831.774	25639
831.913	25510
832.051	25506
832.19	25518
832.329	25479
832.467	25236
832.606	25293
832.744	25282
832.883	25308
833.022	25308
833.16	25221
833.299	25430
833.437	25438
833.576	25483
833.714	25373
833.852	25457
833.991	25548
834.129	25502
834.267	25457
834.406	25350
834.544	25407
834.682	25381
834.821	25228
834.959	25563
835.097	25514
835.235	25320
835.373	25266
835.511	25403
835.65	25175
835.788	25293
835.926	25107
836.064	25057
836.202	24962
836.34	25225
836.478	25354
836.615	25126
836.753	25213
836.891	25335
837.029	25152
837.167	25103
837.305	25126
837.443	25015
837.58	25084
837.718	24977
837.856	25065
837.993	24954
838.131	25069
838.269	24810
838.406	24954
838.544	24829
838.681	24700
838.819	24711
838.956	24494
839.094	24494
839.231	24498
839.369	24700
839.506	24867
839.643	24738
839.781	24517
839.918	24407
840.055	24544
840.193	24448
840.33	24372
840.467	24327
840.604	24266
840.742	24639
840.879	24266
841.016	24266
841.153	24289
841.29	24483
841.427	24289
841.564	24505
841.701	24483
841.838	24410
841.975	24346
842.112	24338
842.249	24076
842.385	24232
842.522	24429
842.659	24190
842.796	24144
842.933	24178
843.069	24041
843.206	24106
843.343	24216
843.479	24251
843.616	24114
843.752	24106
843.889	23901
844.025	24011
844.162	23836
844.298	24083
844.435	23984
844.571	23855
844.708	24030
844.844	24163
844.98	24133
845.117	23973
845.253	23912
845.389	23783
845.525	23775
845.661	23687
845.798	23657
845.934	23668
846.07	23687
846.206	23767
846.342	23821
846.478	23646
846.614	23581
846.75	23417
846.886	23303
847.022	23421
847.158	23326
847.294	23452
847.429	23459
847.565	23353
847.701	23604
847.837	23109
847.972	23052
848.108	23155
848.244	23185
848.379	22949
848.515	22957
848.65	22946
848.786	22995
848.921	22957
849.057	23022
849.192	22980
849.328	23037
849.463	22961
849.598	22869
849.734	22908
849.869	22877
850.004	22698
850.14	22721
850.275	22740
850.41	22748
850.545	22702
850.68	22622
850.815	22752
850.95	22767
851.085	22847
851.22	22816
851.355	22752
851.49	22729
851.625	22771
851.76	22778
851.895	22660
852.03	22649
852.165	22793
852.299	22698
852.434	22771
852.569	22687
852.703	22664
852.838	22850
852.973	22831
853.107	22869
853.242	22615
853.376	22580
853.511	22478
853.645	22542
853.78	22782
853.914	22577
854.048	22607
854.183	22512
854.317	22569
854.451	22771
854.585	22569
854.72	22497
854.854	22577
854.988	22390
855.122	22519
855.256	22451
855.39	22516
855.524	22672
855.658	22592
855.792	22523
855.926	22565
856.06	22565
856.194	22645
856.327	22531
856.461	22455
856.595	22531
856.729	22455
856.862	22736
856.996	22554
857.13	22546
857.263	22729
857.397	22656
857.53	22580
857.664	22584
857.797	22755
857.931	22668
858.064	22573
858.197	22645
858.331	22428
858.464	22470
858.597	22459
858.731	22417
858.864	22489
858.997	22497
859.13	22481
859.263	22550
859.396	22630
859.529	22554
859.662	22538
859.795	22618
859.928	22550
860.061	22668
860.194	22786
860.327	22599
860.46	22656
860.592	22698
860.725	22896
860.858	22622
860.99	22538
861.123	22478
861.256	22436
861.388	22481
861.521	23235
861.653	22489
861.786	22238
861.918	22367
862.05	22527
862.183	22443
862.315	22512
862.447	22481
862.58	22382
862.712	22284
862.844	22074
862.976	22379
863.108	22246
863.24	22683
863.372	22128
863.504	22265
863.636	22265
863.768	22234
863.9	22223
864.032	22192
864.164	22131
864.296	22188
864.428	22436
864.559	22379
864.691	22341
864.823	22306
864.954	22215
865.086	22154
865.217	22211
865.349	22109
865.48	22166
865.612	22177
865.743	22181
865.875	22044
866.006	22074
866.137	22147
866.269	22067
866.4	22112
866.531	21937
866.662	21941
866.793	22063
866.924	22128
867.055	22120
867.186	21991
867.317	22097
867.448	21964
867.579	22173
867.71	21960
867.841	21937
867.972	22128
868.103	22074
868.233	22090
868.364	21983
868.495	22131
868.625	22280
868.756	22329
868.886	22249
869.017	22238
869.147	22371
869.278	22382
869.408	22337
869.539	22280
869.669	22466
869.799	22413
869.929	22451
870.06	22466
870.19	22664
870.32	22455
870.45	22759
870.58	22729
870.71	22828
870.84	22694
870.97	22527
871.1	22641
871.23	22850
871.36	22923
871.489	22828
871.619	22812
871.749	22850
871.879	22923
872.008	22972
872.138	22869
872.267	22767
872.397	22805
872.526	22752
872.656	22782
872.785	22748
872.915	22961
873.044	22946
873.173	22946
873.303	22961
873.432	23079
873.561	23090
873.69	22812
873.819	22862
873.948	23174
874.077	23006
874.206	22850
874.335	22923
874.464	23052
874.593	23151
874.722	23090
874.851	23204
874.979	23220
875.108	23212
875.237	23159
875.365	23022
875.494	23052
875.623	23174
875.751	23102
875.88	23181
876.008	23311
876.136	23288
876.265	23463
876.393	23577
876.521	23608
876.65	23505
876.778	23490
876.906	23448
877.034	23531
877.162	23543
877.29	23455
877.418	23558
877.546	23334
877.674	23535
877.802	23277
877.93	23524
878.058	23376
878.185	23379
878.313	23448
878.441	23414
878.568	23341
878.696	23455
878.824	23573
878.951	23520
879.079	23493
879.206	23847
879.333	23707
879.461	23433
879.588	23566
879.715	23608
879.842	23691
879.97	23627
880.097	23284
880.224	23315
880.351	23379
880.478	23292
880.605	23227
880.732	23299
880.859	23554
880.986	23315
881.112	23345
881.239	23113
881.366	23014
881.493	22968
881.619	22858
881.746	22858
881.872	22934
881.999	22915
882.125	22816
882.252	22892
882.378	22854
882.505	22877
882.631	22660
882.757	22634
882.883	22546
883.01	22550
883.136	22451
883.262	22447
883.388	22405
883.514	22577
883.64	22649
883.766	22447
883.892	22280
884.018	22360
884.143	22436
884.269	22561
884.395	22314
884.52	22169
884.646	22325
884.772	22185
884.897	22025
885.023	22242
885.148	22192
885.274	22246
885.399	22219
885.524	22135
885.65	22230
885.775	22230
885.9	22173
886.025	22242
886.15	22112
886.275	22059
886.4	22105
886.525	22040
886.65	22101
886.775	21987
886.9	22287
887.025	22367
887.149	22128
887.274	21979
887.399	21918
887.523	21960
887.648	21922
887.773	21675
887.897	22048
888.021	21983
888.146	21915
888.27	22032
888.395	21987
888.519	22013
888.643	21972
888.767	21994
888.891	21873
889.015	21755
889.139	21717
889.263	21709
889.387	21819
889.511	21964
889.635	21876
889.759	21663
889.883	21682
890.006	21625
890.13	21861
890.254	21545
890.377	21606
890.501	21553
890.624	21329
890.748	21519
890.871	21393
890.995	21268
891.118	21020
891.241	21260
891.364	21230
891.488	21298
891.611	21317
891.734	21150
891.857	21359
891.98	21203
892.103	21367
892.226	21329
892.349	21085
892.471	21077
892.594	21249
892.717	21199
892.839	21207
892.962	21176
893.085	21203
893.207	21161
893.33	21062
893.452	21058
893.575	21256
893.697	21070
893.819	21237
893.941	21298
894.064	21249
894.186	21195
894.308	20929
894.43	21192
894.552	21199
894.674	21146
894.796	21089
894.918	21108
895.04	21112
895.161	21184
895.283	21165
895.405	21070
895.526	21123
895.648	21245
895.769	21131
895.891	21074
896.012	21085
896.134	21150
896.255	21081
896.376	21047
896.498	21142
896.619	21146
896.74	21070
896.861	21161
896.982	21435
897.103	21431
897.224	21351
897.345	21279
897.466	21192
897.587	21298
897.708	21500
897.828	21386
897.949	21264
898.07	21161
898.19	21340
898.311	21268
898.431	21306
898.552	21249
898.672	21382
898.792	21496
898.913	21279
899.033	21233
899.153	21074
899.273	21024
899.393	21112
899.513	21081
899.633	21104
899.753	21104
899.873	20979
899.993	21112
900.113	20975
900.232	20906
900.352	20998
900.472	20857
900.591	20754
900.711	20823
900.83	20735
900.95	20788
901.069	20883
901.189	20686
901.308	20522
901.427	20328
901.546	20370
901.665	20393
901.784	20484
901.904	20328
902.023	20138
902.141	19974
902.26	20020
902.379	19906
902.498	19871
902.617	19845
902.735	19830
902.854	19807
902.973	19776
903.091	19533
903.21	19411
903.328	19544
903.446	19476
903.565	19392
903.683	19365
903.801	19247
903.919	19213
904.038	19217
904.156	19126
904.274	19202
904.392	19061
904.51	19168
904.627	19103
904.745	19187
904.863	19164
904.981	18916
905.098	18810
905.216	18703
905.334	18772
905.451	18856
905.569	18707
905.686	18757
905.803	18749
905.921	18486
906.038	18707
906.155	18570
906.272	18380
906.389	18521
906.506	18353
906.623	18323
906.74	18353
906.857	18209
906.974	18110
907.091	18471
907.208	18251
907.324	18273
907.441	18197
907.557	18030
907.674	18057
907.79	17912
907.907	17836
908.023	18053
908.139	17927
908.256	17927
908.372	17935
908.488	17828
908.604	17756
908.72	17722
908.836	17714
908.952	17729
909.068	17672
909.184	17760
909.3	17695
909.415	17794
909.531	17653
909.647	17482
909.762	17448
909.878	17368
909.993	17463
910.108	17395
910.224	17372
910.339	17421
910.454	17254
910.57	17090
910.685	17033
910.8	17444
910.915	17368
911.03	17288
911.145	17033
911.259	16946
911.374	16972
911.489	16873
911.604	16866
911.718	16717
911.833	16759
911.947	16694
912.062	16611
912.176	16748
912.291	16706
912.405	16824
912.519	16900
912.633	16961
912.748	16729
912.862	16729
912.976	16497
913.09	16405
913.204	16508
913.318	16550
913.431	16592
913.545	16500
913.659	16626
913.772	16443
913.886	16436
914	16337
914.113	16424
914.226	16356
914.34	16390
914.453	16249
914.566	16325
914.68	16223
914.793	16154
914.906	16036
915.019	15930
915.132	15884
915.245	15930
915.358	15991
915.47	15895
915.583	15953
915.696	15972
915.809	16044
915.921	16109
916.034	15903
916.146	15831
916.259	15728
916.371	15876
916.483	15766
916.595	15694
916.708	15770
916.82	15709
916.932	15663
917.044	15606
917.156	15622
917.268	15545
917.38	15591
917.491	15492
917.603	15481
917.715	15663
917.826	15656
917.938	15523
918.049	15306
918.161	15485
918.272	15557
918.384	15618
918.495	15523
918.606	15249
918.717	15207
918.828	15275
918.939	15291
919.05	15150
919.161	15195
919.272	15020
919.383	15180
919.494	15264
919.604	15439
919.715	15176
919.826	15173
919.936	15138
920.047	15260
920.157	15188
920.267	15359
920.378	15306
920.488	15245
920.598	15272
920.708	15545
920.818	15336
920.928	15336
921.038	15511
921.148	15450
921.258	15142
921.368	15081
921.477	14887
921.587	14944
921.697	14941
921.806	14967
921.916	14743
922.025	14594
922.134	14556
922.244	14488
922.353	14575
922.462	14552
922.571	14488
922.68	14282
922.789	14202
922.898	14278
923.007	14180
923.116	14195
923.224	14119
923.333	14199
923.442	14126
923.55	13978
923.659	14111
923.767	14096
923.876	13944
923.984	14020
924.092	13913
924.201	13963
924.309	13871
924.417	13955
924.525	13913
924.633	13830
924.741	14769
924.849	13655
924.956	13849
925.064	13696
925.172	13601
925.279	13605
925.387	13514
925.494	13609
925.602	13757
925.709	13647
925.816	13506
925.924	13571
926.031	13636
926.138	13460
926.245	13571
926.352	13320
926.459	13571
926.566	13578
926.673	13377
926.779	13301
926.886	13293
926.993	13065
927.099	13244
927.206	13145
927.312	13122
927.419	13160
927.525	13080
927.631	13095
927.737	13004
927.843	13023
927.95	12840
928.056	13008
928.162	13012
928.267	12958
928.373	13578
928.479	12981
928.585	12738
928.69	12875
928.796	12970
928.901	12852
929.007	12673
929.112	12700
929.218	12673
929.323	12639
929.428	12642
929.533	12783
929.638	12616
929.743	12555
929.848	12681
929.953	12635
930.058	12483
930.163	12342
930.267	12308
930.372	12433
930.477	12315
930.581	12426
930.685	12353
930.79	12194
930.894	12201
930.998	12167
931.103	12292
931.207	11859
931.311	11840
931.415	11764
931.519	11573
931.623	11573
