Data from test_V78500241_555.txt Node
Date: Fri Mar 25 15:45:38 CST 2022
User: usil
Spectrometer: V785-0024
Trigger mode: 0
Integration Time (sec): 4.000000E-1
Scans to average: 1
Nonlinearity correction enabled: false
Boxcar width: 0
Storing dark spectrum: false
XAxis mode: Wavelengths
Number of Pixels in Spectrum: 1024
>>>>>Begin Spectral Data<<<<<
801.071	27378
801.214	27291
801.356	27039
801.499	27093
801.641	26914
801.783	26921
801.926	27180
802.068	26948
802.211	26804
802.353	26697
802.496	26648
802.638	26644
802.78	26617
802.923	26617
803.065	26469
803.208	26537
803.35	26583
803.492	26667
803.635	26689
803.777	26674
803.919	26750
804.061	26940
804.204	26705
804.346	26697
804.488	26431
804.63	26739
804.773	26735
804.915	26693
805.057	26940
805.199	26739
805.341	26800
805.483	26705
805.626	26792
805.768	26773
805.91	26815
806.052	26849
806.194	26811
806.336	27055
806.478	26800
806.62	26857
806.762	26979
806.904	27184
807.046	27416
807.188	27214
807.33	27291
807.472	27298
807.614	27195
807.756	27108
807.898	26940
808.04	27131
808.182	26963
808.324	27020
808.465	27233
808.607	27332
808.749	27393
808.891	27701
809.033	27682
809.174	27553
809.316	27477
809.458	27458
809.6	27450
809.741	27553
809.883	27705
810.025	27724
810.166	27641
810.308	27701
810.45	27682
810.591	27652
810.733	27511
810.875	27515
811.016	27397
811.158	27332
811.299	27694
811.441	27755
811.582	27583
811.724	27397
811.865	27424
812.007	27336
812.148	27351
812.29	27382
812.431	27583
812.573	27842
812.714	27850
812.855	28010
812.997	28048
813.138	28166
813.279	27983
813.421	27960
813.562	27914
813.703	27816
813.845	27583
813.986	27454
814.127	27119
814.268	27108
814.41	27100
814.551	26998
814.692	27135
814.833	27005
814.974	27051
815.115	27089
815.256	26918
815.397	26990
815.539	27020
815.68	27062
815.821	26785
815.962	27001
816.103	26842
816.244	26796
816.385	26773
816.526	26636
816.666	26537
816.807	26488
816.948	26537
817.089	26552
817.23	26457
817.371	26465
817.512	26362
817.653	26320
817.793	26278
817.934	26370
818.075	26313
818.216	26336
818.356	26294
818.497	26298
818.638	26035
818.778	26218
818.919	26062
819.06	26313
819.2	26221
819.341	26355
819.481	26396
819.622	26598
819.762	26651
819.903	26716
820.043	26552
820.184	26537
820.324	26419
820.465	26568
820.605	26473
820.746	26396
820.886	26419
821.026	26389
821.167	26324
821.307	26533
821.447	26286
821.588	26259
821.728	26229
821.868	26073
822.008	25913
822.149	25875
822.289	25852
822.429	25620
822.569	25483
822.709	25613
822.849	25510
822.99	25411
823.13	25228
823.27	25369
823.41	25236
823.55	25000
823.69	25187
823.83	25137
823.97	25168
824.11	25076
824.25	24932
824.389	25042
824.529	24996
824.669	25099
824.809	25168
824.949	25076
825.089	25110
825.228	24989
825.368	24795
825.508	24772
825.648	24814
825.787	24920
825.927	24981
826.067	24753
826.206	24916
826.346	24928
826.485	24932
826.625	24894
826.765	25004
826.904	24932
827.044	24661
827.183	24688
827.323	24410
827.462	24623
827.601	24532
827.741	24544
827.88	24593
828.02	24403
828.159	24494
828.298	24502
828.437	24673
828.577	24517
828.716	24536
828.855	24342
828.994	24422
829.134	24235
829.273	24171
829.412	24323
829.551	24232
829.69	24239
829.829	24167
829.968	24296
830.107	24365
830.246	24258
830.385	24289
830.524	24167
830.663	24083
830.802	23984
830.941	23901
831.08	23714
831.219	23904
831.357	23828
831.496	23973
831.635	23840
831.774	23752
831.913	23684
832.051	23714
832.19	23577
832.329	23585
832.467	23619
832.606	23547
832.744	23516
832.883	23471
833.022	23474
833.16	23512
833.299	23528
833.437	23520
833.576	23528
833.714	23535
833.852	23619
833.991	23600
834.129	23821
834.267	23726
834.406	23539
834.544	23604
834.682	23566
834.821	23524
834.959	23802
835.097	23452
835.235	23585
835.373	23478
835.511	23566
835.65	23528
835.788	23410
835.926	23292
836.064	23212
836.202	23235
836.34	23440
836.478	23429
836.615	23326
836.753	23448
836.891	23592
837.029	23417
837.167	23330
837.305	23284
837.443	23250
837.58	23162
837.718	23303
837.856	23189
837.993	23197
838.131	23311
838.269	23094
838.406	23239
838.544	23121
838.681	22858
838.819	22835
838.956	22725
839.094	22683
839.231	22721
839.369	22896
839.506	23147
839.643	23064
839.781	22767
839.918	22706
840.055	22733
840.193	22691
840.33	22706
840.467	22691
840.604	22702
840.742	22976
840.879	22516
841.016	22626
841.153	22512
841.29	22729
841.427	22782
841.564	22733
841.701	22516
841.838	22527
841.975	22474
842.112	22523
842.249	22367
842.385	22451
842.522	22717
842.659	22573
842.796	22390
842.933	22390
843.069	22432
843.206	22325
843.343	22432
843.479	22500
843.616	22478
843.752	22230
843.889	22112
844.025	22337
844.162	22135
844.298	22291
844.435	22112
844.571	22074
844.708	22249
844.844	22265
844.98	22344
845.117	22310
845.253	22200
845.389	22013
845.525	22032
845.661	22105
845.798	21861
845.934	22029
846.07	21888
846.206	22010
846.342	21972
846.478	21979
846.614	21831
846.75	21568
846.886	21637
847.022	21774
847.158	21713
847.294	21644
847.429	21698
847.565	21633
847.701	21884
847.837	21428
847.972	21386
848.108	21564
848.244	21507
848.379	21321
848.515	21294
848.65	21268
848.786	21260
848.921	21203
849.057	21393
849.192	21469
849.328	21135
849.463	21237
849.598	21135
849.734	21176
849.869	21062
850.004	21047
850.14	20952
850.275	21077
850.41	20933
850.545	20857
850.68	20994
850.815	21169
850.95	20937
851.085	21264
851.22	21135
851.355	21020
851.49	21028
851.625	20971
851.76	21009
851.895	20952
852.03	20967
852.165	20952
852.299	21123
852.434	21161
852.569	21116
852.703	20937
852.838	21039
852.973	21108
853.107	21112
853.242	20963
853.376	20788
853.511	20834
853.645	20735
853.78	20967
853.914	20857
854.048	20811
854.183	20823
854.317	20804
854.451	20883
854.585	20735
854.72	20887
854.854	20876
854.988	20819
855.122	20842
855.256	20712
855.39	20781
855.524	20868
855.658	20921
855.792	20834
855.926	20762
856.06	20838
856.194	20910
856.327	20819
856.461	20910
856.595	20697
856.729	20758
856.862	20887
856.996	20872
857.13	20929
857.263	20933
857.397	20967
857.53	20842
857.664	20788
857.797	20891
857.931	20982
858.064	20849
858.197	20982
858.331	20876
858.464	20644
858.597	20640
858.731	20842
858.864	20796
858.997	20918
859.13	20925
859.263	20834
859.396	20876
859.529	20689
859.662	20819
859.795	20819
859.928	20800
860.061	21005
860.194	20967
860.327	20880
860.46	20864
860.592	20952
860.725	20948
860.858	21032
860.99	20800
861.123	20815
861.256	20743
861.388	20838
861.521	21275
861.653	20705
861.786	20674
861.918	20724
862.05	20678
862.183	20785
862.315	20781
862.447	20754
862.58	20853
862.712	20530
862.844	20499
862.976	20655
863.108	20629
863.24	20986
863.372	20507
863.504	20655
863.636	20556
863.768	20636
863.9	20484
864.032	20484
864.164	20537
864.296	20541
864.428	20655
864.559	20651
864.691	20689
864.823	20579
864.954	20674
865.086	20533
865.217	20374
865.349	20499
865.48	20415
865.612	20571
865.743	20526
865.875	20427
866.006	20423
866.137	20434
866.269	20465
866.4	20419
866.531	20473
866.662	20377
866.793	20427
866.924	20298
867.055	20522
867.186	20423
867.317	20351
867.448	20370
867.579	20400
867.71	20355
867.841	20389
867.972	20362
868.103	20408
868.233	20221
868.364	20381
868.495	20492
868.625	20609
868.756	20708
868.886	20629
869.017	20640
869.147	20754
869.278	20689
869.408	20568
869.539	20716
869.669	20777
869.799	20590
869.929	20648
870.06	20758
870.19	20796
870.32	20948
870.45	20906
870.58	20960
870.71	21207
870.84	21146
870.97	20948
871.1	21108
871.23	21256
871.36	21199
871.489	21085
871.619	21116
871.749	21184
871.879	21222
872.008	21260
872.138	21226
872.267	21226
872.397	21108
872.526	21058
872.656	20914
872.785	21013
872.915	21283
873.044	21230
873.173	21214
873.303	21279
873.432	21321
873.561	21272
873.69	21268
873.819	21195
873.948	21367
874.077	21260
874.206	21096
874.335	21241
874.464	21374
874.593	21595
874.722	21450
874.851	21572
874.979	21515
875.108	21492
875.237	21302
875.365	21370
875.494	21447
875.623	21538
875.751	21405
875.88	21599
876.008	21644
876.136	21720
876.265	21762
876.393	21899
876.521	21854
876.65	22002
876.778	21956
876.906	21812
877.034	21793
877.162	21808
877.29	21739
877.418	21884
877.546	21907
877.674	21956
877.802	21918
877.93	21751
878.058	21724
878.185	21709
878.313	21736
878.441	21865
878.568	21564
878.696	21816
878.824	21934
878.951	21831
879.079	22086
879.206	22192
879.333	21972
879.461	21873
879.588	21968
879.715	22143
879.842	22120
879.97	21911
880.097	21671
880.224	21603
880.351	21732
880.478	21610
880.605	21587
880.732	21648
880.859	21888
880.986	21595
881.112	21701
881.239	21580
881.366	21313
881.493	21340
881.619	21252
881.746	21233
881.872	21302
881.999	21306
882.125	21230
882.252	21291
882.378	21241
882.505	21241
882.631	21066
882.757	21051
882.883	21066
883.01	21020
883.136	20883
883.262	20845
883.388	20746
883.514	20868
883.64	20864
883.766	20826
883.892	20663
884.018	20781
884.143	20872
884.269	20883
884.395	20674
884.52	20636
884.646	20739
884.772	20473
884.897	20484
885.023	20579
885.148	20629
885.274	20663
885.399	20693
885.524	20556
885.65	20590
885.775	20545
885.9	20583
886.025	20651
886.15	20606
886.275	20587
886.4	20556
886.525	20530
886.65	20545
886.775	20514
886.9	20590
887.025	20811
887.149	20598
887.274	20389
887.399	20442
887.523	20446
887.648	20438
887.773	20214
887.897	20396
888.021	20324
888.146	20313
888.27	20469
888.395	20511
888.519	20355
888.643	20358
888.767	20415
888.891	20298
889.015	20210
889.139	20183
889.263	20145
889.387	20256
889.511	20381
889.635	20221
889.759	20320
889.883	20153
890.006	20153
890.13	20332
890.254	19974
890.377	20069
890.501	19944
890.624	19849
890.748	19928
890.871	19723
890.995	19761
891.118	19624
891.241	19704
891.364	19715
891.488	19841
891.611	19746
891.734	19811
891.857	19845
891.98	19818
892.103	19841
892.226	19681
892.349	19769
892.471	19510
892.594	19655
892.717	19822
892.839	19632
892.962	19700
893.085	19658
893.207	19537
893.33	19487
893.452	19483
893.575	19734
893.697	19556
893.819	19696
893.941	19883
894.064	19807
894.186	19708
894.308	19578
894.43	19723
894.552	19750
894.674	19753
894.796	19647
894.918	19753
895.04	19662
895.161	19670
895.283	19635
895.405	19552
895.526	19616
895.648	19628
895.769	19681
895.891	19677
896.012	19757
896.134	19765
896.255	19712
896.376	19635
896.498	19635
896.619	19742
896.74	19632
896.861	19712
896.982	20069
897.103	20050
897.224	19997
897.345	19940
897.466	19864
897.587	19967
897.708	20005
897.828	20046
897.949	19822
898.07	19677
898.19	19814
898.311	19925
898.431	19845
898.552	19833
898.672	19932
898.792	19909
898.913	19978
899.033	19860
899.153	19757
899.273	19597
899.393	19655
899.513	19597
899.633	19761
899.753	19746
899.873	19628
899.993	19674
900.113	19719
900.232	19658
900.352	19556
900.472	19632
900.591	19346
900.711	19521
900.83	19407
900.95	19476
901.069	19605
901.189	19297
901.308	19171
901.427	18993
901.546	19038
901.665	18993
901.784	19053
901.904	19004
902.023	18795
902.141	18612
902.26	18513
902.379	18730
902.498	18669
902.617	18536
902.735	18566
902.854	18559
902.973	18418
903.091	18235
903.21	18239
903.328	18186
903.446	18121
903.565	17996
903.683	18064
903.801	17904
903.919	18015
904.038	17946
904.156	17882
904.274	17836
904.392	17821
904.51	17771
904.627	17813
904.745	17935
904.863	17840
904.981	17649
905.098	17398
905.216	17547
905.334	17505
905.451	17558
905.569	17425
905.686	17551
905.803	17448
905.921	17318
906.038	17421
906.155	17353
906.272	17216
906.389	17261
906.506	16980
906.623	17033
906.74	17025
906.857	16820
906.974	16961
907.091	17041
907.208	17136
907.324	17075
907.441	16862
907.557	16725
907.674	16744
907.79	16664
907.907	16820
908.023	16752
908.139	16687
908.256	16675
908.372	16599
908.488	16599
908.604	16527
908.72	16421
908.836	16424
908.952	16478
909.068	16512
909.184	16607
909.3	16451
909.415	16462
909.531	16337
909.647	16215
909.762	16226
909.878	16135
909.993	16173
910.108	16143
910.224	16036
910.339	16109
910.454	15994
910.57	16006
910.685	15831
910.8	16131
910.915	16139
911.03	16013
911.145	15846
911.259	15789
911.374	15770
911.489	15728
911.604	15641
911.718	15564
911.833	15633
911.947	15507
912.062	15469
912.176	15534
912.291	15538
912.405	15580
912.519	15705
912.633	15705
912.748	15564
912.862	15397
912.976	15302
913.09	15264
913.204	15264
913.318	15260
913.431	15420
913.545	15424
913.659	15431
913.772	15237
913.886	15127
914	15150
914.113	15199
914.226	15207
914.34	15135
914.453	15047
914.566	15283
914.68	15112
914.793	15138
914.906	14788
915.019	14739
915.132	14746
915.245	14845
915.358	14754
915.47	14819
915.583	14731
915.696	14758
915.809	14880
915.921	14883
916.034	14754
916.146	14640
916.259	14750
916.371	14716
916.483	14773
916.595	14640
916.708	14648
916.82	14552
916.932	14575
917.044	14442
917.156	14560
917.268	14488
917.38	14469
917.491	14412
917.603	14457
917.715	14583
917.826	14484
917.938	14393
918.049	14301
918.161	14408
918.272	14377
918.384	14461
918.495	14328
918.606	14278
918.717	14069
918.828	14294
918.939	14111
919.05	14020
919.161	14191
919.272	13898
919.383	14081
919.494	14199
919.604	14431
919.715	14225
919.826	14126
919.936	14164
920.047	14237
920.157	14202
920.267	14408
920.378	14145
920.488	14317
920.598	14309
920.708	14518
920.818	14229
920.928	14275
921.038	14469
921.148	14400
921.258	14100
921.368	14035
921.477	13913
921.587	13947
921.697	13818
921.806	13921
921.916	13738
922.025	13552
922.134	13670
922.244	13590
922.353	13643
922.462	13491
922.571	13350
922.68	13274
922.789	13221
922.898	13152
923.007	13251
923.116	13244
923.224	13171
923.333	13149
923.442	13057
923.55	13023
923.659	13061
923.767	13042
923.876	12977
923.984	13065
924.092	12939
924.201	12966
924.309	12920
924.417	12951
924.525	12837
924.633	12905
924.741	13909
924.849	12730
924.956	12791
925.064	12673
925.172	12528
925.279	12627
925.387	12635
925.494	12673
925.602	12722
925.709	12692
925.816	12547
925.924	12578
926.031	12654
926.138	12608
926.245	12665
926.352	12441
926.459	12547
926.566	12639
926.673	12528
926.779	12334
926.886	12380
926.993	12220
927.099	12281
927.206	12133
927.312	12129
927.419	12300
927.525	12197
927.631	12285
927.737	12114
927.843	12129
927.95	11984
928.056	12045
928.162	12098
928.267	12091
928.373	12681
928.479	12178
928.585	11809
928.69	12015
928.796	12068
928.901	11950
929.007	11802
929.112	11885
929.218	11904
929.323	11885
929.428	11779
929.533	11939
929.638	11783
929.743	11764
929.848	11870
929.953	11767
930.058	11691
930.163	11554
930.267	11520
930.372	11752
930.477	11520
930.581	11741
930.685	11615
930.79	11474
930.894	11448
930.998	11288
931.103	11395
931.207	11178
931.311	11136
931.415	10991
931.519	10790
931.623	10740
