Data from test_V78500241_3335.txt Node
Date: Fri Mar 25 16:04:54 CST 2022
User: usil
Spectrometer: V785-0024
Trigger mode: 0
Integration Time (sec): 4.000000E-1
Scans to average: 1
Nonlinearity correction enabled: false
Boxcar width: 0
Storing dark spectrum: false
XAxis mode: Wavelengths
Number of Pixels in Spectrum: 1024
>>>>>Begin Spectral Data<<<<<
801.071	28493
801.214	28550
801.356	28310
801.499	28272
801.641	28162
801.783	28207
801.926	28329
802.068	28177
802.211	28120
802.353	28032
802.496	27846
802.638	27804
802.78	27778
802.923	27850
803.065	27625
803.208	27633
803.35	27911
803.492	28074
803.635	27835
803.777	28048
803.919	27991
804.061	28409
804.204	28006
804.346	28090
804.488	28067
804.63	28074
804.773	27937
804.915	27991
805.057	28192
805.199	28021
805.341	28192
805.483	28253
805.626	28181
805.768	28128
805.91	28162
806.052	28382
806.194	28223
806.336	28478
806.478	28333
806.62	28226
806.762	28314
806.904	28421
807.046	28809
807.188	28774
807.33	28599
807.472	28717
807.614	28679
807.756	28653
807.898	28466
808.04	28527
808.182	28527
808.324	28554
808.465	28580
808.607	28927
808.749	28953
808.891	28843
809.033	29006
809.174	28930
809.316	28793
809.458	28995
809.6	28835
809.741	28949
809.883	29083
810.025	29303
810.166	29197
810.308	29060
810.45	29098
810.591	29079
810.733	29056
810.875	28957
811.016	28904
811.158	28721
811.299	29044
811.441	29041
811.582	29083
811.724	28866
811.865	28900
812.007	28968
812.148	28805
812.29	28961
812.431	29064
812.573	29174
812.714	29311
812.855	29433
812.997	29452
813.138	29665
813.279	29581
813.421	29368
813.562	29395
813.703	29269
813.845	29105
813.986	28957
814.127	28691
814.268	28733
814.41	28557
814.551	28618
814.692	28805
814.833	28630
814.974	28466
815.115	28630
815.256	28538
815.397	28409
815.539	28421
815.68	28523
815.821	28303
815.962	28413
816.103	28447
816.244	28451
816.385	28299
816.526	28173
816.666	28105
816.807	27972
816.948	28002
817.089	28147
817.23	27994
817.371	28006
817.512	28040
817.653	27899
817.793	27972
817.934	27945
818.075	27903
818.216	27880
818.356	27873
818.497	27911
818.638	27827
818.778	27739
818.919	27686
819.06	27739
819.2	27797
819.341	27861
819.481	27880
819.622	28067
819.762	28363
819.903	28131
820.043	28223
820.184	28109
820.324	28139
820.465	28276
820.605	28116
820.746	28002
820.886	27968
821.026	28090
821.167	27907
821.307	28116
821.447	27873
821.588	27911
821.728	27747
821.868	27652
822.008	27523
822.149	27507
822.289	27477
822.429	27195
822.569	27058
822.709	27138
822.849	26994
822.99	26815
823.13	26792
823.27	26807
823.41	26800
823.55	26575
823.69	26796
823.83	26720
823.97	26800
824.11	26575
824.25	26404
824.389	26556
824.529	26594
824.669	26579
824.809	26689
824.949	26674
825.089	26644
825.228	26575
825.368	26446
825.508	26518
825.648	26362
825.787	26450
825.927	26507
826.067	26476
826.206	26465
826.346	26537
826.485	26495
826.625	26549
826.765	26556
826.904	26370
827.044	26180
827.183	26187
827.323	26161
827.462	26275
827.601	26161
827.741	26107
827.88	26278
828.02	26240
828.159	26240
828.298	26088
828.437	26347
828.577	26153
828.716	26195
828.855	25959
828.994	25955
829.134	25947
829.273	25894
829.412	25833
829.551	25757
829.69	25841
829.829	25731
829.968	25894
830.107	25906
830.246	25799
830.385	25651
830.524	25727
830.663	25624
830.802	25597
830.941	25422
831.08	25415
831.219	25666
831.357	25582
831.496	25750
831.635	25407
831.774	25472
831.913	25350
832.051	25301
832.19	25209
832.329	25312
832.467	25293
832.606	25103
832.744	24996
832.883	25126
833.022	25088
833.16	25114
833.299	25247
833.437	25183
833.576	25137
833.714	25308
833.852	25270
833.991	25232
834.129	25285
834.267	25213
834.406	25187
834.544	25168
834.682	25183
834.821	25088
834.959	25343
835.097	25206
835.235	25232
835.373	25084
835.511	25107
835.65	25050
835.788	25080
835.926	24928
836.064	24837
836.202	24852
836.34	25069
836.478	25034
836.615	25004
836.753	25129
836.891	25110
837.029	24875
837.167	24954
837.305	24947
837.443	24992
837.58	24943
837.718	24920
837.856	24878
837.993	24791
838.131	24905
838.269	24749
838.406	24779
838.544	24681
838.681	24566
838.819	24437
838.956	24338
839.094	24186
839.231	24315
839.369	24574
839.506	24848
839.643	24631
839.781	24235
839.918	24330
840.055	24281
840.193	24285
840.33	24228
840.467	24300
840.604	24251
840.742	24498
840.879	24182
841.016	24076
841.153	24079
841.29	24330
841.427	24098
841.564	24330
841.701	24247
841.838	24106
841.975	24163
842.112	24049
842.249	24117
842.385	24060
842.522	24251
842.659	24140
842.796	23999
842.933	23920
843.069	23954
843.206	23946
843.343	24068
843.479	23912
843.616	23958
843.752	23786
843.889	23764
844.025	23904
844.162	23767
844.298	23828
844.435	23802
844.571	23733
844.708	23741
844.844	23859
844.98	23939
845.117	23813
845.253	23623
845.389	23581
845.525	23535
845.661	23577
845.798	23455
845.934	23482
846.07	23608
846.206	23520
846.342	23649
846.478	23566
846.614	23410
846.75	23307
846.886	23189
847.022	23284
847.158	23429
847.294	23200
847.429	23280
847.565	23140
847.701	23429
847.837	22927
847.972	22999
848.108	23025
848.244	23010
848.379	22911
848.515	22793
848.65	22771
848.786	22660
848.921	22877
849.057	22965
849.192	22938
849.328	22847
849.463	22904
849.598	22782
849.734	22660
849.869	22527
850.004	22500
850.14	22542
850.275	22561
850.41	22500
850.545	22516
850.68	22615
850.815	22675
850.95	22531
851.085	22675
851.22	22717
851.355	22645
851.49	22516
851.625	22557
851.76	22497
851.895	22306
852.03	22440
852.165	22500
852.299	22603
852.434	22603
852.569	22573
852.703	22485
852.838	22637
852.973	22615
853.107	22630
853.242	22481
853.376	22386
853.511	22257
853.645	22287
853.78	22402
853.914	22436
854.048	22318
854.183	22303
854.317	22356
854.451	22512
854.585	22375
854.72	22325
854.854	22447
854.988	22329
855.122	22440
855.256	22253
855.39	22375
855.524	22436
855.658	22363
855.792	22382
855.926	22363
856.06	22577
856.194	22500
856.327	22314
856.461	22371
856.595	22287
856.729	22333
856.862	22500
856.996	22466
857.13	22504
857.263	22367
857.397	22459
857.53	22348
857.664	22538
857.797	22489
857.931	22360
858.064	22363
858.197	22481
858.331	22421
858.464	22379
858.597	22261
858.731	22398
858.864	22333
858.997	22390
859.13	22352
859.263	22379
859.396	22428
859.529	22466
859.662	22284
859.795	22303
859.928	22417
860.061	22607
860.194	22500
860.327	22485
860.46	22337
860.592	22542
860.725	22531
860.858	22478
860.99	22424
861.123	22344
861.256	22204
861.388	22360
861.521	23090
861.653	22124
861.786	22188
861.918	22265
862.05	22242
862.183	22234
862.315	22261
862.447	22375
862.58	22230
862.712	22097
862.844	21960
862.976	22139
863.108	22150
863.24	22615
863.372	22036
863.504	22032
863.636	22055
863.768	22128
863.9	22166
864.032	22055
864.164	22010
864.296	22200
864.428	22234
864.559	22169
864.691	22242
864.823	22101
864.954	22044
865.086	21937
865.217	22074
865.349	21857
865.48	22036
865.612	22010
865.743	22044
865.875	21903
866.006	21991
866.137	21994
866.269	21941
866.4	21975
866.531	21774
866.662	21827
866.793	21808
866.924	21918
867.055	21915
867.186	21979
867.317	21854
867.448	21861
867.579	21937
867.71	21842
867.841	21701
867.972	21953
868.103	21717
868.233	21922
868.364	21930
868.495	21998
868.625	22166
868.756	22207
868.886	22093
869.017	22101
869.147	22192
869.278	22246
869.408	22234
869.539	22158
869.669	22238
869.799	22173
869.929	22272
870.06	22230
870.19	22379
870.32	22413
870.45	22485
870.58	22649
870.71	22519
870.84	22611
870.97	22424
871.1	22607
871.23	22786
871.36	22771
871.489	22569
871.619	22694
871.749	22759
871.879	22778
872.008	22839
872.138	22767
872.267	22721
872.397	22634
872.526	22527
872.656	22531
872.785	22542
872.915	22805
873.044	22927
873.173	22744
873.303	22710
873.432	22820
873.561	22908
873.69	22744
873.819	22672
873.948	22744
874.077	22755
874.206	22660
874.335	22672
874.464	22763
874.593	22915
874.722	22923
874.851	23083
874.979	23060
875.108	23067
875.237	22911
875.365	22896
875.494	22957
875.623	22889
875.751	22934
875.88	23022
876.008	23105
876.136	23185
876.265	23383
876.393	23463
876.521	23414
876.65	23345
876.778	23318
876.906	23368
877.034	23166
877.162	23311
877.29	23200
877.418	23398
877.546	23296
877.674	23345
877.802	23330
877.93	23433
878.058	23239
878.185	23208
878.313	23261
878.441	23212
878.568	23166
878.696	23220
878.824	23353
878.951	23368
879.079	23501
879.206	23539
879.333	23467
879.461	23349
879.588	23353
879.715	23528
879.842	23558
879.97	23356
880.097	23105
880.224	23075
880.351	23197
880.478	23159
880.605	23113
880.732	23086
880.859	23429
880.986	23159
881.112	23178
881.239	23075
881.366	22892
881.493	22824
881.619	22748
881.746	22668
881.872	22740
881.999	22767
882.125	22596
882.252	22641
882.378	22713
882.505	22797
882.631	22554
882.757	22341
882.883	22500
883.01	22382
883.136	22306
883.262	22116
883.388	22295
883.514	22356
883.64	22379
883.766	22268
883.892	22249
884.018	22200
884.143	22268
884.269	22405
884.395	22150
884.52	22097
884.646	22044
884.772	21930
884.897	22059
885.023	22010
885.148	22131
885.274	22082
885.399	22154
885.524	22055
885.65	22063
885.775	21979
885.9	22021
886.025	21991
886.15	21998
886.275	21998
886.4	21911
886.525	22051
886.65	21934
886.775	21956
886.9	22013
887.025	22124
887.149	21926
887.274	21838
887.399	21690
887.523	21766
887.648	21724
887.773	21644
887.897	21770
888.021	21747
888.146	21781
888.27	21785
888.395	21823
888.519	21842
888.643	21774
888.767	21789
888.891	21686
889.015	21675
889.139	21606
889.263	21568
889.387	21759
889.511	21781
889.635	21663
889.759	21614
889.883	21458
890.006	21485
890.13	21622
890.254	21408
890.377	21450
890.501	21291
890.624	21226
890.748	21203
890.871	21112
890.995	21154
891.118	21074
891.241	21100
891.364	21108
891.488	21207
891.611	21150
891.734	21169
891.857	21043
891.98	20963
892.103	21116
892.226	21180
892.349	21104
892.471	20925
892.594	21066
892.717	20990
892.839	21020
892.962	21028
893.085	21116
893.207	21032
893.33	20971
893.452	20941
893.575	21055
893.697	20952
893.819	21218
893.941	21123
894.064	21058
894.186	20933
894.308	20891
894.43	20990
894.552	21039
894.674	21138
894.796	20857
894.918	21116
895.04	21085
895.161	21017
895.283	21085
895.405	20971
895.526	20975
895.648	21028
895.769	20979
895.891	20990
896.012	21096
896.134	21047
896.255	20948
896.376	20902
896.498	21062
896.619	20902
896.74	21009
896.861	21017
896.982	21264
897.103	21454
897.224	21108
897.345	21233
897.466	21146
897.587	21199
897.708	21291
897.828	21287
897.949	21062
898.07	21081
898.19	21013
898.311	21169
898.431	21138
898.552	21154
898.672	21195
898.792	21222
898.913	21108
899.033	21161
899.153	21013
899.273	20891
899.393	20963
899.513	20952
899.633	20956
899.753	20868
899.873	20769
899.993	20876
900.113	20910
900.232	20777
900.352	20857
900.472	20731
900.591	20655
900.711	20739
900.83	20541
900.95	20777
901.069	20716
901.189	20552
901.308	20385
901.427	20237
901.546	20309
901.665	20259
901.784	20309
901.904	20130
902.023	20020
902.141	19890
902.26	19776
902.379	19864
902.498	19761
902.617	19742
902.735	19746
902.854	19693
902.973	19582
903.091	19365
903.21	19441
903.328	19426
903.446	19244
903.565	19251
903.683	19103
903.801	19023
903.919	19244
904.038	19213
904.156	18916
904.274	19110
904.392	18924
904.51	18951
904.627	18833
904.745	18935
904.863	18966
904.981	18795
905.098	18589
905.216	18612
905.334	18616
905.451	18642
905.569	18604
905.686	18589
905.803	18726
905.921	18361
906.038	18532
906.155	18369
906.272	18308
906.389	18266
906.506	18205
906.623	18251
906.74	18194
906.857	17999
906.974	18068
907.091	18220
907.208	18270
907.324	18201
907.441	18049
907.557	17866
907.674	17920
907.79	17889
907.907	17847
908.023	17923
908.139	17897
908.256	17843
908.372	17775
908.488	17691
908.604	17665
908.72	17539
908.836	17646
908.952	17619
909.068	17623
909.184	17600
909.3	17528
909.415	17566
909.531	17604
909.647	17376
909.762	17296
909.878	17155
909.993	17181
910.108	17269
910.224	17200
910.339	17174
910.454	17239
910.57	17064
910.685	17071
910.8	17318
910.915	17220
911.03	17113
911.145	16972
911.259	16896
911.374	16847
911.489	16904
911.604	16679
911.718	16622
911.833	16660
911.947	16470
912.062	16459
912.176	16653
912.291	16645
912.405	16550
912.519	16908
912.633	16706
912.748	16588
912.862	16687
912.976	16394
913.09	16333
913.204	16329
913.318	16367
913.431	16550
913.545	16451
913.659	16447
913.772	16303
913.886	16185
914	16162
914.113	16249
914.226	16356
914.34	16325
914.453	16128
914.566	16230
914.68	16143
914.793	16093
914.906	15838
915.019	15922
915.132	15770
915.245	15816
915.358	15747
915.47	15797
915.583	15808
915.696	15827
915.809	15873
915.921	15861
916.034	15743
916.146	15633
916.259	15705
916.371	15808
916.483	15762
916.595	15595
916.708	15576
916.82	15538
916.932	15545
917.044	15542
917.156	15625
917.268	15389
917.38	15412
917.491	15302
917.603	15386
917.715	15496
917.826	15561
917.938	15405
918.049	15237
918.161	15291
918.272	15473
918.384	15462
918.495	15336
918.606	15188
918.717	15138
918.828	15112
918.939	15093
919.05	15097
919.161	15104
919.272	14910
919.383	14994
919.494	15264
919.604	15332
919.715	15104
919.826	15036
919.936	15112
920.047	15241
920.157	15104
920.267	15264
920.378	15104
920.488	15055
920.598	15287
920.708	15370
920.818	15222
920.928	15180
921.038	15420
921.148	15386
921.258	14979
921.368	14925
921.477	14781
921.587	14800
921.697	14769
921.806	14819
921.916	14731
922.025	14594
922.134	14431
922.244	14400
922.353	14461
922.462	14419
922.571	14267
922.68	14142
922.789	14145
922.898	14130
923.007	14043
923.116	14130
923.224	14054
923.333	14065
923.442	13917
923.55	13936
923.659	13986
923.767	14027
923.876	13894
923.984	13913
924.092	13795
924.201	13822
924.309	13841
924.417	13898
924.525	13750
924.633	13734
924.741	14640
924.849	13487
924.956	13674
925.064	13609
925.172	13537
925.279	13468
925.387	13590
925.494	13506
925.602	13677
925.709	13445
925.816	13384
925.924	13460
926.031	13540
926.138	13377
926.245	13506
926.352	13289
926.459	13540
926.566	13521
926.673	13396
926.779	13175
926.886	13183
926.993	13133
927.099	13084
927.206	12993
927.312	12951
927.419	13008
927.525	13053
927.631	13080
927.737	12943
927.843	12886
927.95	12806
928.056	12856
928.162	12897
928.267	12973
928.373	13445
928.479	12973
928.585	12646
928.69	12764
928.796	12779
928.901	12707
929.007	12525
929.112	12738
929.218	12703
929.323	12608
929.428	12544
929.533	12681
929.638	12536
929.743	12574
929.848	12585
929.953	12517
930.058	12353
930.163	12243
930.267	12254
930.372	12369
930.477	12216
930.581	12334
930.685	12327
930.79	12049
930.894	12083
930.998	12106
931.103	12209
931.207	11889
931.311	11783
931.415	11733
931.519	11566
931.623	11417
