Data from test_V78500241_3462.txt Node
Date: Fri Mar 25 16:05:47 CST 2022
User: usil
Spectrometer: V785-0024
Trigger mode: 0
Integration Time (sec): 4.000000E-1
Scans to average: 1
Nonlinearity correction enabled: false
Boxcar width: 0
Storing dark spectrum: false
XAxis mode: Wavelengths
Number of Pixels in Spectrum: 1024
>>>>>Begin Spectral Data<<<<<
801.071	28911
801.214	28740
801.356	28546
801.499	28519
801.641	28436
801.783	28424
801.926	28485
802.068	28523
802.211	28466
802.353	28413
802.496	28242
802.638	28333
802.78	28131
802.923	28090
803.065	28158
803.208	28082
803.35	28135
803.492	28295
803.635	28352
803.777	28318
803.919	28352
804.061	28755
804.204	28470
804.346	28322
804.488	28253
804.63	28382
804.773	28329
804.915	28428
805.057	28622
805.199	28519
805.341	28573
805.483	28771
805.626	28649
805.768	28424
805.91	28592
806.052	28626
806.194	28523
806.336	28577
806.478	28554
806.62	28660
806.762	28771
806.904	29003
807.046	29185
807.188	29174
807.33	29056
807.472	29204
807.614	29109
807.756	28980
807.898	28873
808.04	28763
808.182	28858
808.324	28801
808.465	29067
808.607	29128
808.749	29277
808.891	29509
809.033	29459
809.174	29337
809.316	29318
809.458	29254
809.6	29292
809.741	29410
809.883	29467
810.025	29726
810.166	29558
810.308	29672
810.45	29505
810.591	29573
810.733	29425
810.875	29364
811.016	29254
811.158	29239
811.299	29425
811.441	29535
811.582	29471
811.724	29356
811.865	29387
812.007	29482
812.148	29372
812.29	29379
812.431	29486
812.573	29756
812.714	29733
812.855	29790
812.997	30083
813.138	29977
813.279	29954
813.421	29786
813.562	29874
813.703	29707
813.845	29604
813.986	29349
814.127	29109
814.268	28968
814.41	29162
814.551	28957
814.692	29200
814.833	29048
814.974	28965
815.115	29136
815.256	28972
815.397	28934
815.539	29067
815.68	28934
815.821	28725
815.962	28930
816.103	28774
816.244	28698
816.385	28790
816.526	28603
816.666	28428
816.807	28215
816.948	28405
817.089	28405
817.23	28394
817.371	28329
817.512	28363
817.653	28325
817.793	28268
817.934	28519
818.075	28371
818.216	28413
818.356	28310
818.497	28211
818.638	28226
818.778	28162
818.919	28135
819.06	28226
819.2	28325
819.341	28348
819.481	28421
819.622	28584
819.762	28675
819.903	28748
820.043	28607
820.184	28588
820.324	28653
820.465	28573
820.605	28474
820.746	28554
820.886	28333
821.026	28329
821.167	28459
821.307	28417
821.447	28443
821.588	28550
821.728	28177
821.868	28097
822.008	28010
822.149	27869
822.289	27846
822.429	27595
822.569	27641
822.709	27447
822.849	27401
822.99	27412
823.13	27317
823.27	27336
823.41	27085
823.55	27028
823.69	27089
823.83	27279
823.97	27131
824.11	26979
824.25	26975
824.389	26994
824.529	26967
824.669	27180
824.809	27146
824.949	27013
825.089	27081
825.228	27096
825.368	26754
825.508	26796
825.648	26921
825.787	26899
825.927	27112
826.067	26944
826.206	26963
826.346	26876
826.485	26891
826.625	27085
826.765	27039
826.904	26956
827.044	26735
827.183	26765
827.323	26530
827.462	26697
827.601	26590
827.741	26575
827.88	26720
828.02	26587
828.159	26549
828.298	26659
828.437	26708
828.577	26712
828.716	26754
828.855	26499
828.994	26320
829.134	26259
829.273	26400
829.412	26332
829.551	26332
829.69	26298
829.829	26252
829.968	26355
830.107	26362
830.246	26271
830.385	26229
830.524	26210
830.663	26126
830.802	26031
830.941	25818
831.08	25864
831.219	26035
831.357	25932
831.496	26149
831.635	25959
831.774	25814
831.913	25849
832.051	25613
832.19	25632
832.329	25704
832.467	25791
832.606	25468
832.744	25514
832.883	25632
833.022	25651
833.16	25521
833.299	25651
833.437	25651
833.576	25761
833.714	25689
833.852	25750
833.991	25738
834.129	25632
834.267	25788
834.406	25811
834.544	25693
834.682	25761
834.821	25689
834.959	25898
835.097	25700
835.235	25685
835.373	25670
835.511	25571
835.65	25479
835.788	25525
835.926	25327
836.064	25396
836.202	25232
836.34	25430
836.478	25533
836.615	25453
836.753	25430
836.891	25483
837.029	25377
837.167	25445
837.305	25411
837.443	25403
837.58	25445
837.718	25171
837.856	25278
837.993	25339
838.131	25225
838.269	25156
838.406	25228
838.544	25160
838.681	25012
838.819	24871
838.956	24772
839.094	24768
839.231	24806
839.369	24924
839.506	25156
839.643	25046
839.781	24829
839.918	24616
840.055	24867
840.193	24798
840.33	24814
840.467	24802
840.604	24730
840.742	24962
840.879	24544
841.016	24563
841.153	24646
841.29	24837
841.427	24642
841.564	24791
841.701	24783
841.838	24661
841.975	24582
842.112	24578
842.249	24597
842.385	24475
842.522	24760
842.659	24601
842.796	24486
842.933	24445
843.069	24350
843.206	24319
843.343	24426
843.479	24517
843.616	24464
843.752	24251
843.889	24228
844.025	24422
844.162	24247
844.298	24369
844.435	24182
844.571	24213
844.708	24300
844.844	24464
844.98	24426
845.117	24243
845.253	24216
845.389	24148
845.525	24129
845.661	24038
845.798	23988
845.934	24057
846.07	23923
846.206	23977
846.342	24117
846.478	23939
846.614	23756
846.75	23718
846.886	23745
847.022	23828
847.158	23756
847.294	23592
847.429	23752
847.565	23672
847.701	23920
847.837	23459
847.972	23406
848.108	23509
848.244	23566
848.379	23254
848.515	23273
848.65	23288
848.786	23223
848.921	23406
849.057	23376
849.192	23417
849.328	23353
849.463	23303
849.598	23258
849.734	23223
849.869	23124
850.004	23041
850.14	22946
850.275	23033
850.41	23075
850.545	22980
850.68	23079
850.815	23105
850.95	23071
851.085	23216
851.22	23254
851.355	23208
851.49	23041
851.625	22942
851.76	23056
851.895	22930
852.03	23018
852.165	23006
852.299	23079
852.434	23132
852.569	23006
852.703	22991
852.838	23037
852.973	23117
853.107	23185
853.242	23044
853.376	22927
853.511	22778
853.645	22801
853.78	23090
853.914	22904
854.048	22767
854.183	22809
854.317	22892
854.451	23143
854.585	22987
854.72	22797
854.854	23014
854.988	22889
855.122	22938
855.256	22736
855.39	22869
855.524	22889
855.658	22908
855.792	22961
855.926	22843
856.06	22908
856.194	22877
856.327	22831
856.461	22869
856.595	22771
856.729	22755
856.862	22927
856.996	22820
857.13	22885
857.263	22866
857.397	22793
857.53	22835
857.664	22858
857.797	23003
857.931	22999
858.064	22873
858.197	23014
858.331	22702
858.464	22847
858.597	22869
858.731	22862
858.864	22873
858.997	22778
859.13	22809
859.263	22759
859.396	23060
859.529	22778
859.662	22820
859.795	22759
859.928	22790
860.061	23071
860.194	23044
860.327	22957
860.46	22938
860.592	23029
860.725	22965
860.858	22984
860.99	22858
861.123	22786
861.256	22869
861.388	22793
861.521	23543
861.653	22713
861.786	22615
861.918	22641
862.05	22668
862.183	22744
862.315	22778
862.447	22847
862.58	22763
862.712	22535
862.844	22443
862.976	22736
863.108	22550
863.24	23018
863.372	22542
863.504	22531
863.636	22508
863.768	22557
863.9	22691
864.032	22500
864.164	22550
864.296	22615
864.428	22713
864.559	22607
864.691	22538
864.823	22485
864.954	22660
865.086	22542
865.217	22500
865.349	22424
865.48	22554
865.612	22424
865.743	22607
865.875	22615
866.006	22485
866.137	22390
866.269	22276
866.4	22421
866.531	22356
866.662	22436
866.793	22382
866.924	22352
867.055	22344
867.186	22367
867.317	22348
867.448	22379
867.579	22356
867.71	22276
867.841	22394
867.972	22428
868.103	22299
868.233	22329
868.364	22379
868.495	22459
868.625	22630
868.756	22763
868.886	22519
869.017	22489
869.147	22634
869.278	22622
869.408	22626
869.539	22637
869.669	22630
869.799	22573
869.929	22793
870.06	22645
870.19	22919
870.32	22908
870.45	22862
870.58	22915
870.71	23162
870.84	23052
870.97	23147
871.1	22957
871.23	23193
871.36	23277
871.489	23132
871.619	23292
871.749	23261
871.879	23113
872.008	23372
872.138	23349
872.267	23204
872.397	23132
872.526	23029
872.656	23025
872.785	23098
872.915	23170
873.044	23376
873.173	23212
873.303	23193
873.432	23200
873.561	23311
873.69	23208
873.819	23296
873.948	23197
874.077	23254
874.206	23189
874.335	23296
874.464	23414
874.593	23505
874.722	23448
874.851	23478
874.979	23395
875.108	23326
875.237	23296
875.365	23364
875.494	23387
875.623	23543
875.751	23436
875.88	23467
876.008	23512
876.136	23623
876.265	23824
876.393	23859
876.521	23889
876.65	23832
876.778	23805
876.906	23832
877.034	23687
877.162	23859
877.29	23847
877.418	23733
877.546	23775
877.674	23802
877.802	23813
877.93	23889
878.058	23794
878.185	23585
878.313	23661
878.441	23710
878.568	23592
878.696	23596
878.824	23760
878.951	23878
879.079	23935
879.206	24117
879.333	23920
879.461	23832
879.588	23931
879.715	23893
879.842	23999
879.97	23882
880.097	23604
880.224	23585
880.351	23478
880.478	23600
880.605	23535
880.732	23547
880.859	23741
880.986	23630
881.112	23604
881.239	23402
881.366	23315
881.493	23250
881.619	23143
881.746	23193
881.872	23292
881.999	23018
882.125	22980
882.252	23166
882.378	23056
882.505	23326
882.631	23010
882.757	22835
882.883	22790
883.01	22885
883.136	22736
883.262	22710
883.388	22729
883.514	22843
883.64	22892
883.766	22675
883.892	22580
884.018	22561
884.143	22763
884.269	22797
884.395	22531
884.52	22386
884.646	22531
884.772	22436
884.897	22322
885.023	22375
885.148	22584
885.274	22607
885.399	22546
885.524	22352
885.65	22561
885.775	22398
885.9	22360
886.025	22577
886.15	22421
886.275	22371
886.4	22344
886.525	22413
886.65	22329
886.775	22314
886.9	22603
887.025	22675
887.149	22443
887.274	22158
887.399	22257
887.523	22238
887.648	22265
887.773	22112
887.897	22318
888.021	22200
888.146	22253
888.27	22276
888.395	22261
888.519	22238
888.643	22246
888.767	22207
888.891	22162
889.015	22010
889.139	22086
889.263	22135
889.387	22166
889.511	22166
889.635	22162
889.759	21903
889.883	21850
890.006	22006
890.13	21975
890.254	21865
890.377	21895
890.501	21675
890.624	21770
890.748	21709
890.871	21633
890.995	21660
891.118	21542
891.241	21557
891.364	21492
891.488	21583
891.611	21603
891.734	21367
891.857	21595
891.98	21488
892.103	21583
892.226	21519
892.349	21488
892.471	21279
892.594	21393
892.717	21496
892.839	21447
892.962	21416
893.085	21420
893.207	21386
893.33	21336
893.452	21272
893.575	21439
893.697	21401
893.819	21477
893.941	21583
894.064	21523
894.186	21325
894.308	21268
894.43	21408
894.552	21466
894.674	21511
894.796	21325
894.918	21416
895.04	21363
895.161	21416
895.283	21488
895.405	21226
895.526	21214
895.648	21351
895.769	21454
895.891	21431
896.012	21401
896.134	21355
896.255	21431
896.376	21230
896.498	21386
896.619	21416
896.74	21268
896.861	21431
896.982	21804
897.103	21739
897.224	21709
897.345	21542
897.466	21477
897.587	21557
897.708	21622
897.828	21622
897.949	21656
898.07	21500
898.19	21473
898.311	21580
898.431	21507
898.552	21511
898.672	21629
898.792	21701
898.913	21633
899.033	21405
899.153	21378
899.273	21222
899.393	21241
899.513	21386
899.633	21329
899.753	21237
899.873	21294
899.993	21310
900.113	21214
900.232	21252
900.352	21291
900.472	21070
900.591	21020
900.711	21074
900.83	20986
900.95	21154
901.069	21112
901.189	20868
901.308	20678
901.427	20533
901.546	20598
901.665	20602
901.784	20530
901.904	20560
902.023	20385
902.141	20202
902.26	20024
902.379	20115
902.498	20092
902.617	20084
902.735	20126
902.854	20005
902.973	20050
903.091	19871
903.21	19700
903.328	19772
903.446	19632
903.565	19609
903.683	19552
903.801	19502
903.919	19476
904.038	19407
904.156	19251
904.274	19365
904.392	19301
904.51	19148
904.627	19419
904.745	19362
904.863	19373
904.981	19072
905.098	18996
905.216	18939
905.334	19053
905.451	19076
905.569	18913
905.686	19012
905.803	18951
905.921	18817
906.038	18806
906.155	18840
906.272	18631
906.389	18719
906.506	18616
906.623	18585
906.74	18525
906.857	18380
906.974	18369
907.091	18422
907.208	18597
907.324	18544
907.441	18369
907.557	18247
907.674	18315
907.79	18121
907.907	18155
908.023	18247
908.139	18148
908.256	18174
908.372	18022
908.488	18049
908.604	17969
908.72	17851
908.836	18019
908.952	17897
909.068	18026
909.184	17984
909.3	17939
909.415	17939
909.531	17874
909.647	17703
909.762	17748
909.878	17695
909.993	17668
910.108	17547
910.224	17554
910.339	17566
910.454	17368
910.57	17421
910.685	17330
910.8	17592
910.915	17592
911.03	17376
911.145	17193
911.259	17246
911.374	17113
911.489	16957
911.604	17014
911.718	16908
911.833	16999
911.947	16968
912.062	16786
912.176	16987
912.291	16927
912.405	17006
912.519	17162
912.633	17121
912.748	17071
912.862	16957
912.976	16858
913.09	16717
913.204	16694
913.318	16809
913.431	16942
913.545	16877
913.659	16824
913.772	16672
913.886	16588
914	16607
914.113	16630
914.226	16721
914.34	16588
914.453	16508
914.566	16611
914.68	16470
914.793	16394
914.906	16337
915.019	16257
915.132	16116
915.245	16059
915.358	16204
915.47	16131
915.583	16204
915.696	16185
915.809	16196
915.921	16249
916.034	16120
916.146	16021
916.259	16097
916.371	16029
916.483	16082
916.595	15926
916.708	16006
916.82	15983
916.932	15911
917.044	15895
917.156	15857
917.268	15705
917.38	15827
917.491	15701
917.603	15720
917.715	15865
917.826	15842
917.938	15682
918.049	15564
918.161	15679
918.272	15717
918.384	15812
918.495	15713
918.606	15549
918.717	15401
918.828	15557
918.939	15564
919.05	15500
919.161	15447
919.272	15256
919.383	15287
919.494	15481
919.604	15694
919.715	15401
919.826	15329
919.936	15526
920.047	15462
920.157	15325
920.267	15625
920.378	15428
920.488	15424
920.598	15542
920.708	15816
920.818	15553
920.928	15458
921.038	15690
921.148	15675
921.258	15329
921.368	15287
921.477	15131
921.587	15146
921.697	14963
921.806	15146
921.916	14998
922.025	14838
922.134	14868
922.244	14648
922.353	14796
922.462	14667
922.571	14530
922.68	14492
922.789	14434
922.898	14400
923.007	14332
923.116	14473
923.224	14381
923.333	14404
923.442	14317
923.55	14210
923.659	14332
923.767	14301
923.876	14252
923.984	14336
924.092	14115
924.201	14176
924.309	14244
924.417	14069
924.525	13997
924.633	14214
924.741	14971
924.849	13864
924.956	14024
925.064	13799
925.172	13719
925.279	13685
925.387	13845
925.494	13761
925.602	13925
925.709	13788
925.816	13734
925.924	13769
926.031	13822
926.138	13658
926.245	13738
926.352	13594
926.459	13639
926.566	13753
926.673	13613
926.779	13548
926.886	13472
926.993	13415
927.099	13365
927.206	13282
927.312	13240
927.419	13350
927.525	13320
927.631	13263
927.737	13217
927.843	13304
927.95	13008
928.056	13095
928.162	13133
928.267	13110
928.373	13765
928.479	13194
928.585	12958
928.69	13038
928.796	13080
928.901	12958
929.007	12829
929.112	13015
929.218	12920
929.323	12814
929.428	12863
929.533	13023
929.638	12787
929.743	12760
929.848	12829
929.953	12814
930.058	12669
930.163	12536
930.267	12479
930.372	12696
930.477	12494
930.581	12642
930.685	12452
930.79	12357
930.894	12346
930.998	12365
931.103	12494
931.207	12167
931.311	12007
931.415	11920
931.519	11760
931.623	11745
