Data from test_V78500241_638.txt Node
Date: Fri Mar 25 15:46:13 CST 2022
User: usil
Spectrometer: V785-0024
Trigger mode: 0
Integration Time (sec): 4.000000E-1
Scans to average: 1
Nonlinearity correction enabled: false
Boxcar width: 0
Storing dark spectrum: false
XAxis mode: Wavelengths
Number of Pixels in Spectrum: 1024
>>>>>Begin Spectral Data<<<<<
801.071	27717
801.214	27591
801.356	27401
801.499	27344
801.641	27188
801.783	27264
801.926	27408
802.068	27325
802.211	27100
802.353	27013
802.496	26834
802.638	26895
802.78	26895
802.923	26914
803.065	26716
803.208	26826
803.35	26883
803.492	26929
803.635	26971
803.777	26986
803.919	27104
804.061	27184
804.204	26979
804.346	27043
804.488	27024
804.63	26811
804.773	26921
804.915	27119
805.057	27165
805.199	27043
805.341	27180
805.483	27355
805.626	27112
805.768	27096
805.91	27241
806.052	27298
806.194	27085
806.336	27321
806.478	27222
806.62	27252
806.762	27317
806.904	27576
807.046	27675
807.188	27720
807.33	27656
807.472	27709
807.614	27462
807.756	27599
807.898	27370
808.04	27492
808.182	27545
808.324	27526
808.465	27504
808.607	27644
808.749	27778
808.891	27960
809.033	28032
809.174	27892
809.316	27873
809.458	27880
809.6	27781
809.741	27934
809.883	27991
810.025	28169
810.166	28097
810.308	27994
810.45	28120
810.591	28002
810.733	27979
810.875	27873
811.016	27686
811.158	27728
811.299	27956
811.441	28143
811.582	27998
811.724	27774
811.865	27717
812.007	27827
812.148	27861
812.29	27804
812.431	28010
812.573	28173
812.714	28265
812.855	28204
812.997	28367
813.138	28497
813.279	28538
813.421	28485
813.562	28352
813.703	28135
813.845	28128
813.986	27873
814.127	27648
814.268	27504
814.41	27545
814.551	27264
814.692	27561
814.833	27378
814.974	27500
815.115	27561
815.256	27340
815.397	27298
815.539	27374
815.68	27306
815.821	27218
815.962	27332
816.103	27329
816.244	27226
816.385	27131
816.526	27085
816.666	26788
816.807	26807
816.948	26800
817.089	26834
817.23	26807
817.371	26773
817.512	26853
817.653	26777
817.793	26773
817.934	26853
818.075	26849
818.216	26777
818.356	26849
818.497	26750
818.638	26617
818.778	26503
818.919	26396
819.06	26602
819.2	26678
819.341	26849
819.481	26883
819.622	26990
819.762	27203
819.903	27024
820.043	26872
820.184	26956
820.324	26891
820.465	27005
820.605	26853
820.746	26804
820.886	26788
821.026	26918
821.167	26804
821.307	26804
821.447	26868
821.588	26693
821.728	26644
821.868	26442
822.008	26343
822.149	26309
822.289	26191
822.429	25902
822.569	26016
822.709	26065
822.849	25837
822.99	25833
823.13	25780
823.27	25700
823.41	25548
823.55	25525
823.69	25662
823.83	25624
823.97	25738
824.11	25304
824.25	25304
824.389	25247
824.529	25518
824.669	25460
824.809	25445
824.949	25575
825.089	25514
825.228	25373
825.368	25331
825.508	25194
825.648	25316
825.787	25400
825.927	25422
826.067	25263
826.206	25240
826.346	25129
826.485	25343
826.625	25331
826.765	25396
826.904	25255
827.044	25027
827.183	25008
827.323	25019
827.462	24996
827.601	24882
827.741	24977
827.88	24890
828.02	24970
828.159	24913
828.298	25046
828.437	24985
828.577	24882
828.716	25000
828.855	24913
828.994	24604
829.134	24722
829.273	24631
829.412	24764
829.551	24601
829.69	24612
829.829	24692
829.968	24764
830.107	24726
830.246	24658
830.385	24532
830.524	24547
830.663	24486
830.802	24448
830.941	24285
831.08	24243
831.219	24342
831.357	24399
831.496	24623
831.635	24361
831.774	24197
831.913	24030
832.051	24117
832.19	24060
832.329	24144
832.467	23920
832.606	23843
832.744	23927
832.883	23950
833.022	24007
833.16	23809
833.299	23958
833.437	24041
833.576	23996
833.714	24057
833.852	24083
833.991	24060
834.129	24152
834.267	24171
834.406	23897
834.544	23988
834.682	24129
834.821	24026
834.959	24182
835.097	23965
835.235	24068
835.373	24026
835.511	24030
835.65	23821
835.788	23935
835.926	23798
836.064	23741
836.202	23661
836.34	23935
836.478	24007
836.615	23866
836.753	23821
836.891	23939
837.029	23897
837.167	23756
837.305	23653
837.443	23699
837.58	23707
837.718	23634
837.856	23821
837.993	23585
838.131	23634
838.269	23516
838.406	23592
838.544	23535
838.681	23322
838.819	23292
838.956	23185
839.094	23185
839.231	23136
839.369	23337
839.506	23554
839.643	23345
839.781	23197
839.918	23018
840.055	23075
840.193	23170
840.33	23117
840.467	23105
840.604	23265
840.742	23387
840.879	22999
841.016	23025
841.153	22968
841.29	23185
841.427	23147
841.564	23216
841.701	23056
841.838	23037
841.975	22835
842.112	23132
842.249	22927
842.385	22809
842.522	23041
842.659	23060
842.796	22748
842.933	22801
843.069	22850
843.206	22847
843.343	22908
843.479	22816
843.616	22847
843.752	22535
843.889	22729
844.025	22721
844.162	22512
844.298	22721
844.435	22653
844.571	22596
844.708	22721
844.844	22725
844.98	22786
845.117	22630
845.253	22546
845.389	22443
845.525	22512
845.661	22440
845.798	22261
845.934	22318
846.07	22219
846.206	22371
846.342	22527
846.478	22314
846.614	22204
846.75	22044
846.886	22120
847.022	22158
847.158	22154
847.294	22105
847.429	22059
847.565	22010
847.701	22322
847.837	21812
847.972	21785
848.108	21835
848.244	21861
848.379	21751
848.515	21671
848.65	21523
848.786	21610
848.921	21759
849.057	21800
849.192	21774
849.328	21641
849.463	21534
849.598	21663
849.734	21530
849.869	21458
850.004	21401
850.14	21504
850.275	21443
850.41	21424
850.545	21294
850.68	21389
850.815	21466
850.95	21416
851.085	21637
851.22	21633
851.355	21450
851.49	21359
851.625	21450
851.76	21272
851.895	21287
852.03	21264
852.165	21458
852.299	21534
852.434	21534
852.569	21462
852.703	21549
852.838	21428
852.973	21454
853.107	21648
853.242	21439
853.376	21203
853.511	21176
853.645	21192
853.78	21325
853.914	21260
854.048	21222
854.183	21093
854.317	21306
854.451	21424
854.585	21230
854.72	21218
854.854	21351
854.988	21241
855.122	21230
855.256	21146
855.39	21306
855.524	21264
855.658	21287
855.792	21294
855.926	21359
856.06	21230
856.194	21268
856.327	21195
856.461	21245
856.595	21249
856.729	21150
856.862	21367
856.996	21431
857.13	21382
857.263	21477
857.397	21237
857.53	21310
857.664	21275
857.797	21313
857.931	21408
858.064	21291
858.197	21401
858.331	21275
858.464	21207
858.597	21226
858.731	21207
858.864	21199
858.997	21260
859.13	21252
859.263	21294
859.396	21382
859.529	21313
859.662	21348
859.795	21199
859.928	21188
860.061	21450
860.194	21488
860.327	21370
860.46	21233
860.592	21332
860.725	21416
860.858	21507
860.99	21264
861.123	21272
861.256	21237
861.388	21119
861.521	21861
861.653	21066
861.786	20990
861.918	21100
862.05	21157
862.183	21176
862.315	21302
862.447	21355
862.58	21207
862.712	21093
862.844	20944
862.976	21112
863.108	21165
863.24	21416
863.372	20960
863.504	20941
863.636	21055
863.768	21062
863.9	20887
864.032	20948
864.164	20899
864.296	21085
864.428	21123
864.559	21024
864.691	21081
864.823	20941
864.954	20906
865.086	20994
865.217	20899
865.349	20807
865.48	20906
865.612	21005
865.743	21036
865.875	20914
866.006	20876
866.137	20883
866.269	20842
866.4	20857
866.531	20659
866.662	20815
866.793	20895
866.924	20906
867.055	20788
867.186	20826
867.317	20804
867.448	20716
867.579	20731
867.71	20754
867.841	20621
867.972	20891
868.103	20815
868.233	20819
868.364	20861
868.495	20929
868.625	20994
868.756	21169
868.886	20948
869.017	21062
869.147	21157
869.278	21214
869.408	21100
869.539	21154
869.669	21203
869.799	21032
869.929	21127
870.06	21150
870.19	21298
870.32	21435
870.45	21393
870.58	21378
870.71	21561
870.84	21568
870.97	21469
871.1	21428
871.23	21705
871.36	21701
871.489	21599
871.619	21633
871.749	21637
871.879	21720
872.008	21660
872.138	21663
872.267	21675
872.397	21477
872.526	21515
872.656	21450
872.785	21568
872.915	21667
873.044	21812
873.173	21705
873.303	21667
873.432	21694
873.561	21831
873.69	21759
873.819	21800
873.948	21709
874.077	21705
874.206	21679
874.335	21641
874.464	21739
874.593	21937
874.722	21876
874.851	21895
874.979	22006
875.108	21892
875.237	21755
875.365	21728
875.494	21934
875.623	21934
875.751	21903
875.88	21884
876.008	22002
876.136	22059
876.265	22329
876.393	22519
876.521	22284
876.65	22413
876.778	22249
876.906	22314
877.034	22268
877.162	22310
877.29	22181
877.418	22337
877.546	22329
877.674	22325
877.802	22223
877.93	22249
878.058	22154
878.185	22109
878.313	22124
878.441	22280
878.568	22097
878.696	22268
878.824	22295
878.951	22265
879.079	22561
879.206	22668
879.333	22573
879.461	22310
879.588	22386
879.715	22375
879.842	22672
879.97	22303
880.097	22143
880.224	22090
880.351	22010
880.478	22055
880.605	22059
880.732	22078
880.859	22261
880.986	22120
881.112	22063
881.239	21819
881.366	21751
881.493	21766
881.619	21549
881.746	21618
881.872	21694
881.999	21599
882.125	21572
882.252	21644
882.378	21648
882.505	21682
882.631	21534
882.757	21416
882.883	21431
883.01	21393
883.136	21249
883.262	21306
883.388	21161
883.514	21310
883.64	21363
883.766	21222
883.892	21123
884.018	21233
884.143	21313
884.269	21389
884.395	21013
884.52	20925
884.646	20956
884.772	20933
884.897	20845
885.023	21051
885.148	21203
885.274	21256
885.399	21066
885.524	20990
885.65	20906
885.775	20910
885.9	20994
886.025	21043
886.15	21176
886.275	20986
886.4	20880
886.525	20937
886.65	20834
886.775	20921
886.9	21154
887.025	21150
887.149	20998
887.274	20765
887.399	20682
887.523	20773
887.648	20731
887.773	20693
887.897	20754
888.021	20826
888.146	20701
888.27	21005
888.395	20735
888.519	20697
888.643	20655
888.767	20804
888.891	20693
889.015	20731
889.139	20670
889.263	20511
889.387	20693
889.511	20659
889.635	20785
889.759	20495
889.883	20590
890.006	20689
890.13	20682
890.254	20530
890.377	20522
890.501	20263
890.624	20218
890.748	20294
890.871	20252
890.995	20122
891.118	20153
891.241	20126
891.364	20191
891.488	20157
891.611	20195
891.734	20172
891.857	20183
891.98	20149
892.103	20107
892.226	20126
892.349	20149
892.471	19955
892.594	20031
892.717	20073
892.839	20062
892.962	19955
893.085	20142
893.207	20073
893.33	19898
893.452	19921
893.575	20031
893.697	20016
893.819	20088
893.941	20164
894.064	20233
894.186	19944
894.308	19989
894.43	20202
894.552	20180
894.674	20134
894.796	19986
894.918	20024
895.04	19974
895.161	20161
895.283	20134
895.405	20001
895.526	20103
895.648	19997
895.769	20046
895.891	20058
896.012	20126
896.134	20088
896.255	19932
896.376	19986
896.498	20020
896.619	20107
896.74	20058
896.861	20062
896.982	20415
897.103	20434
897.224	20305
897.345	20301
897.466	20305
897.587	20134
897.708	20263
897.828	20218
897.949	20248
898.07	20088
898.19	20195
898.311	20172
898.431	20263
898.552	20240
898.672	20290
898.792	20355
898.913	20218
899.033	20225
899.153	20168
899.273	20058
899.393	20001
899.513	20054
899.633	20050
899.753	20054
899.873	19955
899.993	20024
900.113	19989
900.232	19963
900.352	19849
900.472	19871
900.591	19803
900.711	19898
900.83	19765
900.95	19887
901.069	19864
901.189	19708
901.308	19514
901.427	19472
901.546	19354
901.665	19365
901.784	19377
901.904	19278
902.023	19206
902.141	18966
902.26	18939
902.379	19076
902.498	18894
902.617	18867
902.735	18871
902.854	18852
902.973	18692
903.091	18650
903.21	18635
903.328	18544
903.446	18429
903.565	18388
903.683	18327
903.801	18266
903.919	18338
904.038	18289
904.156	18163
904.274	18216
904.392	18072
904.51	18015
904.627	18121
904.745	18300
904.863	18224
904.981	17942
905.098	17855
905.216	17802
905.334	17832
905.451	17843
905.569	17718
905.686	17813
905.803	17779
905.921	17608
906.038	17745
906.155	17672
906.272	17547
906.389	17528
906.506	17436
906.623	17379
906.74	17303
906.857	17189
906.974	17265
907.091	17387
907.208	17433
907.324	17311
907.441	17227
907.557	17067
907.674	17151
907.79	17006
907.907	16980
908.023	17109
908.139	17014
908.256	17060
908.372	16923
908.488	16946
908.604	16694
908.72	16767
908.836	16847
908.952	16748
909.068	16809
909.184	16885
909.3	16752
909.415	16778
909.531	16820
909.647	16470
909.762	16508
909.878	16459
909.993	16485
910.108	16485
910.224	16485
910.339	16462
910.454	16363
910.57	16284
910.685	16303
910.8	16459
910.915	16538
911.03	16249
911.145	16090
911.259	16131
911.374	16071
911.489	15934
911.604	15972
911.718	15838
911.833	15861
911.947	15762
912.062	15698
912.176	15850
912.291	15880
912.405	15823
912.519	15972
912.633	16051
912.748	15865
912.862	15800
912.976	15641
913.09	15523
913.204	15545
913.318	15618
913.431	15778
913.545	15641
913.659	15743
913.772	15576
913.886	15447
914	15511
914.113	15511
914.226	15530
914.34	15477
914.453	15374
914.566	15424
914.68	15348
914.793	15359
914.906	15127
915.019	15055
915.132	15020
915.245	15058
915.358	15119
915.47	15070
915.583	14921
915.696	15055
915.809	15127
915.921	15157
916.034	15020
916.146	14960
916.259	14956
916.371	15005
916.483	14895
916.595	14872
916.708	14861
916.82	14902
916.932	14891
917.044	14792
917.156	14735
917.268	14568
917.38	14815
917.491	14629
917.603	14781
917.715	14705
917.826	14910
917.938	14716
918.049	14575
918.161	14644
918.272	14849
918.384	14800
918.495	14678
918.606	14507
918.717	14469
918.828	14511
918.939	14461
919.05	14469
919.161	14469
919.272	14271
919.383	14301
919.494	14518
919.604	14678
919.715	14488
919.826	14278
919.936	14465
920.047	14495
920.157	14434
920.267	14651
920.378	14438
920.488	14355
920.598	14617
920.708	14720
920.818	14640
920.928	14522
921.038	14678
921.148	14674
921.258	14480
921.368	14328
921.477	14298
921.587	14195
921.697	14103
921.806	14263
921.916	13932
922.025	13913
922.134	13788
922.244	13753
922.353	13750
922.462	13757
922.571	13609
922.68	13655
922.789	13396
922.898	13502
923.007	13358
923.116	13548
923.224	13578
923.333	13434
923.442	13320
923.55	13171
923.659	13320
923.767	13392
923.876	13255
923.984	13312
924.092	13141
924.201	13244
924.309	13194
924.417	13278
924.525	13099
924.633	13069
924.741	13864
924.849	12928
924.956	13114
925.064	12939
925.172	12829
925.279	12806
925.387	12894
925.494	12928
925.602	13091
925.709	12932
925.816	12814
925.924	12806
926.031	12973
926.138	12886
926.245	12882
926.352	12806
926.459	12829
926.566	12848
926.673	12764
926.779	12719
926.886	12681
926.993	12597
927.099	12521
927.206	12448
927.312	12410
927.419	12498
927.525	12483
927.631	12494
927.737	12410
927.843	12315
927.95	12273
928.056	12296
928.162	12323
928.267	12205
928.373	12939
928.479	12475
928.585	12121
928.69	12197
928.796	12213
928.901	12258
929.007	12133
929.112	12216
929.218	12114
929.323	12053
929.428	12015
929.533	12182
929.638	12019
929.743	12030
929.848	11988
929.953	11999
930.058	11916
930.163	11703
930.267	11726
930.372	11840
930.477	11707
930.581	11935
930.685	11767
930.79	11661
930.894	11619
930.998	11558
931.103	11714
931.207	11433
931.311	11307
931.415	11273
931.519	11003
931.623	10927
