Data from test_V78500241_973.txt Node
Date: Fri Mar 25 15:48:32 CST 2022
User: usil
Spectrometer: V785-0024
Trigger mode: 0
Integration Time (sec): 4.000000E-1
Scans to average: 1
Nonlinearity correction enabled: false
Boxcar width: 0
Storing dark spectrum: false
XAxis mode: Wavelengths
Number of Pixels in Spectrum: 1024
>>>>>Begin Spectral Data<<<<<
801.071	28641
801.214	28565
801.356	28120
801.499	28074
801.641	27987
801.783	27941
801.926	28067
802.068	28044
802.211	27934
802.353	27781
802.496	27823
802.638	27831
802.78	27770
802.923	27679
803.065	27648
803.208	27606
803.35	27747
803.492	27842
803.635	27899
803.777	27759
803.919	27956
804.061	28333
804.204	27960
804.346	27922
804.488	28040
804.63	27991
804.773	27876
804.915	27991
805.057	28090
805.199	28021
805.341	28154
805.483	28059
805.626	28101
805.768	28010
805.91	28101
806.052	28128
806.194	28074
806.336	28356
806.478	28223
806.62	28173
806.762	28265
806.904	28356
807.046	28519
807.188	28546
807.33	28698
807.472	28577
807.614	28516
807.756	28580
807.898	28478
808.04	28417
808.182	28451
808.324	28451
808.465	28481
808.607	28607
808.749	28927
808.891	28900
809.033	28923
809.174	28915
809.316	28733
809.458	28771
809.6	28725
809.741	28915
809.883	28972
810.025	29128
810.166	29136
810.308	29109
810.45	29159
810.591	28976
810.733	28885
810.875	28805
811.016	28679
811.158	28599
811.299	28904
811.441	28938
811.582	28881
811.724	28755
811.865	28782
812.007	28812
812.148	28904
812.29	28877
812.431	29056
812.573	29159
812.714	29391
812.855	29296
812.997	29364
813.138	29657
813.279	29471
813.421	29395
813.562	29349
813.703	29280
813.845	29105
813.986	28755
814.127	28664
814.268	28341
814.41	28630
814.551	28474
814.692	28622
814.833	28527
814.974	28462
815.115	28546
815.256	28318
815.397	28443
815.539	28337
815.68	28303
815.821	28386
815.962	28371
816.103	28344
816.244	28257
816.385	28109
816.526	28139
816.666	27991
816.807	27884
816.948	28002
817.089	27937
817.23	27759
817.371	27934
817.512	27800
817.653	27804
817.793	27842
817.934	27838
818.075	27804
818.216	27949
818.356	27903
818.497	27759
818.638	27576
818.778	27542
818.919	27545
819.06	27622
819.2	27705
819.341	27720
819.481	27869
819.622	27926
819.762	28162
819.903	28234
820.043	27972
820.184	28082
820.324	27968
820.465	27945
820.605	28017
820.746	27926
820.886	27854
821.026	27895
821.167	27941
821.307	27956
821.447	27895
821.588	27720
821.728	27747
821.868	27466
822.008	27294
822.149	27367
822.289	27119
822.429	27272
822.569	27070
822.709	27074
822.849	26861
822.99	26823
823.13	26796
823.27	26617
823.41	26716
823.55	26659
823.69	26659
823.83	26716
823.97	26674
824.11	26446
824.25	26389
824.389	26495
824.529	26526
824.669	26431
824.809	26621
824.949	26526
825.089	26659
825.228	26507
825.368	26332
825.508	26423
825.648	26389
825.787	26457
825.927	26499
826.067	26301
826.206	26404
826.346	26370
826.485	26419
826.625	26290
826.765	26412
826.904	26370
827.044	26278
827.183	26107
827.323	25997
827.462	26065
827.601	26122
827.741	26107
827.88	26180
828.02	26016
828.159	26161
828.298	26077
828.437	26172
828.577	26050
828.716	26218
828.855	25970
828.994	25738
829.134	25814
829.273	25860
829.412	25620
829.551	25830
829.69	25746
829.829	25712
829.968	25830
830.107	25799
830.246	25799
830.385	25662
830.524	25632
830.663	25613
830.802	25575
830.941	25655
831.08	25335
831.219	25506
831.357	25373
831.496	25647
831.635	25301
831.774	25343
831.913	25331
832.051	25206
832.19	25225
832.329	25194
832.467	25076
832.606	24943
832.744	25019
832.883	25019
833.022	25027
833.16	25114
833.299	25080
833.437	25126
833.576	25183
833.714	25110
833.852	25251
833.991	25263
834.129	25164
834.267	25107
834.406	25190
834.544	25232
834.682	25057
834.821	24981
834.959	25377
835.097	25019
835.235	25244
835.373	25164
835.511	25042
835.65	25076
835.788	25004
835.926	24798
836.064	24715
836.202	24734
836.34	24992
836.478	24958
836.615	24909
836.753	24909
836.891	24875
837.029	25148
837.167	24981
837.305	24741
837.443	24810
837.58	24764
837.718	24745
837.856	24764
837.993	24787
838.131	24772
838.269	24734
838.406	24757
838.544	24642
838.681	24460
838.819	24277
838.956	24254
839.094	24289
839.231	24300
839.369	24361
839.506	24536
839.643	24509
839.781	24239
839.918	24178
840.055	24224
840.193	24285
840.33	24262
840.467	24186
840.604	24228
840.742	24445
840.879	24007
841.016	24098
841.153	23996
841.29	24148
841.427	24152
841.564	24136
841.701	24232
841.838	23977
841.975	24095
842.112	23942
842.249	23859
842.385	23904
842.522	23996
842.659	23866
842.796	23897
842.933	23809
843.069	23771
843.206	23885
843.343	23904
843.479	23908
843.616	23847
843.752	23600
843.889	23741
844.025	23802
844.162	23623
844.298	23802
844.435	23577
844.571	23668
844.708	23745
844.844	23961
844.98	23843
845.117	23714
845.253	23695
845.389	23600
845.525	23604
845.661	23467
845.798	23353
845.934	23436
846.07	23292
846.206	23383
846.342	23467
846.478	23296
846.614	23083
846.75	23025
846.886	23075
847.022	23212
847.158	23159
847.294	23189
847.429	23174
847.565	23109
847.701	23452
847.837	22877
847.972	22812
848.108	22942
848.244	22862
848.379	22771
848.515	22729
848.65	22729
848.786	22626
848.921	22580
849.057	22767
849.192	22710
849.328	22679
849.463	22630
849.598	22694
849.734	22656
849.869	22519
850.004	22497
850.14	22607
850.275	22390
850.41	22299
850.545	22447
850.68	22531
850.815	22489
850.95	22440
851.085	22668
851.22	22607
851.355	22512
851.49	22371
851.625	22352
851.76	22337
851.895	22462
852.03	22310
852.165	22447
852.299	22550
852.434	22561
852.569	22527
852.703	22375
852.838	22630
852.973	22626
853.107	22660
853.242	22314
853.376	22356
853.511	22192
853.645	22299
853.78	22284
853.914	22295
854.048	22238
854.183	22287
854.317	22318
854.451	22573
854.585	22234
854.72	22310
854.854	22375
854.988	22204
855.122	22390
855.256	22059
855.39	22230
855.524	22371
855.658	22310
855.792	22234
855.926	22367
856.06	22436
856.194	22447
856.327	22322
856.461	22154
856.595	22204
856.729	22223
856.862	22303
856.996	22310
857.13	22303
857.263	22402
857.397	22421
857.53	22265
857.664	22284
857.797	22367
857.931	22367
858.064	22299
858.197	22451
858.331	22211
858.464	22215
858.597	22185
858.731	22234
858.864	22272
858.997	22257
859.13	22341
859.263	22295
859.396	22306
859.529	22223
859.662	22219
859.795	22055
859.928	22329
860.061	22470
860.194	22512
860.327	22436
860.46	22314
860.592	22329
860.725	22516
860.858	22417
860.99	22291
861.123	22306
861.256	22200
861.388	22272
861.521	22991
861.653	22200
861.786	22082
861.918	22017
862.05	22253
862.183	22226
862.315	22234
862.447	22185
862.58	22109
862.712	21903
862.844	21960
862.976	22010
863.108	21998
863.24	22272
863.372	21922
863.504	21987
863.636	21941
863.768	22013
863.9	21937
864.032	22032
864.164	21876
864.296	22181
864.428	22128
864.559	21926
864.691	22048
864.823	21937
864.954	21892
865.086	21835
865.217	21922
865.349	21838
865.48	21930
865.612	21850
865.743	21835
865.875	21846
866.006	21903
866.137	21930
866.269	21816
866.4	21747
866.531	21762
866.662	21797
866.793	21892
866.924	21781
867.055	21724
867.186	21823
867.317	21930
867.448	21728
867.579	21591
867.71	21709
867.841	21831
867.972	21724
868.103	21682
868.233	21819
868.364	21770
868.495	21968
868.625	21915
868.756	22230
868.886	21964
869.017	21994
869.147	22040
869.278	22097
869.408	22029
869.539	21926
869.669	22044
869.799	22086
869.929	22131
870.06	22200
870.19	22242
870.32	22219
870.45	22440
870.58	22421
870.71	22363
870.84	22519
870.97	22508
871.1	22341
871.23	22599
871.36	22622
871.489	22497
871.619	22577
871.749	22557
871.879	22634
872.008	22706
872.138	22592
872.267	22672
872.397	22459
872.526	22360
872.656	22417
872.785	22402
872.915	22516
873.044	22725
873.173	22752
873.303	22736
873.432	22626
873.561	22698
873.69	22660
873.819	22672
873.948	22767
874.077	22588
874.206	22527
874.335	22641
874.464	22782
874.593	22915
874.722	22892
874.851	22831
874.979	22854
875.108	22801
875.237	22733
875.365	22771
875.494	22748
875.623	22774
875.751	22797
875.88	22847
876.008	23014
876.136	22923
876.265	23235
876.393	23246
876.521	23307
876.65	23288
876.778	23235
876.906	23102
877.034	23143
877.162	23239
877.29	23231
877.418	23208
877.546	23166
877.674	23128
877.802	23185
877.93	23105
878.058	23170
878.185	23132
878.313	23109
878.441	23155
878.568	23079
878.696	23056
878.824	23303
878.951	23235
879.079	23322
879.206	23486
879.333	23429
879.461	23159
879.588	23349
879.715	23436
879.842	23379
879.97	23212
880.097	22999
880.224	23048
880.351	23033
880.478	23083
880.605	22946
880.732	22972
880.859	23231
880.986	23025
881.112	23037
881.239	22938
881.366	22828
881.493	22702
881.619	22557
881.746	22573
881.872	22637
881.999	22466
882.125	22485
882.252	22622
882.378	22599
882.505	22653
882.631	22436
882.757	22306
882.883	22173
883.01	22207
883.136	22219
883.262	22147
883.388	22109
883.514	22238
883.64	22382
883.766	22177
883.892	22090
884.018	22166
884.143	22131
884.269	22219
884.395	21930
884.52	21846
884.646	21876
884.772	21816
884.897	21800
885.023	21846
885.148	22048
885.274	22010
885.399	21949
885.524	21915
885.65	21857
885.775	21888
885.9	21766
886.025	21953
886.15	21899
886.275	21854
886.4	21774
886.525	21926
886.65	21816
886.775	21785
886.9	21888
887.025	22070
887.149	21808
887.274	21637
887.399	21663
887.523	21629
887.648	21583
887.773	21595
887.897	21705
888.021	21671
888.146	21625
888.27	21694
888.395	21808
888.519	21561
888.643	21656
888.767	21728
888.891	21488
889.015	21462
889.139	21500
889.263	21443
889.387	21473
889.511	21633
889.635	21473
889.759	21420
889.883	21374
890.006	21367
890.13	21477
890.254	21466
890.377	21325
890.501	21161
890.624	21256
890.748	21195
890.871	21127
890.995	20921
891.118	21017
891.241	20956
891.364	21020
891.488	21066
891.611	21085
891.734	20998
891.857	20914
891.98	21055
892.103	21036
892.226	21070
892.349	20815
892.471	20834
892.594	20845
892.717	21020
892.839	20952
892.962	20982
893.085	20914
893.207	20933
893.33	20819
893.452	20876
893.575	20929
893.697	20887
893.819	20971
893.941	21169
894.064	21047
894.186	20785
894.308	20743
894.43	20861
894.552	20902
894.674	20883
894.796	20823
894.918	20804
895.04	20769
895.161	20895
895.283	20902
895.405	20830
895.526	20845
895.648	20823
895.769	20914
895.891	20902
896.012	20960
896.134	20975
896.255	20887
896.376	20765
896.498	20963
896.619	20902
896.74	20800
896.861	20956
896.982	21138
897.103	21260
897.224	21127
897.345	21123
897.466	21036
897.587	21062
897.708	21161
897.828	21112
897.949	21074
898.07	20998
898.19	21001
898.311	21233
898.431	20979
898.552	21112
898.672	21138
898.792	21135
898.913	21116
899.033	20902
899.153	20918
899.273	20811
899.393	20819
899.513	20815
899.633	20773
899.753	20788
899.873	20769
899.993	20819
900.113	20705
900.232	20800
900.352	20689
900.472	20659
900.591	20495
900.711	20621
900.83	20469
900.95	20686
901.069	20632
901.189	20385
901.308	20267
901.427	20115
901.546	20153
901.665	20100
901.784	20218
901.904	19970
902.023	19936
902.141	19776
902.26	19662
902.379	19769
902.498	19738
902.617	19628
902.735	19738
902.854	19586
902.973	19537
903.091	19335
903.21	19453
903.328	19240
903.446	19175
903.565	19141
903.683	19164
903.801	19042
903.919	19061
904.038	19072
904.156	18856
904.274	18932
904.392	18837
904.51	18806
904.627	18730
904.745	18981
904.863	18806
904.981	18684
905.098	18521
905.216	18555
905.334	18616
905.451	18483
905.569	18483
905.686	18551
905.803	18399
905.921	18388
906.038	18429
906.155	18292
906.272	18258
906.389	18201
906.506	18076
906.623	18064
906.74	18049
906.857	17916
906.974	17984
907.091	18030
907.208	18201
907.324	18072
907.441	18015
907.557	17813
907.674	17714
907.79	17684
907.907	17687
908.023	17836
908.139	17805
908.256	17817
908.372	17691
908.488	17577
908.604	17570
908.72	17444
908.836	17509
908.952	17592
909.068	17562
909.184	17577
909.3	17452
909.415	17452
909.531	17429
909.647	17242
909.762	17280
909.878	17193
909.993	17208
910.108	17155
910.224	17113
910.339	17185
910.454	17022
910.57	17014
910.685	16892
910.8	17185
910.915	17193
911.03	16919
911.145	16812
911.259	16771
911.374	16793
911.489	16725
911.604	16603
911.718	16542
911.833	16352
911.947	16356
912.062	16322
912.176	16447
912.291	16493
912.405	16569
912.519	16664
912.633	16698
912.748	16500
912.862	16470
912.976	16360
913.09	16238
913.204	16162
913.318	16382
913.431	16341
913.545	16348
913.659	16325
913.772	16318
913.886	16207
914	16090
914.113	16226
914.226	16192
914.34	16112
914.453	16006
914.566	16101
914.68	16002
914.793	15972
914.906	15759
915.019	15774
915.132	15800
915.245	15671
915.358	15690
915.47	15675
915.583	15686
915.696	15690
915.809	15785
915.921	15724
916.034	15572
916.146	15576
916.259	15504
916.371	15705
916.483	15648
916.595	15397
916.708	15515
916.82	15568
916.932	15496
917.044	15481
917.156	15435
917.268	15393
917.38	15378
917.491	15329
917.603	15332
917.715	15485
917.826	15481
917.938	15214
918.049	15127
918.161	15302
918.272	15317
918.384	15416
918.495	15245
918.606	15070
918.717	14948
918.828	15070
918.939	15077
919.05	14880
919.161	15039
919.272	14929
919.383	14918
919.494	15104
919.604	15367
919.715	15127
919.826	14963
919.936	15077
920.047	15089
920.157	15036
920.267	15218
920.378	15131
920.488	15070
920.598	15332
920.708	15344
920.818	15192
920.928	15085
921.038	15329
921.148	15184
921.258	15055
921.368	14857
921.477	14765
921.587	14724
921.697	14629
921.806	14693
921.916	14621
922.025	14412
922.134	14328
922.244	14434
922.353	14408
922.462	14309
922.571	14172
922.68	14111
922.789	14046
922.898	14107
923.007	14077
923.116	14130
923.224	13947
923.333	14001
923.442	13814
923.55	13849
923.659	13860
923.767	13894
923.876	13803
923.984	13814
924.092	13822
924.201	13772
924.309	13772
924.417	13731
924.525	13700
924.633	13689
924.741	14602
924.849	13449
924.956	13590
925.064	13563
925.172	13373
925.279	13415
925.387	13552
925.494	13411
925.602	13582
925.709	13518
925.816	13346
925.924	13419
926.031	13449
926.138	13362
926.245	13384
926.352	13282
926.459	13365
926.566	13438
926.673	13263
926.779	13168
926.886	13141
926.993	13023
927.099	12985
927.206	12913
927.312	12920
927.419	12981
927.525	12951
927.631	12977
927.737	12928
927.843	12772
927.95	12760
928.056	12745
928.162	12741
928.267	12772
928.373	13369
928.479	12871
928.585	12677
928.69	12722
928.796	12798
928.901	12696
929.007	12525
929.112	12665
929.218	12623
929.323	12479
929.428	12528
929.533	12597
929.638	12433
929.743	12380
929.848	12445
929.953	12399
930.058	12388
930.163	12171
930.267	12216
930.372	12194
930.477	12167
930.581	12399
930.685	12220
930.79	12079
930.894	12110
930.998	12015
931.103	12144
931.207	11805
931.311	11741
931.415	11608
931.519	11474
931.623	11433
