Data from test_V78500241_872.txt Node
Date: Fri Mar 25 15:47:50 CST 2022
User: usil
Spectrometer: V785-0024
Trigger mode: 0
Integration Time (sec): 4.000000E-1
Scans to average: 1
Nonlinearity correction enabled: false
Boxcar width: 0
Storing dark spectrum: false
XAxis mode: Wavelengths
Number of Pixels in Spectrum: 1024
>>>>>Begin Spectral Data<<<<<
801.071	27785
801.214	27857
801.356	27553
801.499	27568
801.641	27355
801.783	27382
801.926	27401
802.068	27363
802.211	27393
802.353	27218
802.496	27100
802.638	26914
802.78	27017
802.923	27043
803.065	26891
803.208	27043
803.35	27055
803.492	27039
803.635	27188
803.777	26940
803.919	27154
804.061	27538
804.204	27321
804.346	27184
804.488	27032
804.63	27195
804.773	27135
804.915	27081
805.057	27317
805.199	27176
805.341	27317
805.483	27405
805.626	27393
805.768	27188
805.91	27283
806.052	27275
806.194	27264
806.336	27431
806.478	27485
806.62	27317
806.762	27496
806.904	27641
807.046	27831
807.188	27709
807.33	27675
807.472	27808
807.614	27641
807.756	27759
807.898	27644
808.04	27504
808.182	27747
808.324	27542
808.465	27720
808.607	27838
808.749	27816
808.891	28093
809.033	28055
809.174	28044
809.316	27953
809.458	28051
809.6	28097
809.741	28166
809.883	28093
810.025	28272
810.166	28257
810.308	28333
810.45	28246
810.591	28253
810.733	27994
810.875	27914
811.016	27819
811.158	27899
811.299	27987
811.441	28093
811.582	28109
811.724	27975
811.865	28006
812.007	27808
812.148	27998
812.29	27972
812.431	28181
812.573	28295
812.714	28516
812.855	28508
812.997	28599
813.138	28622
813.279	28660
813.421	28409
813.562	28557
813.703	28394
813.845	28204
813.986	27880
814.127	27808
814.268	27747
814.41	27770
814.551	27717
814.692	27785
814.833	27606
814.974	27614
815.115	27770
815.256	27504
815.397	27595
815.539	27511
815.68	27454
815.821	27412
815.962	27542
816.103	27526
816.244	27370
816.385	27245
816.526	27313
816.666	27112
816.807	26975
816.948	27039
817.089	26971
817.23	26982
817.371	26994
817.512	27009
817.653	26914
817.793	26960
817.934	26986
818.075	27001
818.216	27085
818.356	26979
818.497	26982
818.638	26629
818.778	26621
818.919	26712
819.06	26887
819.2	26845
819.341	26982
819.481	26826
819.622	27058
819.762	27302
819.903	27154
820.043	27131
820.184	27077
820.324	27173
820.465	27195
820.605	27058
820.746	27116
820.886	26891
821.026	26994
821.167	27066
821.307	27093
821.447	27157
821.588	26887
821.728	26796
821.868	26609
822.008	26488
822.149	26313
822.289	26530
822.429	26142
822.569	26172
822.709	26062
822.849	25940
822.99	25989
823.13	26012
823.27	25811
823.41	25742
823.55	25666
823.69	25860
823.83	25712
823.97	25769
824.11	25632
824.25	25685
824.389	25609
824.529	25624
824.669	25590
824.809	25833
824.949	25731
825.089	25700
825.228	25753
825.368	25369
825.508	25491
825.648	25396
825.787	25392
825.927	25472
826.067	25491
826.206	25388
826.346	25559
826.485	25476
826.625	25544
826.765	25411
826.904	25449
827.044	25251
827.183	25244
827.323	25194
827.462	25266
827.601	25084
827.741	25099
827.88	25270
828.02	25122
828.159	25168
828.298	25202
828.437	25240
828.577	25240
828.716	25350
828.855	24989
828.994	24909
829.134	24935
829.273	24882
829.412	24844
829.551	24863
829.69	24928
829.829	24913
829.968	25042
830.107	24844
830.246	24905
830.385	24814
830.524	24654
830.663	24783
830.802	24753
830.941	24403
831.08	24525
831.219	24635
831.357	24563
831.496	24711
831.635	24486
831.774	24388
831.913	24452
832.051	24330
832.19	24232
832.329	24148
832.467	24159
832.606	24125
832.744	24136
832.883	24087
833.022	24171
833.16	24060
833.299	24114
833.437	24194
833.576	24273
833.714	24281
833.852	24182
833.991	24266
834.129	24281
834.267	24258
834.406	24235
834.544	24239
834.682	24251
834.821	24186
834.959	24483
835.097	24133
835.235	24133
835.373	24163
835.511	24266
835.65	24102
835.788	24129
835.926	23942
836.064	23745
836.202	23870
836.34	24083
836.478	24216
836.615	23946
836.753	24003
836.891	24182
837.029	24041
837.167	23927
837.305	23863
837.443	23969
837.58	23821
837.718	23927
837.856	23923
837.993	23866
838.131	23859
838.269	23722
838.406	23771
838.544	23676
838.681	23425
838.819	23493
838.956	23421
839.094	23493
839.231	23520
839.369	23524
839.506	23707
839.643	23547
839.781	23265
839.918	23322
840.055	23379
840.193	23398
840.33	23303
840.467	23326
840.604	23353
840.742	23630
840.879	23155
841.016	23223
841.153	23239
841.29	23326
841.427	23334
841.564	23471
841.701	23208
841.838	23181
841.975	23162
842.112	23147
842.249	23166
842.385	23056
842.522	23273
842.659	22987
842.796	22946
842.933	22999
843.069	22953
843.206	22980
843.343	23018
843.479	22968
843.616	23003
843.752	22744
843.889	22835
844.025	22949
844.162	22790
844.298	22793
844.435	22774
844.571	22782
844.708	22862
844.844	22850
844.98	22927
845.117	22953
845.253	22759
845.389	22736
845.525	22580
845.661	22596
845.798	22481
845.934	22637
846.07	22569
846.206	22645
846.342	22675
846.478	22573
846.614	22261
846.75	22223
846.886	22135
847.022	22386
847.158	22276
847.294	22188
847.429	22344
847.565	22268
847.701	22535
847.837	22090
847.972	21960
848.108	22051
848.244	22128
848.379	21861
848.515	21831
848.65	21903
848.786	21797
848.921	21857
849.057	22021
849.192	21941
849.328	21823
849.463	21785
849.598	21797
849.734	21816
849.869	21857
850.004	21564
850.14	21713
850.275	21743
850.41	21530
850.545	21610
850.68	21618
850.815	21599
850.95	21698
851.085	21842
851.22	21785
851.355	21606
851.49	21694
851.625	21580
851.76	21667
851.895	21435
852.03	21564
852.165	21637
852.299	21751
852.434	21641
852.569	21660
852.703	21515
852.838	21637
852.973	21660
853.107	21663
853.242	21633
853.376	21519
853.511	21298
853.645	21329
853.78	21477
853.914	21545
854.048	21370
854.183	21389
854.317	21466
854.451	21633
854.585	21340
854.72	21428
854.854	21511
854.988	21462
855.122	21523
855.256	21260
855.39	21428
855.524	21439
855.658	21603
855.792	21450
855.926	21606
856.06	21439
856.194	21572
856.327	21523
856.461	21389
856.595	21348
856.729	21450
856.862	21515
856.996	21428
857.13	21462
857.263	21682
857.397	21599
857.53	21496
857.664	21561
857.797	21477
857.931	21469
858.064	21458
858.197	21386
858.331	21466
858.464	21382
858.597	21317
858.731	21466
858.864	21389
858.997	21443
859.13	21382
859.263	21466
859.396	21492
859.529	21264
859.662	21332
859.795	21351
859.928	21542
860.061	21618
860.194	21458
860.327	21526
860.46	21435
860.592	21496
860.725	21625
860.858	21633
860.99	21454
861.123	21431
861.256	21469
861.388	21485
861.521	22112
861.653	21340
861.786	21226
861.918	21317
862.05	21302
862.183	21416
862.315	21424
862.447	21344
862.58	21397
862.712	21123
862.844	21074
862.976	21214
863.108	21245
863.24	21557
863.372	21176
863.504	21230
863.636	21176
863.768	21207
863.9	21249
864.032	21176
864.164	21146
864.296	21055
864.428	21214
864.559	21283
864.691	21138
864.823	21218
864.954	21116
865.086	21150
865.217	21013
865.349	20952
865.48	20960
865.612	20979
865.743	21230
865.875	21055
866.006	20986
866.137	21032
866.269	20994
866.4	21089
866.531	21032
866.662	21077
866.793	20941
866.924	21055
867.055	20960
867.186	20952
867.317	20952
867.448	20933
867.579	20967
867.71	20811
867.841	20887
867.972	20914
868.103	20921
868.233	21017
868.364	20975
868.495	20998
868.625	21188
868.756	21294
868.886	21203
869.017	21119
869.147	21348
869.278	21313
869.408	21211
869.539	21329
869.669	21272
869.799	21230
869.929	21447
870.06	21408
870.19	21595
870.32	21458
870.45	21496
870.58	21698
870.71	21709
870.84	21739
870.97	21656
871.1	21663
871.23	21762
871.36	21857
871.489	21686
871.619	21694
871.749	21732
871.879	21724
872.008	21899
872.138	21892
872.267	21656
872.397	21728
872.526	21656
872.656	21793
872.785	21694
872.915	21812
873.044	21941
873.173	21907
873.303	21671
873.432	21789
873.561	21956
873.69	21812
873.819	21873
873.948	21907
874.077	21907
874.206	21816
874.335	21895
874.464	22078
874.593	22074
874.722	22002
874.851	22070
874.979	22025
875.108	22063
875.237	22105
875.365	21926
875.494	21964
875.623	22055
875.751	21991
875.88	22101
876.008	22158
876.136	22246
876.265	22424
876.393	22577
876.521	22577
876.65	22428
876.778	22455
876.906	22432
877.034	22432
877.162	22481
877.29	22363
877.418	22577
877.546	22500
877.674	22462
877.802	22424
877.93	22440
878.058	22325
878.185	22188
878.313	22436
878.441	22474
878.568	22215
878.696	22310
878.824	22375
878.951	22550
879.079	22611
879.206	22797
879.333	22603
879.461	22417
879.588	22596
879.715	22634
879.842	22675
879.97	22360
880.097	22261
880.224	22223
880.351	22348
880.478	22230
880.605	22219
880.732	22280
880.859	22512
880.986	22344
881.112	22291
881.239	22025
881.366	21937
881.493	21945
881.619	21823
881.746	21876
881.872	21698
881.999	21789
882.125	21755
882.252	21850
882.378	21652
882.505	21922
882.631	21717
882.757	21564
882.883	21576
883.01	21606
883.136	21431
883.262	21245
883.388	21306
883.514	21542
883.64	21553
883.766	21359
883.892	21378
884.018	21302
884.143	21523
884.269	21561
884.395	21241
884.52	21100
884.646	21116
884.772	21112
884.897	21047
885.023	21180
885.148	21203
885.274	21272
885.399	21386
885.524	21222
885.65	21230
885.775	21188
885.9	21150
886.025	21256
886.15	21112
886.275	21070
886.4	21074
886.525	21058
886.65	20994
886.775	21138
886.9	21226
887.025	21469
887.149	21173
887.274	20948
887.399	21043
887.523	20925
887.648	20830
887.773	20773
887.897	20781
888.021	20998
888.146	20963
888.27	20941
888.395	21123
888.519	21001
888.643	20921
888.767	20960
888.891	20792
889.015	20727
889.139	20750
889.263	20651
889.387	20788
889.511	20941
889.635	20823
889.759	20689
889.883	20769
890.006	20640
890.13	20826
890.254	20575
890.377	20571
890.501	20484
890.624	20393
890.748	20415
890.871	20377
890.995	20187
891.118	20206
891.241	20244
891.364	20187
891.488	20389
891.611	20320
891.734	20275
891.857	20328
891.98	20400
892.103	20221
892.226	20233
892.349	20294
892.471	20084
892.594	20202
892.717	20259
892.839	20130
892.962	20100
893.085	20259
893.207	20248
893.33	20092
893.452	20130
893.575	20305
893.697	20183
893.819	20256
893.941	20278
894.064	20381
894.186	20176
894.308	19982
894.43	20301
894.552	20199
894.674	20290
894.796	19963
894.918	20119
895.04	20126
895.161	20221
895.283	20195
895.405	20202
895.526	20069
895.648	20153
895.769	20267
895.891	20263
896.012	20248
896.134	20244
896.255	20206
896.376	20206
896.498	20157
896.619	20244
896.74	20187
896.861	20187
896.982	20606
897.103	20648
897.224	20473
897.345	20438
897.466	20427
897.587	20457
897.708	20434
897.828	20522
897.949	20385
898.07	20362
898.19	20385
898.311	20473
898.431	20366
898.552	20473
898.672	20461
898.792	20358
898.913	20465
899.033	20419
899.153	20252
899.273	20084
899.393	20134
899.513	20176
899.633	20286
899.753	20191
899.873	20180
899.993	20191
900.113	20039
900.232	20081
900.352	20046
900.472	19936
900.591	19955
900.711	19997
900.83	19902
900.95	20001
901.069	19913
901.189	19849
901.308	19643
901.427	19476
901.546	19430
901.665	19491
901.784	19483
901.904	19301
902.023	19274
902.141	19050
902.26	19129
902.379	19133
902.498	19012
902.617	18909
902.735	19107
902.854	19072
902.973	18973
903.091	18745
903.21	18684
903.328	18745
903.446	18665
903.565	18448
903.683	18601
903.801	18437
903.919	18414
904.038	18486
904.156	18338
904.274	18342
904.392	18308
904.51	18220
904.627	18209
904.745	18338
904.863	18273
904.981	18041
905.098	17961
905.216	17973
905.334	18015
905.451	17923
905.569	18030
905.686	17889
905.803	17961
905.921	17630
906.038	17878
906.155	17699
906.272	17596
906.389	17649
906.506	17455
906.623	17524
906.74	17577
906.857	17512
906.974	17372
907.091	17459
907.208	17608
907.324	17554
907.441	17337
907.557	17216
907.674	17056
907.79	17105
907.907	17147
908.023	17216
908.139	17128
908.256	17162
908.372	16999
908.488	16995
908.604	16873
908.72	16904
908.836	16938
908.952	16953
909.068	16999
909.184	17151
909.3	16919
909.415	16896
909.531	16972
909.647	16702
909.762	16637
909.878	16577
909.993	16618
910.108	16683
910.224	16508
910.339	16634
910.454	16558
910.57	16398
910.685	16367
910.8	16485
910.915	16550
911.03	16390
911.145	16348
911.259	16226
911.374	16158
911.489	16147
911.604	16040
911.718	15975
911.833	15987
911.947	15884
912.062	15835
912.176	16006
912.291	15975
912.405	15838
912.519	16143
912.633	16147
912.748	16017
912.862	15854
912.976	15679
913.09	15679
913.204	15739
913.318	15709
913.431	15831
913.545	15812
913.659	15930
913.772	15694
913.886	15629
914	15591
914.113	15675
914.226	15644
914.34	15603
914.453	15538
914.566	15576
914.68	15561
914.793	15401
914.906	15226
915.019	15252
915.132	15070
915.245	15188
915.358	15062
915.47	15211
915.583	15252
915.696	15188
915.809	15340
915.921	15359
916.034	15157
916.146	15135
916.259	14998
916.371	15119
916.483	15001
916.595	15039
916.708	15036
916.82	15017
916.932	14975
917.044	15062
917.156	14887
917.268	14864
917.38	14792
917.491	14765
917.603	14823
917.715	14933
917.826	14941
917.938	14838
918.049	14659
918.161	14701
918.272	14944
918.384	14868
918.495	14727
918.606	14644
918.717	14454
918.828	14598
918.939	14712
919.05	14423
919.161	14518
919.272	14370
919.383	14461
919.494	14564
919.604	14857
919.715	14503
919.826	14400
919.936	14427
920.047	14564
920.157	14511
920.267	14739
920.378	14438
920.488	14442
920.598	14659
920.708	14788
920.818	14667
920.928	14598
921.038	14902
921.148	14807
921.258	14446
921.368	14336
921.477	14256
921.587	14183
921.697	14168
921.806	14320
921.916	14092
922.025	13993
922.134	13875
922.244	13890
922.353	13860
922.462	13833
922.571	13685
922.68	13552
922.789	13525
922.898	13662
923.007	13510
923.116	13643
923.224	13548
923.333	13525
923.442	13411
923.55	13514
923.659	13373
923.767	13453
923.876	13285
923.984	13426
924.092	13270
924.201	13308
924.309	13396
924.417	13316
924.525	13236
924.633	13194
924.741	14180
924.849	12962
924.956	13213
925.064	13034
925.172	12924
925.279	12943
925.387	12954
925.494	13038
925.602	13061
925.709	13065
925.816	12890
925.924	12947
926.031	12977
926.138	12985
926.245	13046
926.352	12825
926.459	12951
926.566	13027
926.673	12856
926.779	12749
926.886	12692
926.993	12635
927.099	12555
927.206	12475
927.312	12452
927.419	12528
927.525	12631
927.631	12566
927.737	12483
927.843	12350
927.95	12247
928.056	12334
928.162	12376
928.267	12372
928.373	12947
928.479	12441
928.585	12262
928.69	12319
928.796	12323
928.901	12262
929.007	12045
929.112	12232
929.218	12152
929.323	12110
929.428	12007
929.533	12190
929.638	12041
929.743	12083
929.848	12060
929.953	12019
930.058	11946
930.163	11764
930.267	11798
930.372	11923
930.477	11718
930.581	11946
930.685	11783
930.79	11657
930.894	11783
930.998	11703
931.103	11836
931.207	11474
931.311	11383
931.415	11261
931.519	11117
931.623	11022
