Data from test_V78500241_3362.txt Node
Date: Fri Mar 25 16:05:05 CST 2022
User: usil
Spectrometer: V785-0024
Trigger mode: 0
Integration Time (sec): 4.000000E-1
Scans to average: 1
Nonlinearity correction enabled: false
Boxcar width: 0
Storing dark spectrum: false
XAxis mode: Wavelengths
Number of Pixels in Spectrum: 1024
>>>>>Begin Spectral Data<<<<<
801.071	28858
801.214	29033
801.356	28691
801.499	28607
801.641	28409
801.783	28554
801.926	28538
802.068	28535
802.211	28497
802.353	28314
802.496	28291
802.638	28356
802.78	28234
802.923	28192
803.065	28074
803.208	28143
803.35	28329
803.492	28451
803.635	28497
803.777	28409
803.919	28363
804.061	28767
804.204	28607
804.346	28318
804.488	28356
804.63	28500
804.773	28352
804.915	28569
805.057	28626
805.199	28569
805.341	28622
805.483	28694
805.626	28607
805.768	28679
805.91	28687
806.052	28588
806.194	28588
806.336	28885
806.478	28596
806.62	28664
806.762	28702
806.904	29022
807.046	29307
807.188	29075
807.33	29037
807.472	29132
807.614	29037
807.756	29094
807.898	29025
808.04	28847
808.182	28934
808.324	28930
808.465	28999
808.607	29185
808.749	29440
808.891	29509
809.033	29433
809.174	29433
809.316	29322
809.458	29273
809.6	29185
809.741	29406
809.883	29417
810.025	29630
810.166	29707
810.308	29741
810.45	29581
810.591	29520
810.733	29524
810.875	29353
811.016	29303
811.158	29235
811.299	29486
811.441	29657
811.582	29566
811.724	29204
811.865	29471
812.007	29410
812.148	29505
812.29	29524
812.431	29520
812.573	29809
812.714	29847
812.855	29893
812.997	29904
813.138	30178
813.279	30022
813.421	29870
813.562	30003
813.703	29745
813.845	29585
813.986	29414
814.127	29151
814.268	29075
814.41	28999
814.551	29006
814.692	29136
814.833	29052
814.974	29033
815.115	29212
815.256	28927
815.397	28934
815.539	28927
815.68	28953
815.821	28892
815.962	28976
816.103	28858
816.244	28706
816.385	28535
816.526	28744
816.666	28512
816.807	28341
816.948	28417
817.089	28432
817.23	28401
817.371	28322
817.512	28443
817.653	28538
817.793	28367
817.934	28432
818.075	28409
818.216	28474
818.356	28436
818.497	28276
818.638	28291
818.778	28207
818.919	28246
819.06	28306
819.2	28394
819.341	28459
819.481	28436
819.622	28611
819.762	28809
819.903	28618
820.043	28641
820.184	28455
820.324	28424
820.465	28550
820.605	28538
820.746	28424
820.886	28424
821.026	28481
821.167	28615
821.307	28626
821.447	28466
821.588	28344
821.728	28215
821.868	28093
822.008	28021
822.149	27956
822.289	27873
822.429	27732
822.569	27466
822.709	27648
822.849	27405
822.99	27321
823.13	27291
823.27	27344
823.41	27237
823.55	27131
823.69	27264
823.83	27127
823.97	27264
824.11	27116
824.25	27093
824.389	27138
824.529	27203
824.669	27089
824.809	27157
824.949	27173
825.089	27150
825.228	27085
825.368	26906
825.508	26887
825.648	26960
825.787	27017
825.927	26929
826.067	26986
826.206	26899
826.346	27085
826.485	27013
826.625	27009
826.765	27020
826.904	27058
827.044	26518
827.183	26575
827.323	26670
827.462	26758
827.601	26727
827.741	26743
827.88	26587
828.02	26579
828.159	26697
828.298	26678
828.437	26686
828.577	26530
828.716	26724
828.855	26514
828.994	26370
829.134	26423
829.273	26446
829.412	26294
829.551	26355
829.69	26374
829.829	26339
829.968	26381
830.107	26484
830.246	26415
830.385	26309
830.524	26248
830.663	26084
830.802	26164
830.941	25932
831.08	25913
831.219	26012
831.357	25997
831.496	26107
831.635	25944
831.774	25947
831.913	25849
832.051	25871
832.19	25856
832.329	25708
832.467	25742
832.606	25609
832.744	25643
832.883	25590
833.022	25681
833.16	25761
833.299	25624
833.437	25837
833.576	25776
833.714	25769
833.852	25753
833.991	25765
834.129	25811
834.267	25655
834.406	25761
834.544	25731
834.682	25662
834.821	25639
834.959	25811
835.097	25624
835.235	25753
835.373	25757
835.511	25537
835.65	25533
835.788	25559
835.926	25422
836.064	25293
836.202	25468
836.34	25521
836.478	25601
836.615	25506
836.753	25468
836.891	25449
837.029	25533
837.167	25502
837.305	25365
837.443	25590
837.58	25358
837.718	25407
837.856	25373
837.993	25304
838.131	25331
838.269	25228
838.406	25209
838.544	25263
838.681	24928
838.819	24962
838.956	24772
839.094	24802
839.231	24829
839.369	24996
839.506	25175
839.643	25145
839.781	24810
839.918	24787
840.055	24852
840.193	24791
840.33	24673
840.467	24802
840.604	24776
840.742	25000
840.879	24612
841.016	24688
841.153	24616
841.29	24920
841.427	24749
841.564	24749
841.701	24700
841.838	24528
841.975	24593
842.112	24585
842.249	24559
842.385	24460
842.522	24703
842.659	24505
842.796	24391
842.933	24452
843.069	24448
843.206	24456
843.343	24585
843.479	24490
843.616	24498
843.752	24235
843.889	24372
844.025	24525
844.162	24289
844.298	24361
844.435	24228
844.571	24281
844.708	24243
844.844	24365
844.98	24380
845.117	24258
845.253	24186
845.389	24190
845.525	24087
845.661	23999
845.798	23977
845.934	24034
846.07	23901
846.206	23973
846.342	24076
846.478	24030
846.614	23733
846.75	23684
846.886	23767
847.022	23733
847.158	23794
847.294	23589
847.429	23684
847.565	23783
847.701	23794
847.837	23592
847.972	23421
848.108	23531
848.244	23566
848.379	23299
848.515	23280
848.65	23189
848.786	23395
848.921	23235
849.057	23471
849.192	23379
849.328	23273
849.463	23315
849.598	23250
849.734	23178
849.869	23170
850.004	23010
850.14	23060
850.275	22908
850.41	22980
850.545	22915
850.68	22987
850.815	23079
850.95	23071
851.085	23220
851.22	23208
851.355	23048
851.49	23048
851.625	23060
851.76	23052
851.895	23018
852.03	23094
852.165	23041
852.299	23109
852.434	23075
852.569	23041
852.703	22972
852.838	23105
852.973	23204
853.107	23250
853.242	22987
853.376	22812
853.511	22755
853.645	22843
853.78	22965
853.914	22850
854.048	22801
854.183	22839
854.317	22908
854.451	23010
854.585	22816
854.72	23022
854.854	22930
854.988	22976
855.122	22957
855.256	22771
855.39	22919
855.524	23060
855.658	22976
855.792	22881
855.926	22889
856.06	22900
856.194	22816
856.327	22740
856.461	22843
856.595	22717
856.729	22740
856.862	23003
856.996	22904
857.13	22930
857.263	22946
857.397	22831
857.53	22873
857.664	22980
857.797	22995
857.931	22942
858.064	22930
858.197	23056
858.331	22854
858.464	22797
858.597	22790
858.731	22733
858.864	22759
858.997	22702
859.13	22911
859.263	22843
859.396	22927
859.529	22786
859.662	22850
859.795	22763
859.928	22850
860.061	23098
860.194	22923
860.327	22824
860.46	22820
860.592	23090
860.725	23006
860.858	22976
860.99	22980
861.123	22748
861.256	22782
861.388	22850
861.521	23592
861.653	22771
861.786	22706
861.918	22763
862.05	22782
862.183	22786
862.315	22793
862.447	22828
862.58	22672
862.712	22527
862.844	22447
862.976	22675
863.108	22622
863.24	23048
863.372	22500
863.504	22546
863.636	22550
863.768	22752
863.9	22710
864.032	22550
864.164	22497
864.296	22577
864.428	22675
864.559	22683
864.691	22660
864.823	22584
864.954	22637
865.086	22497
865.217	22443
865.349	22371
865.48	22459
865.612	22440
865.743	22516
865.875	22424
866.006	22398
866.137	22523
866.269	22432
866.4	22375
866.531	22424
866.662	22356
866.793	22333
866.924	22291
867.055	22421
867.186	22371
867.317	22398
867.448	22249
867.579	22314
867.71	22265
867.841	22287
867.972	22360
868.103	22314
868.233	22295
868.364	22436
868.495	22653
868.625	22599
868.756	22664
868.886	22546
869.017	22653
869.147	22634
869.278	22752
869.408	22713
869.539	22599
869.669	22634
869.799	22672
869.929	22717
870.06	22664
870.19	22900
870.32	22911
870.45	23006
870.58	22949
870.71	23121
870.84	23083
870.97	22972
871.1	23010
871.23	23242
871.36	23083
871.489	23098
871.619	23105
871.749	23220
871.879	23417
872.008	23280
872.138	23204
872.267	23288
872.397	23018
872.526	23090
872.656	23189
872.785	22946
872.915	23231
873.044	23265
873.173	23181
873.303	23322
873.432	23136
873.561	23360
873.69	23197
873.819	23254
873.948	23277
874.077	23220
874.206	23326
874.335	23227
874.464	23353
874.593	23391
874.722	23429
874.851	23512
874.979	23398
875.108	23501
875.237	23395
875.365	23311
875.494	23395
875.623	23531
875.751	23455
875.88	23592
876.008	23570
876.136	23684
876.265	23745
876.393	24091
876.521	23863
876.65	23870
876.778	23859
876.906	23737
877.034	23874
877.162	23783
877.29	23863
877.418	23760
877.546	23798
877.674	23805
877.802	23828
877.93	23798
878.058	23767
878.185	23623
878.313	23722
878.441	23840
878.568	23653
878.696	23756
878.824	23802
878.951	23874
879.079	23889
879.206	24049
879.333	23969
879.461	23756
879.588	23935
879.715	23992
879.842	23908
879.97	23946
880.097	23680
880.224	23627
880.351	23604
880.478	23604
880.605	23524
880.732	23543
880.859	23756
880.986	23596
881.112	23573
881.239	23490
881.366	23280
881.493	23216
881.619	23170
881.746	23170
881.872	23155
881.999	23117
882.125	23041
882.252	23185
882.378	23102
882.505	23208
882.631	23014
882.757	22881
882.883	22908
883.01	22987
883.136	22702
883.262	22710
883.388	22634
883.514	22763
883.64	22801
883.766	22656
883.892	22535
884.018	22573
884.143	22607
884.269	22881
884.395	22497
884.52	22344
884.646	22440
884.772	22462
884.897	22280
885.023	22341
885.148	22508
885.274	22550
885.399	22599
885.524	22512
885.65	22542
885.775	22443
885.9	22299
886.025	22508
886.15	22497
886.275	22394
886.4	22238
886.525	22508
886.65	22493
886.775	22344
886.9	22542
887.025	22603
887.149	22341
887.274	22246
887.399	22223
887.523	22196
887.648	22272
887.773	22204
887.897	22318
888.021	22143
888.146	22105
888.27	22257
888.395	22329
888.519	22211
888.643	22139
888.767	22219
888.891	22032
889.015	21972
889.139	22143
889.263	21907
889.387	22086
889.511	22268
889.635	22055
889.759	21994
889.883	22048
890.006	22063
890.13	22086
890.254	21884
890.377	21937
890.501	21690
890.624	21553
890.748	21686
890.871	21614
890.995	21576
891.118	21458
891.241	21500
891.364	21504
891.488	21606
891.611	21473
891.734	21595
891.857	21561
891.98	21504
892.103	21644
892.226	21530
892.349	21542
892.471	21317
892.594	21473
892.717	21591
892.839	21321
892.962	21504
893.085	21439
893.207	21469
893.33	21275
893.452	21306
893.575	21458
893.697	21351
893.819	21462
893.941	21511
894.064	21610
894.186	21264
894.308	21332
894.43	21469
894.552	21515
894.674	21504
894.796	21378
894.918	21367
895.04	21359
895.161	21367
895.283	21447
895.405	21416
895.526	21310
895.648	21370
895.769	21435
895.891	21481
896.012	21507
896.134	21412
896.255	21382
896.376	21378
896.498	21428
896.619	21313
896.74	21370
896.861	21435
896.982	21728
897.103	21808
897.224	21778
897.345	21622
897.466	21511
897.587	21553
897.708	21675
897.828	21618
897.949	21542
898.07	21424
898.19	21515
898.311	21774
898.431	21416
898.552	21443
898.672	21599
898.792	21644
898.913	21625
899.033	21378
899.153	21370
899.273	21268
899.393	21317
899.513	21439
899.633	21435
899.753	21370
899.873	21268
899.993	21355
900.113	21313
900.232	21199
900.352	21180
900.472	21135
900.591	21055
900.711	21043
900.83	21089
900.95	21176
901.069	21131
901.189	20948
901.308	20648
901.427	20579
901.546	20499
901.665	20705
901.784	20617
901.904	20522
902.023	20408
902.141	20301
902.26	20107
902.379	20286
902.498	20130
902.617	20115
902.735	20122
902.854	20172
902.973	20046
903.091	19788
903.21	19696
903.328	19871
903.446	19784
903.565	19613
903.683	19563
903.801	19476
903.919	19476
904.038	19499
904.156	19575
904.274	19453
904.392	19301
904.51	19316
904.627	19285
904.745	19308
904.863	19453
904.981	19194
905.098	19088
905.216	19027
905.334	18996
905.451	19027
905.569	18966
905.686	19004
905.803	19004
905.921	18741
906.038	18848
906.155	18840
906.272	18650
906.389	18700
906.506	18574
906.623	18540
906.74	18593
906.857	18353
906.974	18467
907.091	18517
907.208	18719
907.324	18585
907.441	18372
907.557	18285
907.674	18281
907.79	18163
907.907	18228
908.023	18254
908.139	18251
908.256	18205
908.372	18095
908.488	18026
908.604	18038
908.72	17939
908.836	17992
908.952	17965
909.068	17916
909.184	17988
909.3	17927
909.415	17973
909.531	18030
909.647	17748
909.762	17657
909.878	17642
909.993	17589
910.108	17539
910.224	17638
910.339	17592
910.454	17520
910.57	17554
910.685	17337
910.8	17653
910.915	17505
911.03	17524
911.145	17246
911.259	17239
911.374	17200
911.489	17094
911.604	17056
911.718	16999
911.833	17029
911.947	16869
912.062	16744
912.176	16942
912.291	16885
912.405	16915
912.519	17075
912.633	17083
912.748	16961
912.862	16908
912.976	16801
913.09	16611
913.204	16812
913.318	16740
913.431	16797
913.545	16843
913.659	16862
913.772	16744
913.886	16603
914	16516
914.113	16558
914.226	16596
914.34	16500
914.453	16398
914.566	16546
914.68	16382
914.793	16265
914.906	16188
915.019	16116
915.132	16093
915.245	16082
915.358	16139
915.47	16177
915.583	16097
915.696	16147
915.809	16249
915.921	16177
916.034	16032
916.146	15972
916.259	15930
916.371	16002
916.483	16074
916.595	15949
916.708	15987
916.82	15994
916.932	15861
917.044	15827
917.156	15930
917.268	15747
917.38	15701
917.491	15633
917.603	15694
917.715	15831
917.826	15785
917.938	15614
918.049	15591
918.161	15789
918.272	15838
918.384	15842
918.495	15599
918.606	15492
918.717	15469
918.828	15511
918.939	15519
919.05	15287
919.161	15389
919.272	15291
919.383	15359
919.494	15431
919.604	15652
919.715	15332
919.826	15378
919.936	15431
920.047	15405
920.157	15378
920.267	15633
920.378	15386
920.488	15405
920.598	15622
920.708	15705
920.818	15378
920.928	15485
921.038	15648
921.148	15526
921.258	15325
921.368	15192
921.477	15077
921.587	15184
921.697	14937
921.806	15161
921.916	14990
922.025	14891
922.134	14872
922.244	14701
922.353	14796
922.462	14648
922.571	14560
922.68	14370
922.789	14442
922.898	14336
923.007	14358
923.116	14442
923.224	14320
923.333	14366
923.442	14278
923.55	14214
923.659	14176
923.767	14259
923.876	14237
923.984	14259
924.092	14043
924.201	14187
924.309	14134
924.417	14077
924.525	13982
924.633	14043
924.741	14967
924.849	13765
924.956	13970
925.064	13845
925.172	13731
925.279	13746
925.387	13769
925.494	13700
925.602	13780
925.709	13753
925.816	13723
925.924	13647
926.031	13772
926.138	13723
926.245	13662
926.352	13571
926.459	13693
926.566	13742
926.673	13605
926.779	13514
926.886	13464
926.993	13369
927.099	13316
927.206	13217
927.312	13228
927.419	13308
927.525	13331
927.631	13346
927.737	13194
927.843	13168
927.95	13091
928.056	13076
928.162	13152
928.267	13091
928.373	13693
928.479	13190
928.585	12901
928.69	13069
928.796	13061
928.901	13019
929.007	12817
929.112	12943
929.218	12837
929.323	12764
929.428	12779
929.533	12913
929.638	12764
929.743	12821
929.848	12840
929.953	12669
930.058	12631
930.163	12456
930.267	12471
930.372	12635
930.477	12471
930.581	12639
930.685	12498
930.79	12353
930.894	12399
930.998	12388
931.103	12429
931.207	12026
931.311	11980
931.415	11946
931.519	11748
931.623	11646
