Data from test_V78500241_3278.txt Node
Date: Fri Mar 25 16:04:30 CST 2022
User: usil
Spectrometer: V785-0024
Trigger mode: 0
Integration Time (sec): 4.000000E-1
Scans to average: 1
Nonlinearity correction enabled: false
Boxcar width: 0
Storing dark spectrum: false
XAxis mode: Wavelengths
Number of Pixels in Spectrum: 1024
>>>>>Begin Spectral Data<<<<<
801.071	28706
801.214	28782
801.356	28535
801.499	28440
801.641	28310
801.783	28500
801.926	28531
802.068	28466
802.211	28428
802.353	28306
802.496	28162
802.638	28055
802.78	28029
802.923	28078
803.065	27953
803.208	27956
803.35	27949
803.492	28280
803.635	28341
803.777	28291
803.919	28295
804.061	28527
804.204	28401
804.346	28188
804.488	28291
804.63	28249
804.773	28230
804.915	28219
805.057	28508
805.199	28249
805.341	28554
805.483	28603
805.626	28478
805.768	28424
805.91	28413
806.052	28466
806.194	28417
806.336	28557
806.478	28459
806.62	28580
806.762	28527
806.904	28672
807.046	28862
807.188	28790
807.33	28957
807.472	29128
807.614	28645
807.756	28946
807.898	28763
808.04	28843
808.182	28725
808.324	28774
808.465	28915
808.607	29067
808.749	29307
808.891	29113
809.033	29311
809.174	29345
809.316	29067
809.458	29185
809.6	29113
809.741	29246
809.883	29254
810.025	29482
810.166	29547
810.308	29398
810.45	29227
810.591	29334
810.733	29109
810.875	29178
811.016	29189
811.158	29162
811.299	29265
811.441	29315
811.582	29425
811.724	29197
811.865	29235
812.007	29269
812.148	29181
812.29	29197
812.431	29356
812.573	29490
812.714	29551
812.855	29729
812.997	29718
813.138	29794
813.279	29870
813.421	29699
813.562	29745
813.703	29436
813.845	29299
813.986	29151
814.127	28873
814.268	28976
814.41	28953
814.551	28828
814.692	28934
814.833	28862
814.974	28938
815.115	28896
815.256	28904
815.397	28790
815.539	28744
815.68	28694
815.821	28786
815.962	28801
816.103	28675
816.244	28531
816.385	28550
816.526	28443
816.666	28284
816.807	28284
816.948	28211
817.089	28348
817.23	28219
817.371	28131
817.512	28162
817.653	28223
817.793	28105
817.934	28158
818.075	28185
818.216	28360
818.356	28036
818.497	28086
818.638	27972
818.778	28070
818.919	28090
819.06	27998
819.2	28143
819.341	28128
819.481	28246
819.622	28428
819.762	28618
819.903	28645
820.043	28478
820.184	28280
820.324	28398
820.465	28531
820.605	28421
820.746	28322
820.886	28223
821.026	28322
821.167	28390
821.307	28390
821.447	28268
821.588	28200
821.728	28082
821.868	27800
822.008	27717
822.149	27675
822.289	27682
822.429	27568
822.569	27382
822.709	27488
822.849	27169
822.99	27325
823.13	27195
823.27	27264
823.41	27104
823.55	27032
823.69	27032
823.83	27051
823.97	27039
824.11	26777
824.25	26773
824.389	27001
824.529	27028
824.669	26910
824.809	27005
824.949	26914
825.089	27024
825.228	26883
825.368	26743
825.508	26727
825.648	26701
825.787	26746
825.927	26868
826.067	26811
826.206	26663
826.346	26910
826.485	26845
826.625	26686
826.765	26963
826.904	26811
827.044	26636
827.183	26602
827.323	26484
827.462	26621
827.601	26408
827.741	26511
827.88	26374
828.02	26393
828.159	26446
828.298	26556
828.437	26560
828.577	26419
828.716	26503
828.855	26290
828.994	26142
829.134	26122
829.273	26290
829.412	26138
829.551	26195
829.69	26172
829.829	26229
829.968	26267
830.107	26077
830.246	26267
830.385	26229
830.524	26130
830.663	26046
830.802	26107
830.941	25791
831.08	25849
831.219	25970
831.357	25894
831.496	25970
831.635	25811
831.774	25727
831.913	25719
832.051	25719
832.19	25643
832.329	25651
832.467	25373
832.606	25460
832.744	25289
832.883	25259
833.022	25358
833.16	25567
833.299	25544
833.437	25487
833.576	25506
833.714	25445
833.852	25655
833.991	25533
834.129	25681
834.267	25635
834.406	25582
834.544	25563
834.682	25438
834.821	25464
834.959	25674
835.097	25430
835.235	25388
835.373	25430
835.511	25468
835.65	25308
835.788	25521
835.926	25293
836.064	25194
836.202	25263
836.34	25392
836.478	25365
836.615	25206
836.753	25308
836.891	25438
837.029	25388
837.167	25320
837.305	25114
837.443	25274
837.58	25050
837.718	25236
837.856	25221
837.993	25072
838.131	25145
838.269	25053
838.406	25118
838.544	24901
838.681	24791
838.819	24890
838.956	24642
839.094	24684
839.231	24661
839.369	24795
839.506	25042
839.643	24905
839.781	24505
839.918	24741
840.055	24604
840.193	24635
840.33	24551
840.467	24578
840.604	24574
840.742	24856
840.879	24414
841.016	24426
841.153	24464
841.29	24582
841.427	24505
841.564	24490
841.701	24555
841.838	24513
841.975	24426
842.112	24502
842.249	24323
842.385	24304
842.522	24433
842.659	24361
842.796	24216
842.933	24304
843.069	24254
843.206	24289
843.343	24475
843.479	24456
843.616	24247
843.752	24022
843.889	24095
844.025	24213
844.162	23870
844.298	24292
844.435	24068
844.571	24076
844.708	24098
844.844	24174
844.98	24144
845.117	24152
845.253	24018
845.389	23992
845.525	24087
845.661	23946
845.798	23809
845.934	23855
846.07	23703
846.206	23821
846.342	23980
846.478	23783
846.614	23646
846.75	23452
846.886	23512
847.022	23589
847.158	23478
847.294	23471
847.429	23577
847.565	23490
847.701	23771
847.837	23212
847.972	23231
848.108	23235
848.244	23311
848.379	23147
848.515	23185
848.65	23140
848.786	23064
848.921	22957
849.057	23223
849.192	23147
849.328	23136
849.463	23174
849.598	23109
849.734	23044
849.869	22946
850.004	22885
850.14	23006
850.275	22866
850.41	22782
850.545	22691
850.68	22889
850.815	22972
850.95	22896
851.085	22995
851.22	22991
851.355	22835
851.49	22991
851.625	22911
851.76	22733
851.895	22809
852.03	22809
852.165	22885
852.299	22904
852.434	22885
852.569	22900
852.703	22809
852.838	22919
852.973	23025
853.107	22984
853.242	22850
853.376	22763
853.511	22615
853.645	22630
853.78	22839
853.914	22767
854.048	22672
854.183	22706
854.317	22702
854.451	22812
854.585	22702
854.72	22721
854.854	22820
854.988	22786
855.122	22679
855.256	22519
855.39	22748
855.524	22809
855.658	22717
855.792	22672
855.926	22626
856.06	22729
856.194	22786
856.327	22687
856.461	22607
856.595	22675
856.729	22672
856.862	22763
856.996	22809
857.13	22790
857.263	22904
857.397	22748
857.53	22622
857.664	22759
857.797	22778
857.931	22908
858.064	22698
858.197	22782
858.331	22717
858.464	22656
858.597	22538
858.731	22725
858.864	22653
858.997	22694
859.13	22763
859.263	22569
859.396	22729
859.529	22637
859.662	22596
859.795	22637
859.928	22710
860.061	22797
860.194	22839
860.327	22717
860.46	22744
860.592	22847
860.725	22949
860.858	22896
860.99	22672
861.123	22729
861.256	22580
861.388	22725
861.521	23239
861.653	22584
861.786	22519
861.918	22577
862.05	22679
862.183	22679
862.315	22580
862.447	22763
862.58	22618
862.712	22424
862.844	22348
862.976	22580
863.108	22516
863.24	22668
863.372	22375
863.504	22440
863.636	22455
863.768	22443
863.9	22344
864.032	22219
864.164	22421
864.296	22489
864.428	22424
864.559	22455
864.691	22428
864.823	22474
864.954	22318
865.086	22356
865.217	22238
865.349	22211
865.48	22272
865.612	22276
865.743	22436
865.875	22337
866.006	22253
866.137	22325
866.269	22234
866.4	22322
866.531	22242
866.662	22253
866.793	22017
866.924	22078
867.055	22284
867.186	22226
867.317	22105
867.448	22097
867.579	22055
867.71	22249
867.841	22124
867.972	22268
868.103	22150
868.233	22234
868.364	22177
868.495	22329
868.625	22440
868.756	22512
868.886	22386
869.017	22474
869.147	22554
869.278	22405
869.408	22371
869.539	22485
869.669	22565
869.799	22417
869.929	22584
870.06	22497
870.19	22713
870.32	22790
870.45	22733
870.58	22782
870.71	22904
870.84	22915
870.97	22850
871.1	22679
871.23	22854
871.36	22961
871.489	22980
871.619	23010
871.749	23098
871.879	23102
872.008	23231
872.138	23124
872.267	23132
872.397	22965
872.526	22790
872.656	22885
872.785	22961
872.915	23010
873.044	22987
873.173	23193
873.303	23033
873.432	23086
873.561	23094
873.69	22984
873.819	22995
873.948	23204
874.077	23117
874.206	23014
874.335	23094
874.464	23155
874.593	23124
874.722	23185
874.851	23296
874.979	23299
875.108	23155
875.237	23242
875.365	23147
875.494	23185
875.623	23307
875.751	23360
875.88	23265
876.008	23330
876.136	23463
876.265	23592
876.393	23802
876.521	23802
876.65	23718
876.778	23684
876.906	23684
877.034	23619
877.162	23752
877.29	23592
877.418	23726
877.546	23726
877.674	23592
877.802	23589
877.93	23691
878.058	23573
878.185	23471
878.313	23543
878.441	23474
878.568	23372
878.696	23562
878.824	23627
878.951	23703
879.079	23931
879.206	23908
879.333	23912
879.461	23680
879.588	23729
879.715	23836
879.842	24007
879.97	23729
880.097	23482
880.224	23364
880.351	23516
880.478	23589
880.605	23387
880.732	23520
880.859	23699
880.986	23425
881.112	23490
881.239	23254
881.366	23170
881.493	23064
881.619	23029
881.746	23025
881.872	22976
881.999	22919
882.125	22816
882.252	22999
882.378	23010
882.505	22999
882.631	22889
882.757	22713
882.883	22664
883.01	22710
883.136	22744
883.262	22538
883.388	22413
883.514	22626
883.64	22626
883.766	22504
883.892	22493
884.018	22546
884.143	22554
884.269	22713
884.395	22398
884.52	22261
884.646	22360
884.772	22223
884.897	22166
885.023	22265
885.148	22310
885.274	22451
885.399	22405
885.524	22402
885.65	22249
885.775	22443
885.9	22329
886.025	22421
886.15	22333
886.275	22310
886.4	22162
886.525	22360
886.65	22276
886.775	22101
886.9	22390
887.025	22462
887.149	22185
887.274	22211
887.399	22124
887.523	22177
887.648	22021
887.773	22010
887.897	22154
888.021	22063
888.146	21953
888.27	22082
888.395	22128
888.519	22013
888.643	22139
888.767	22169
888.891	21895
889.015	21888
889.139	21838
889.263	21682
889.387	22090
889.511	22032
889.635	21991
889.759	21865
889.883	21880
890.006	21854
890.13	21915
890.254	21861
890.377	21759
890.501	21606
890.624	21603
890.748	21603
890.871	21458
890.995	21526
891.118	21348
891.241	21367
891.364	21424
891.488	21553
891.611	21405
891.734	21382
891.857	21412
891.98	21416
892.103	21370
892.226	21420
892.349	21374
892.471	21138
892.594	21279
892.717	21252
892.839	21256
892.962	21173
893.085	21367
893.207	21237
893.33	21142
893.452	21207
893.575	21382
893.697	21275
893.819	21454
893.941	21530
894.064	21386
894.186	21214
894.308	21260
894.43	21393
894.552	21405
894.674	21321
894.796	21127
894.918	21279
895.04	21256
895.161	21313
895.283	21348
895.405	21275
895.526	21226
895.648	21192
895.769	21192
895.891	21214
896.012	21428
896.134	21249
896.255	21260
896.376	21241
896.498	21176
896.619	21344
896.74	21123
896.861	21268
896.982	21542
897.103	21606
897.224	21504
897.345	21424
897.466	21408
897.587	21523
897.708	21633
897.828	21351
897.949	21473
898.07	21230
898.19	21454
898.311	21542
898.431	21325
898.552	21458
898.672	21420
898.792	21458
898.913	21538
899.033	21462
899.153	21230
899.273	21157
899.393	21116
899.513	21154
899.633	21275
899.753	21226
899.873	21207
899.993	21207
900.113	21077
900.232	21058
900.352	21058
900.472	20952
900.591	20826
900.711	21001
900.83	20834
900.95	21119
901.069	20933
901.189	20849
901.308	20636
901.427	20522
901.546	20446
901.665	20526
901.784	20575
901.904	20355
902.023	20275
902.141	20054
902.26	19986
902.379	20218
902.498	20024
902.617	19944
902.735	19993
902.854	19978
902.973	19845
903.091	19681
903.21	19537
903.328	19605
903.446	19537
903.565	19301
903.683	19506
903.801	19312
903.919	19415
904.038	19362
904.156	19354
904.274	19365
904.392	19152
904.51	19194
904.627	19228
904.745	19213
904.863	19373
904.981	19072
905.098	18970
905.216	18856
905.334	18844
905.451	18886
905.569	18863
905.686	18989
905.803	18882
905.921	18681
906.038	18753
906.155	18597
906.272	18540
906.389	18677
906.506	18338
906.623	18395
906.74	18475
906.857	18220
906.974	18254
907.091	18426
907.208	18490
907.324	18486
907.441	18277
907.557	18140
907.674	18155
907.79	18064
907.907	18011
908.023	18091
908.139	18144
908.256	18098
908.372	17954
908.488	17965
908.604	17946
908.72	17870
908.836	17904
908.952	17745
909.068	17920
909.184	17920
909.3	17847
909.415	17923
909.531	17870
909.647	17566
909.762	17516
909.878	17467
909.993	17551
910.108	17398
910.224	17455
910.339	17490
910.454	17391
910.57	17360
910.685	17178
910.8	17558
910.915	17509
911.03	17379
911.145	17128
911.259	17113
911.374	17098
911.489	16999
911.604	16938
911.718	16824
911.833	16892
911.947	16812
912.062	16698
912.176	16793
912.291	16797
912.405	16850
912.519	17151
912.633	17010
912.748	16793
912.862	16828
912.976	16603
913.09	16474
913.204	16634
913.318	16679
913.431	16721
913.545	16611
913.659	16664
913.772	16702
913.886	16481
914	16337
914.113	16527
914.226	16504
914.34	16485
914.453	16280
914.566	16504
914.68	16276
914.793	16261
914.906	16139
915.019	16021
915.132	15964
915.245	15979
915.358	16097
915.47	16086
915.583	16059
915.696	15937
915.809	16063
915.921	16211
916.034	16025
916.146	15819
916.259	15880
916.371	15949
916.483	15930
916.595	15755
916.708	15835
916.82	15934
916.932	15823
917.044	15842
917.156	15728
917.268	15682
917.38	15736
917.491	15675
917.603	15644
917.715	15660
917.826	15694
917.938	15549
918.049	15488
918.161	15561
918.272	15747
918.384	15751
918.495	15572
918.606	15397
918.717	15367
918.828	15287
918.939	15359
919.05	15214
919.161	15264
919.272	15165
919.383	15211
919.494	15355
919.604	15450
919.715	15256
919.826	15237
919.936	15249
920.047	15329
920.157	15233
920.267	15504
920.378	15264
920.488	15218
920.598	15412
920.708	15576
920.818	15447
920.928	15435
921.038	15633
921.148	15469
921.258	15241
921.368	15173
921.477	15001
921.587	14998
921.697	14880
921.806	15009
921.916	14956
922.025	14777
922.134	14678
922.244	14625
922.353	14754
922.462	14560
922.571	14484
922.68	14366
922.789	14290
922.898	14294
923.007	14199
923.116	14377
923.224	14259
923.333	14176
923.442	14123
923.55	14111
923.659	14084
923.767	14123
923.876	14088
923.984	14138
924.092	13989
924.201	14126
924.309	13963
924.417	14065
924.525	13970
924.633	13913
924.741	14682
924.849	13822
924.956	13784
925.064	13704
925.172	13708
925.279	13670
925.387	13753
925.494	13704
925.602	13753
925.709	13670
925.816	13514
925.924	13643
926.031	13693
926.138	13480
926.245	13719
926.352	13582
926.459	13632
926.566	13700
926.673	13495
926.779	13453
926.886	13434
926.993	13206
927.099	13247
927.206	13171
927.312	13194
927.419	13327
927.525	13202
927.631	13209
927.737	13129
927.843	13084
927.95	12875
928.056	13012
928.162	13088
928.267	13000
928.373	13616
928.479	13057
928.585	12954
928.69	13053
928.796	12939
928.901	12928
929.007	12745
929.112	12859
929.218	12806
929.323	12677
929.428	12669
929.533	12779
929.638	12635
929.743	12722
929.848	12623
929.953	12631
930.058	12494
930.163	12437
930.267	12452
930.372	12483
930.477	12281
930.581	12570
930.685	12391
930.79	12319
930.894	12311
930.998	12292
931.103	12334
931.207	11977
931.311	12011
931.415	11961
931.519	11611
931.623	11657
