Data from test_V78500241_2724.txt Node
Date: Fri Mar 25 16:00:40 CST 2022
User: usil
Spectrometer: V785-0024
Trigger mode: 0
Integration Time (sec): 4.000000E-1
Scans to average: 1
Nonlinearity correction enabled: false
Boxcar width: 0
Storing dark spectrum: false
XAxis mode: Wavelengths
Number of Pixels in Spectrum: 1024
>>>>>Begin Spectral Data<<<<<
801.071	28869
801.214	28618
801.356	28592
801.499	28516
801.641	28386
801.783	28363
801.926	28493
802.068	28394
802.211	28344
802.353	28242
802.496	28006
802.638	28139
802.78	28162
802.923	27991
803.065	28109
803.208	27873
803.35	28006
803.492	28169
803.635	28318
803.777	28147
803.919	28348
804.061	28603
804.204	28375
804.346	28280
804.488	28162
804.63	28417
804.773	28234
804.915	28401
805.057	28615
805.199	28390
805.341	28424
805.483	28584
805.626	28432
805.768	28421
805.91	28660
806.052	28504
806.194	28363
806.336	28607
806.478	28424
806.62	28405
806.762	28577
806.904	28900
807.046	29033
807.188	28881
807.33	28965
807.472	29037
807.614	28858
807.756	28828
807.898	28755
808.04	28873
808.182	28725
808.324	28812
808.465	28934
808.607	28980
808.749	29056
808.891	29395
809.033	29277
809.174	29212
809.316	29090
809.458	29086
809.6	29124
809.741	29223
809.883	29375
810.025	29444
810.166	29539
810.308	29368
810.45	29444
810.591	29387
810.733	29223
810.875	29181
811.016	29181
811.158	29128
811.299	29246
811.441	29444
811.582	29417
811.724	29280
811.865	29341
812.007	29166
812.148	29204
812.29	29307
812.431	29395
812.573	29653
812.714	29699
812.855	29748
812.997	29802
813.138	29946
813.279	29882
813.421	29840
813.562	29672
813.703	29577
813.845	29429
813.986	29292
814.127	28991
814.268	28915
814.41	29044
814.551	28984
814.692	29052
814.833	28984
814.974	28919
815.115	28877
815.256	28881
815.397	28755
815.539	28767
815.68	28740
815.821	28664
815.962	28831
816.103	28710
816.244	28603
816.385	28596
816.526	28474
816.666	28211
816.807	28246
816.948	28280
817.089	28337
817.23	28310
817.371	28185
817.512	28272
817.653	28211
817.793	28150
817.934	28215
818.075	28386
818.216	28188
818.356	28242
818.497	28166
818.638	27987
818.778	28021
818.919	28032
819.06	28055
819.2	28154
819.341	28348
819.481	28230
819.622	28413
819.762	28535
819.903	28611
820.043	28417
820.184	28322
820.324	28344
820.465	28504
820.605	28417
820.746	28329
820.886	28242
821.026	28382
821.167	28413
821.307	28451
821.447	28440
821.588	28299
821.728	28048
821.868	27876
822.008	27770
822.149	27770
822.289	27838
822.429	27405
822.569	27313
822.709	27355
822.849	27367
822.99	27340
823.13	27180
823.27	27169
823.41	27154
823.55	26986
823.69	27127
823.83	27108
823.97	27024
824.11	26906
824.25	26781
824.389	26750
824.529	26914
824.669	26979
824.809	27009
824.949	27032
825.089	26925
825.228	26975
825.368	26769
825.508	26823
825.648	26762
825.787	26804
825.927	26940
826.067	26815
826.206	26750
826.346	26819
826.485	26872
826.625	26849
826.765	26826
826.904	26895
827.044	26606
827.183	26636
827.323	26469
827.462	26606
827.601	26480
827.741	26450
827.88	26629
828.02	26362
828.159	26503
828.298	26511
828.437	26492
828.577	26450
828.716	26552
828.855	26389
828.994	26248
829.134	26263
829.273	26256
829.412	26168
829.551	26119
829.69	26142
829.829	26187
829.968	26305
830.107	26309
830.246	26138
830.385	25959
830.524	26016
830.663	25959
830.802	25997
830.941	25681
831.08	25826
831.219	25883
831.357	25822
831.496	25997
831.635	25723
831.774	25712
831.913	25655
832.051	25651
832.19	25556
832.329	25624
832.467	25696
832.606	25483
832.744	25377
832.883	25438
833.022	25358
833.16	25582
833.299	25400
833.437	25362
833.576	25521
833.714	25518
833.852	25632
833.991	25616
834.129	25510
834.267	25753
834.406	25578
834.544	25696
834.682	25441
834.821	25445
834.959	25765
835.097	25544
835.235	25449
835.373	25567
835.511	25544
835.65	25354
835.788	25472
835.926	25133
836.064	25213
836.202	25171
836.34	25411
836.478	25381
836.615	25400
836.753	25339
836.891	25335
837.029	25403
837.167	25339
837.305	25339
837.443	25198
837.58	25228
837.718	25107
837.856	25232
837.993	25042
838.131	25213
838.269	25038
838.406	24996
838.544	24992
838.681	24768
838.819	24760
838.956	24566
839.094	24654
839.231	24825
839.369	24783
839.506	25008
839.643	24886
839.781	24700
839.918	24604
840.055	24578
840.193	24589
840.33	24574
840.467	24494
840.604	24620
840.742	24867
840.879	24528
841.016	24517
841.153	24525
841.29	24665
841.427	24521
841.564	24513
841.701	24509
841.838	24563
841.975	24414
842.112	24448
842.249	24391
842.385	24243
842.522	24513
842.659	24330
842.796	24273
842.933	24376
843.069	24292
843.206	24266
843.343	24422
843.479	24300
843.616	24429
843.752	24136
843.889	24152
844.025	24235
844.162	24091
844.298	24220
844.435	24102
844.571	23977
844.708	24197
844.844	24273
844.98	24239
845.117	24125
845.253	24060
845.389	23908
845.525	24095
845.661	23931
845.798	23832
845.934	23760
846.07	23821
846.206	23775
846.342	23866
846.478	23771
846.614	23577
846.75	23512
846.886	23551
847.022	23642
847.158	23509
847.294	23547
847.429	23531
847.565	23501
847.701	23790
847.837	23261
847.972	23086
848.108	23288
848.244	23185
848.379	23193
848.515	23151
848.65	23155
848.786	23124
848.921	23143
849.057	23181
849.192	23223
849.328	23269
849.463	23128
849.598	23018
849.734	22999
849.869	23086
850.004	22824
850.14	22843
850.275	22911
850.41	22771
850.545	22889
850.68	22767
850.815	22877
850.95	22809
851.085	23166
851.22	22938
851.355	22881
851.49	22934
851.625	22733
851.76	22835
851.895	22778
852.03	22885
852.165	22866
852.299	22999
852.434	22805
852.569	23044
852.703	22843
852.838	22854
852.973	23029
853.107	22889
853.242	22767
853.376	22592
853.511	22550
853.645	22672
853.78	22877
853.914	22755
854.048	22683
854.183	22653
854.317	22812
854.451	22927
854.585	22763
854.72	22744
854.854	22790
854.988	22615
855.122	22790
855.256	22573
855.39	22687
855.524	22736
855.658	22691
855.792	22812
855.926	22668
856.06	22759
856.194	22782
856.327	22618
856.461	22596
856.595	22668
856.729	22717
856.862	22774
856.996	22717
857.13	22664
857.263	22904
857.397	22706
857.53	22645
857.664	22797
857.797	22668
857.931	22866
858.064	22653
858.197	22850
858.331	22626
858.464	22599
858.597	22565
858.731	22683
858.864	22512
858.997	22675
859.13	22630
859.263	22805
859.396	22839
859.529	22637
859.662	22596
859.795	22626
859.928	22573
860.061	22752
860.194	22908
860.327	22755
860.46	22710
860.592	22847
860.725	22759
860.858	22824
860.99	22812
861.123	22588
861.256	22706
861.388	22725
861.521	23417
861.653	22637
861.786	22432
861.918	22470
862.05	22698
862.183	22508
862.315	22626
862.447	22710
862.58	22599
862.712	22382
862.844	22481
862.976	22554
863.108	22447
863.24	22862
863.372	22318
863.504	22443
863.636	22341
863.768	22485
863.9	22363
864.032	22341
864.164	22337
864.296	22440
864.428	22379
864.559	22500
864.691	22459
864.823	22512
864.954	22341
865.086	22318
865.217	22177
865.349	22265
865.48	22090
865.612	22363
865.743	22314
865.875	22242
866.006	22211
866.137	22287
866.269	22295
866.4	22257
866.531	22246
866.662	22166
866.793	22131
866.924	22223
867.055	22276
867.186	22287
867.317	22059
867.448	22112
867.579	22166
867.71	22150
867.841	22093
867.972	22280
868.103	22120
868.233	22234
868.364	22211
868.495	22261
868.625	22485
868.756	22466
868.886	22428
869.017	22451
869.147	22489
869.278	22470
869.408	22550
869.539	22417
869.669	22592
869.799	22569
869.929	22573
870.06	22656
870.19	22812
870.32	22691
870.45	22706
870.58	22885
870.71	22908
870.84	22858
870.97	22816
871.1	22797
871.23	23041
871.36	22995
871.489	22892
871.619	22995
871.749	23079
871.879	23067
872.008	23147
872.138	23033
872.267	23018
872.397	22957
872.526	22866
872.656	22839
872.785	22965
872.915	23124
873.044	23223
873.173	23105
873.303	23090
873.432	23025
873.561	23113
873.69	22987
873.819	23025
873.948	23064
874.077	23048
874.206	22995
874.335	23044
874.464	23254
874.593	23178
874.722	23239
874.851	23273
874.979	23261
875.108	23273
875.237	23220
875.365	23174
875.494	23159
875.623	23193
875.751	23379
875.88	23311
876.008	23486
876.136	23520
876.265	23737
876.393	23771
876.521	23661
876.65	23722
876.778	23646
876.906	23630
877.034	23642
877.162	23630
877.29	23642
877.418	23695
877.546	23661
877.674	23703
877.802	23668
877.93	23615
878.058	23531
878.185	23566
878.313	23562
878.441	23581
878.568	23383
878.696	23478
878.824	23649
878.951	23707
879.079	23920
879.206	24003
879.333	23726
879.461	23570
879.588	23623
879.715	23707
879.842	23878
879.97	23824
880.097	23509
880.224	23459
880.351	23414
880.478	23467
880.605	23364
880.732	23459
880.859	23463
880.986	23463
881.112	23391
881.239	23315
881.366	23242
881.493	23151
881.619	23041
881.746	23083
881.872	23025
881.999	22968
882.125	22961
882.252	23037
882.378	22805
882.505	23071
882.631	22774
882.757	22736
882.883	22672
883.01	22637
883.136	22561
883.262	22550
883.388	22538
883.514	22710
883.64	22721
883.766	22713
883.892	22421
884.018	22428
884.143	22577
884.269	22656
884.395	22421
884.52	22295
884.646	22261
884.772	22204
884.897	22150
885.023	22363
885.148	22398
885.274	22440
885.399	22341
885.524	22337
885.65	22375
885.775	22287
885.9	22257
886.025	22352
886.15	22287
886.275	22253
886.4	22299
886.525	22280
886.65	22272
886.775	22284
886.9	22299
887.025	22489
887.149	22314
887.274	22040
887.399	22070
887.523	22006
887.648	21998
887.773	22040
887.897	21991
888.021	22067
888.146	22044
888.27	22101
888.395	22147
888.519	22128
888.643	22070
888.767	22139
888.891	21934
889.015	21934
889.139	21861
889.263	21937
889.387	21846
889.511	22048
889.635	22002
889.759	21922
889.883	21682
890.006	21895
890.13	21930
890.254	21854
890.377	21755
890.501	21576
890.624	21564
890.748	21690
890.871	21496
890.995	21393
891.118	21329
891.241	21355
891.364	21496
891.488	21488
891.611	21439
891.734	21405
891.857	21454
891.98	21336
892.103	21386
892.226	21382
892.349	21272
892.471	21100
892.594	21192
892.717	21332
892.839	21195
892.962	21245
893.085	21272
893.207	21313
893.33	21150
893.452	21173
893.575	21294
893.697	21260
893.819	21488
893.941	21481
894.064	21431
894.186	21146
894.308	21173
894.43	21256
894.552	21572
894.674	21256
894.796	21192
894.918	21214
895.04	21241
895.161	21378
895.283	21188
895.405	21264
895.526	21378
895.648	21275
895.769	21222
895.891	21116
896.012	21382
896.134	21310
896.255	21287
896.376	21199
896.498	21241
896.619	21264
896.74	21332
896.861	21348
896.982	21507
897.103	21610
897.224	21439
897.345	21405
897.466	21340
897.587	21473
897.708	21595
897.828	21473
897.949	21374
898.07	21241
898.19	21344
898.311	21408
898.431	21367
898.552	21447
898.672	21428
898.792	21523
898.913	21408
899.033	21279
899.153	21275
899.273	21119
899.393	21233
899.513	21272
899.633	21077
899.753	21089
899.873	21043
899.993	21169
900.113	21089
900.232	21237
900.352	20956
900.472	20986
900.591	20982
900.711	20906
900.83	20933
900.95	21017
901.069	21001
901.189	20819
901.308	20503
901.427	20389
901.546	20541
901.665	20606
901.784	20404
901.904	20385
902.023	20259
902.141	20191
902.26	20103
902.379	20050
902.498	20043
902.617	19921
902.735	19871
902.854	19963
902.973	19898
903.091	19651
903.21	19651
903.328	19594
903.446	19597
903.565	19514
903.683	19491
903.801	19270
903.919	19411
904.038	19369
904.156	19240
904.274	19324
904.392	19206
904.51	19213
904.627	19206
904.745	19225
904.863	19327
904.981	18962
905.098	18856
905.216	18875
905.334	18962
905.451	18863
905.569	18939
905.686	18913
905.803	18871
905.921	18730
906.038	18639
906.155	18715
906.272	18525
906.389	18601
906.506	18452
906.623	18395
906.74	18357
906.857	18296
906.974	18369
907.091	18506
907.208	18467
907.324	18308
907.441	18262
907.557	18072
907.674	18117
907.79	18022
907.907	17973
908.023	18125
908.139	18110
908.256	18121
908.372	17920
908.488	17992
908.604	17920
908.72	17870
908.836	17809
908.952	17790
909.068	17893
909.184	17980
909.3	17920
909.415	17893
909.531	17680
909.647	17524
909.762	17524
909.878	17406
909.993	17539
910.108	17376
910.224	17535
910.339	17471
910.454	17398
910.57	17246
910.685	17296
910.8	17589
910.915	17417
911.03	17398
911.145	17185
911.259	17140
911.374	16991
911.489	16934
911.604	16995
911.718	16752
911.833	16805
911.947	16850
912.062	16786
912.176	16774
912.291	16774
912.405	16816
912.519	16930
912.633	17041
912.748	16831
912.862	16881
912.976	16694
913.09	16535
913.204	16637
913.318	16527
913.431	16767
913.545	16675
913.659	16763
913.772	16706
913.886	16504
914	16352
914.113	16535
914.226	16550
914.34	16440
914.453	16219
914.566	16504
914.68	16246
914.793	16303
914.906	16116
915.019	15956
915.132	16029
915.245	15888
915.358	15903
915.47	15949
915.583	16010
915.696	16036
915.809	16082
915.921	16063
916.034	15998
916.146	15876
916.259	15880
916.371	15983
916.483	15915
916.595	15915
916.708	15797
916.82	15762
916.932	15823
917.044	15903
917.156	15686
917.268	15663
917.38	15599
917.491	15568
917.603	15663
917.715	15690
917.826	15766
917.938	15458
918.049	15401
918.161	15629
918.272	15770
918.384	15701
918.495	15557
918.606	15416
918.717	15325
918.828	15439
918.939	15325
919.05	15287
919.161	15416
919.272	15138
919.383	15230
919.494	15310
919.604	15576
919.715	15408
919.826	15192
919.936	15313
920.047	15370
920.157	15211
920.267	15530
920.378	15313
920.488	15279
920.598	15408
920.708	15584
920.818	15363
920.928	15500
921.038	15652
921.148	15534
921.258	15302
921.368	15066
921.477	14921
921.587	15123
921.697	14941
921.806	15024
921.916	14944
922.025	14796
922.134	14625
922.244	14590
922.353	14788
922.462	14571
922.571	14495
922.68	14377
922.789	14275
922.898	14389
923.007	14233
923.116	14320
923.224	14358
923.333	14225
923.442	14123
923.55	14202
923.659	14145
923.767	14107
923.876	14145
923.984	14123
924.092	14001
924.201	14130
924.309	14027
924.417	14043
924.525	13963
924.633	14020
924.741	14811
924.849	13719
924.956	13875
925.064	13788
925.172	13601
925.279	13616
925.387	13708
925.494	13696
925.602	13685
925.709	13662
925.816	13559
925.924	13643
926.031	13784
926.138	13662
926.245	13655
926.352	13548
926.459	13601
926.566	13696
926.673	13590
926.779	13369
926.886	13350
926.993	13221
927.099	13240
927.206	13095
927.312	13137
927.419	13152
927.525	13228
927.631	13209
927.737	13126
927.843	13023
927.95	12947
928.056	12985
928.162	12970
928.267	13061
928.373	13457
928.479	13069
928.585	12913
928.69	12905
928.796	13042
928.901	12863
929.007	12749
929.112	12867
929.218	12802
929.323	12783
929.428	12711
929.533	12810
929.638	12642
929.743	12700
929.848	12719
929.953	12642
930.058	12566
930.163	12338
930.267	12490
930.372	12502
930.477	12350
930.581	12525
930.685	12532
930.79	12308
930.894	12292
930.998	12270
931.103	12361
931.207	11958
931.311	11923
931.415	11855
931.519	11627
931.623	11592
