Data from test_V78500241_2552.txt Node
Date: Fri Mar 25 15:59:28 CST 2022
User: usil
Spectrometer: V785-0024
Trigger mode: 0
Integration Time (sec): 4.000000E-1
Scans to average: 1
Nonlinearity correction enabled: false
Boxcar width: 0
Storing dark spectrum: false
XAxis mode: Wavelengths
Number of Pixels in Spectrum: 1024
>>>>>Begin Spectral Data<<<<<
801.071	28778
801.214	28774
801.356	28485
801.499	28500
801.641	28363
801.783	28272
801.926	28306
802.068	28344
802.211	28215
802.353	28166
802.496	28078
802.638	28002
802.78	27880
802.923	27854
803.065	27857
803.208	27884
803.35	28006
803.492	28234
803.635	28265
803.777	28078
803.919	28188
804.061	28428
804.204	28344
804.346	28169
804.488	28139
804.63	28276
804.773	28192
804.915	28257
805.057	28272
805.199	28166
805.341	28257
805.483	28440
805.626	28169
805.768	28261
805.91	28382
806.052	28424
806.194	28314
806.336	28641
806.478	28363
806.62	28360
806.762	28440
806.904	28656
807.046	28953
807.188	28801
807.33	28812
807.472	28824
807.614	28866
807.756	28786
807.898	28713
808.04	28683
808.182	28683
808.324	28706
808.465	28691
808.607	29029
808.749	28984
808.891	29166
809.033	29200
809.174	29162
809.316	29140
809.458	29003
809.6	28938
809.741	29216
809.883	29208
810.025	29254
810.166	29356
810.308	29375
810.45	29391
810.591	29360
810.733	29098
810.875	29022
811.016	29204
811.158	28850
811.299	29056
811.441	29307
811.582	29246
811.724	29060
811.865	28923
812.007	29086
812.148	29105
812.29	29105
812.431	29284
812.573	29360
812.714	29577
812.855	29539
812.997	29646
813.138	29828
813.279	29657
813.421	29505
813.562	29478
813.703	29284
813.845	29261
813.986	29143
814.127	28835
814.268	28786
814.41	28835
814.551	28664
814.692	28736
814.833	28710
814.974	28778
815.115	28866
815.256	28683
815.397	28691
815.539	28649
815.68	28615
815.821	28443
815.962	28584
816.103	28622
816.244	28474
816.385	28257
816.526	28421
816.666	28154
816.807	27972
816.948	28211
817.089	28276
817.23	28006
817.371	28112
817.512	28116
817.653	28162
817.793	27998
817.934	28105
818.075	28105
818.216	28002
818.356	28010
818.497	27987
818.638	27819
818.778	27781
818.919	28021
819.06	27941
819.2	28086
819.341	28124
819.481	28219
819.622	28207
819.762	28375
819.903	28363
820.043	28390
820.184	28116
820.324	28139
820.465	28367
820.605	28207
820.746	28169
820.886	28120
821.026	28143
821.167	28230
821.307	28192
821.447	28067
821.588	28074
821.728	27949
821.868	27804
822.008	27557
822.149	27739
822.289	27538
822.429	27298
822.569	27264
822.709	27245
822.849	27138
822.99	27161
823.13	27093
823.27	26990
823.41	26994
823.55	26925
823.69	26834
823.83	26826
823.97	26891
824.11	26777
824.25	26758
824.389	26678
824.529	26754
824.669	26735
824.809	26895
824.949	26773
825.089	26853
825.228	26887
825.368	26518
825.508	26564
825.648	26613
825.787	26640
825.927	26663
826.067	26579
826.206	26648
826.346	26511
826.485	26617
826.625	26598
826.765	26773
826.904	26739
827.044	26453
827.183	26313
827.323	26240
827.462	26336
827.601	26434
827.741	26339
827.88	26514
828.02	26214
828.159	26324
828.298	26336
828.437	26393
828.577	26336
828.716	26499
828.855	26282
828.994	26134
829.134	26065
829.273	25982
829.412	26122
829.551	25879
829.69	25970
829.829	25966
829.968	26100
830.107	26107
830.246	26005
830.385	25955
830.524	26035
830.663	25830
830.802	25712
830.941	25586
831.08	25761
831.219	25742
831.357	25719
831.496	25871
831.635	25635
831.774	25559
831.913	25548
832.051	25381
832.19	25354
832.329	25464
832.467	25190
832.606	25320
832.744	25213
832.883	25259
833.022	25247
833.16	25228
833.299	25419
833.437	25430
833.576	25304
833.714	25304
833.852	25464
833.991	25304
834.129	25434
834.267	25308
834.406	25438
834.544	25369
834.682	25354
834.821	25438
834.959	25578
835.097	25259
835.235	25388
835.373	25221
835.511	25483
835.65	25129
835.788	25320
835.926	25088
836.064	25072
836.202	25019
836.34	25034
836.478	25190
836.615	25194
836.753	25236
836.891	25145
837.029	25183
837.167	25019
837.305	25076
837.443	25015
837.58	25050
837.718	25027
837.856	24973
837.993	24852
838.131	24920
838.269	24913
838.406	25008
838.544	24814
838.681	24646
838.819	24665
838.956	24384
839.094	24445
839.231	24505
839.369	24642
839.506	24825
839.643	24734
839.781	24509
839.918	24448
840.055	24448
840.193	24384
840.33	24471
840.467	24372
840.604	24426
840.742	24711
840.879	24228
841.016	24163
841.153	24266
841.29	24460
841.427	24407
841.564	24388
841.701	24395
841.838	24323
841.975	24361
842.112	24254
842.249	24095
842.385	24178
842.522	24388
842.659	24064
842.796	24155
842.933	24182
843.069	23988
843.206	24057
843.343	24228
843.479	24106
843.616	24064
843.752	23885
843.889	23977
844.025	23999
844.162	23775
844.298	23916
844.435	23996
844.571	23809
844.708	23950
844.844	24083
844.98	24087
845.117	23958
845.253	23794
845.389	23699
845.525	23771
845.661	23741
845.798	23680
845.934	23756
846.07	23611
846.206	23756
846.342	23745
846.478	23707
846.614	23303
846.75	23326
846.886	23376
847.022	23505
847.158	23410
847.294	23318
847.429	23395
847.565	23353
847.701	23528
847.837	23094
847.972	23121
848.108	23322
848.244	23109
848.379	22961
848.515	23006
848.65	23071
848.786	22999
848.921	22892
849.057	22972
849.192	23060
849.328	23010
849.463	22877
849.598	22889
849.734	22866
849.869	22805
850.004	22793
850.14	22740
850.275	22694
850.41	22710
850.545	22660
850.68	22550
850.815	22668
850.95	22713
851.085	22919
851.22	22702
851.355	22744
851.49	22691
851.625	22717
851.76	22809
851.895	22660
852.03	22653
852.165	22786
852.299	22839
852.434	22778
852.569	22736
852.703	22653
852.838	22831
852.973	22847
853.107	22805
853.242	22675
853.376	22512
853.511	22405
853.645	22538
853.78	22569
853.914	22531
854.048	22470
854.183	22493
854.317	22459
854.451	22679
854.585	22466
854.72	22542
854.854	22679
854.988	22466
855.122	22611
855.256	22371
855.39	22557
855.524	22656
855.658	22573
855.792	22478
855.926	22497
856.06	22599
856.194	22603
856.327	22417
856.461	22485
856.595	22550
856.729	22565
856.862	22504
856.996	22607
857.13	22561
857.263	22710
857.397	22588
857.53	22447
857.664	22622
857.797	22618
857.931	22557
858.064	22516
858.197	22649
858.331	22508
858.464	22405
858.597	22405
858.731	22557
858.864	22557
858.997	22386
859.13	22596
859.263	22474
859.396	22641
859.529	22455
859.662	22508
859.795	22348
859.928	22504
860.061	22649
860.194	22824
860.327	22573
860.46	22580
860.592	22607
860.725	22691
860.858	22615
860.99	22527
861.123	22474
861.256	22386
861.388	22493
861.521	23315
861.653	22424
861.786	22398
861.918	22485
862.05	22466
862.183	22405
862.315	22531
862.447	22538
862.58	22379
862.712	22211
862.844	22135
862.976	22325
863.108	22341
863.24	22694
863.372	22306
863.504	22344
863.636	22261
863.768	22291
863.9	22181
864.032	22200
864.164	22109
864.296	22150
864.428	22519
864.559	22303
864.691	22322
864.823	22181
864.954	22124
865.086	22204
865.217	22105
865.349	22181
865.48	22143
865.612	22162
865.743	22284
865.875	22211
866.006	22021
866.137	22006
866.269	22150
866.4	22029
866.531	22169
866.662	22048
866.793	22048
866.924	21975
867.055	22128
867.186	22040
867.317	22116
867.448	21994
867.579	21911
867.71	21846
867.841	21949
867.972	21983
868.103	22032
868.233	22131
868.364	22158
868.495	22162
868.625	22337
868.756	22363
868.886	22226
869.017	22268
869.147	22306
869.278	22489
869.408	22375
869.539	22409
869.669	22333
869.799	22287
869.929	22466
870.06	22246
870.19	22626
870.32	22546
870.45	22565
870.58	22759
870.71	22812
870.84	22748
870.97	22744
871.1	22729
871.23	22828
871.36	22991
871.489	22713
871.619	22839
871.749	22911
871.879	22938
872.008	22957
872.138	22934
872.267	22965
872.397	22778
872.526	22706
872.656	22645
872.785	22793
872.915	22843
873.044	22946
873.173	22812
873.303	22957
873.432	22873
873.561	23025
873.69	23033
873.819	22862
873.948	22904
874.077	22866
874.206	22839
874.335	22816
874.464	23060
874.593	23071
874.722	22984
874.851	23200
874.979	23041
875.108	23166
875.237	22889
875.365	22987
875.494	23174
875.623	23174
875.751	23170
875.88	23136
876.008	23280
876.136	23197
876.265	23531
876.393	23547
876.521	23520
876.65	23497
876.778	23577
876.906	23455
877.034	23444
877.162	23334
877.29	23364
877.418	23501
877.546	23459
877.674	23372
877.802	23349
877.93	23421
878.058	23417
878.185	23364
878.313	23372
878.441	23337
878.568	23250
878.696	23433
878.824	23414
878.951	23665
879.079	23543
879.206	23665
879.333	23486
879.461	23524
879.588	23512
879.715	23589
879.842	23798
879.97	23566
880.097	23193
880.224	23307
880.351	23250
880.478	23372
880.605	23299
880.732	23402
880.859	23566
880.986	23159
881.112	23235
881.239	23147
881.366	22927
881.493	22946
881.619	22869
881.746	22877
881.872	22892
881.999	22816
882.125	22710
882.252	22965
882.378	22793
882.505	22877
882.631	22622
882.757	22554
882.883	22626
883.01	22489
883.136	22481
883.262	22333
883.388	22390
883.514	22577
883.64	22485
883.766	22455
883.892	22143
884.018	22344
884.143	22436
884.269	22481
884.395	22173
884.52	22093
884.646	22093
884.772	22196
884.897	21937
885.023	22234
885.148	22284
885.274	22303
885.399	22303
885.524	22166
885.65	22219
885.775	22105
885.9	22192
886.025	22177
886.15	22154
886.275	22067
886.4	21972
886.525	22101
886.65	22131
886.775	22044
886.9	22188
887.025	22314
887.149	22116
887.274	22029
887.399	21823
887.523	21934
887.648	21869
887.773	21739
887.897	22055
888.021	21884
888.146	21831
888.27	22078
888.395	21888
888.519	21922
888.643	21926
888.767	21979
888.891	21888
889.015	21762
889.139	21701
889.263	21587
889.387	21831
889.511	21827
889.635	21762
889.759	21717
889.883	21679
890.006	21728
890.13	21838
890.254	21564
890.377	21656
890.501	21496
890.624	21378
890.748	21481
890.871	21439
890.995	21310
891.118	21176
891.241	21283
891.364	21321
891.488	21279
891.611	21363
891.734	21283
891.857	21294
891.98	21180
892.103	21233
892.226	21287
892.349	21203
892.471	21005
892.594	21142
892.717	21036
892.839	21268
892.962	21077
893.085	21119
893.207	21074
893.33	20982
893.452	20963
893.575	21188
893.697	21116
893.819	21268
893.941	21317
894.064	21161
894.186	21108
894.308	21070
894.43	21203
894.552	21241
894.674	21146
894.796	21055
894.918	21047
895.04	21085
895.161	21100
895.283	21085
895.405	21070
895.526	21108
895.648	21024
895.769	21233
895.891	21207
896.012	21150
896.134	21165
896.255	21081
896.376	21207
896.498	21051
896.619	21112
896.74	21032
896.861	21146
896.982	21382
897.103	21488
897.224	21241
897.345	21313
897.466	21260
897.587	21408
897.708	21492
897.828	21214
897.949	21317
898.07	21173
898.19	21165
898.311	21325
898.431	21188
898.552	21218
898.672	21325
898.792	21329
898.913	21310
899.033	21070
899.153	21062
899.273	21051
899.393	21013
899.513	20956
899.633	20979
899.753	20994
899.873	20876
899.993	21077
900.113	20849
900.232	20906
900.352	21024
900.472	20986
900.591	20754
900.711	20838
900.83	20792
900.95	20941
901.069	20758
901.189	20804
901.308	20438
901.427	20259
901.546	20396
901.665	20339
901.784	20370
901.904	20381
902.023	20271
902.141	19902
902.26	19906
902.379	19921
902.498	19887
902.617	19871
902.735	19906
902.854	19875
902.973	19780
903.091	19510
903.21	19544
903.328	19525
903.446	19350
903.565	19438
903.683	19324
903.801	19202
903.919	19388
904.038	19278
904.156	19129
904.274	19171
904.392	19133
904.51	19000
904.627	19034
904.745	19069
904.863	19126
904.981	18886
905.098	18631
905.216	18707
905.334	18795
905.451	18837
905.569	18738
905.686	18734
905.803	18757
905.921	18544
906.038	18700
906.155	18494
906.272	18506
906.389	18563
906.506	18292
906.623	18281
906.74	18296
906.857	18140
906.974	18144
907.091	18262
907.208	18334
907.324	18418
907.441	18243
907.557	18019
907.674	17973
907.79	18041
907.907	17855
908.023	18106
908.139	17840
908.256	17893
908.372	17870
908.488	17851
908.604	17668
908.72	17687
908.836	17703
908.952	17653
909.068	17733
909.184	17843
909.3	17748
909.415	17684
909.531	17703
909.647	17429
909.762	17474
909.878	17539
909.993	17459
910.108	17478
910.224	17326
910.339	17345
910.454	17277
910.57	17284
910.685	17132
910.8	17421
910.915	17376
911.03	17128
911.145	17045
911.259	17041
911.374	16904
911.489	16919
911.604	16847
911.718	16683
911.833	16801
911.947	16546
912.062	16596
912.176	16812
912.291	16748
912.405	16717
912.519	16980
912.633	16824
912.748	16717
912.862	16679
912.976	16558
913.09	16344
913.204	16470
913.318	16573
913.431	16561
913.545	16592
913.659	16493
913.772	16386
913.886	16329
914	16382
914.113	16432
914.226	16443
914.34	16367
914.453	16192
914.566	16249
914.68	16196
914.793	16158
914.906	15975
915.019	15941
915.132	15861
915.245	15869
915.358	15857
915.47	15975
915.583	15945
915.696	15956
915.809	15975
915.921	16036
916.034	15861
916.146	15797
916.259	15831
916.371	15827
916.483	15679
916.595	15770
916.708	15663
916.82	15675
916.932	15656
917.044	15633
917.156	15584
917.268	15538
917.38	15538
917.491	15485
917.603	15557
917.715	15622
917.826	15614
917.938	15401
918.049	15264
918.161	15370
918.272	15545
918.384	15519
918.495	15416
918.606	15317
918.717	15192
918.828	15230
918.939	15268
919.05	15161
919.161	15180
919.272	15013
919.383	15039
919.494	15336
919.604	15500
919.715	15249
919.826	15123
919.936	15142
920.047	15310
920.157	15272
920.267	15313
920.378	15268
920.488	15241
920.598	15378
920.708	15454
920.818	15340
920.928	15359
921.038	15481
921.148	15408
921.258	15081
921.368	15074
921.477	14861
921.587	15009
921.697	14811
921.806	14960
921.916	14765
922.025	14655
922.134	14503
922.244	14457
922.353	14552
922.462	14518
922.571	14358
922.68	14180
922.789	14328
922.898	14237
923.007	14149
923.116	14214
923.224	14168
923.333	14199
923.442	14001
923.55	14043
923.659	14058
923.767	14069
923.876	13963
923.984	14043
924.092	13955
924.201	13925
924.309	13925
924.417	13902
924.525	13826
924.633	13788
924.741	14663
924.849	13719
924.956	13655
925.064	13662
925.172	13499
925.279	13601
925.387	13586
925.494	13491
925.602	13708
925.709	13601
925.816	13426
925.924	13563
926.031	13556
926.138	13502
926.245	13487
926.352	13464
926.459	13525
926.566	13575
926.673	13407
926.779	13362
926.886	13365
926.993	13183
927.099	13137
927.206	13065
927.312	13015
927.419	13137
927.525	13137
927.631	13080
927.737	12962
927.843	12958
927.95	12806
928.056	12966
928.162	12935
928.267	12962
928.373	13449
928.479	13004
928.585	12825
928.69	12837
928.796	12943
928.901	12776
929.007	12650
929.112	12768
929.218	12764
929.323	12654
929.428	12635
929.533	12734
929.638	12544
929.743	12532
929.848	12639
929.953	12578
930.058	12509
930.163	12315
930.267	12296
930.372	12506
930.477	12292
930.581	12464
930.685	12437
930.79	12209
930.894	12277
930.998	12114
931.103	12213
931.207	11912
931.311	11840
931.415	11760
931.519	11577
931.623	11554
