Data from test_V78500241_1287.txt Node
Date: Fri Mar 25 15:50:43 CST 2022
User: usil
Spectrometer: V785-0024
Trigger mode: 0
Integration Time (sec): 4.000000E-1
Scans to average: 1
Nonlinearity correction enabled: false
Boxcar width: 0
Storing dark spectrum: false
XAxis mode: Wavelengths
Number of Pixels in Spectrum: 1024
>>>>>Begin Spectral Data<<<<<
801.071	28382
801.214	28500
801.356	28238
801.499	28131
801.641	28082
801.783	28070
801.926	28029
802.068	28021
802.211	28029
802.353	27911
802.496	27663
802.638	27701
802.78	27720
802.923	27500
803.065	27580
803.208	27591
803.35	27686
803.492	27781
803.635	27774
803.777	27884
803.919	27945
804.061	28040
804.204	27960
804.346	27808
804.488	27762
804.63	27732
804.773	27641
804.915	27895
805.057	27884
805.199	27960
805.341	27895
805.483	28063
805.626	27960
805.768	27918
805.91	28109
806.052	27934
806.194	27899
806.336	28188
806.478	28154
806.62	28230
806.762	28158
806.904	28234
807.046	28626
807.188	28489
807.33	28535
807.472	28550
807.614	28394
807.756	28516
807.898	28348
808.04	28249
808.182	28215
808.324	28375
808.465	28398
808.607	28577
808.749	28672
808.891	28717
809.033	28828
809.174	28805
809.316	28672
809.458	28843
809.6	28668
809.741	28687
809.883	28812
810.025	28949
810.166	28999
810.308	29212
810.45	28866
810.591	28786
810.733	28847
810.875	28748
811.016	28607
811.158	28588
811.299	28812
811.441	28949
811.582	28793
811.724	28706
811.865	28854
812.007	28679
812.148	28710
812.29	28778
812.431	29006
812.573	28968
812.714	29117
812.855	29246
812.997	29414
813.138	29417
813.279	29467
813.421	29185
813.562	29159
813.703	28984
813.845	29029
813.986	28778
814.127	28527
814.268	28440
814.41	28470
814.551	28360
814.692	28535
814.833	28500
814.974	28333
815.115	28516
815.256	28238
815.397	28348
815.539	28318
815.68	28322
815.821	28116
815.962	28375
816.103	28162
816.244	28067
816.385	28090
816.526	28078
816.666	27922
816.807	27618
816.948	27888
817.089	27808
817.23	27842
817.371	27717
817.512	27637
817.653	27663
817.793	27545
817.934	27739
818.075	27762
818.216	27671
818.356	27717
818.497	27557
818.638	27564
818.778	27618
818.919	27515
819.06	27591
819.2	27549
819.341	27694
819.481	27869
819.622	27816
819.762	28124
819.903	28059
820.043	27941
820.184	27686
820.324	27861
820.465	27979
820.605	27842
820.746	27861
820.886	27675
821.026	27762
821.167	27884
821.307	27812
821.447	27800
821.588	27637
821.728	27496
821.868	27348
822.008	27344
822.149	27283
822.289	27317
822.429	26967
822.569	26933
822.709	26880
822.849	26697
822.99	26686
823.13	26777
823.27	26686
823.41	26651
823.55	26476
823.69	26651
823.83	26526
823.97	26571
824.11	26313
824.25	26358
824.389	26370
824.529	26358
824.669	26366
824.809	26579
824.949	26438
825.089	26419
825.228	26492
825.368	26259
825.508	26278
825.648	26202
825.787	26366
825.927	26259
826.067	26233
826.206	26206
826.346	26400
826.485	26347
826.625	26263
826.765	26294
826.904	26244
827.044	26027
827.183	26096
827.323	25833
827.462	25932
827.601	25947
827.741	26001
827.88	26050
828.02	25856
828.159	25955
828.298	25974
828.437	26058
828.577	25860
828.716	26111
828.855	25871
828.994	25582
829.134	25613
829.273	25674
829.412	25666
829.551	25502
829.69	25616
829.829	25727
829.968	25788
830.107	25727
830.246	25685
830.385	25727
830.524	25499
830.663	25525
830.802	25400
830.941	25358
831.08	25156
831.219	25358
831.357	25419
831.496	25346
831.635	25221
831.774	25148
831.913	25012
832.051	25088
832.19	25015
832.329	25103
832.467	24924
832.606	24924
832.744	24859
832.883	24958
833.022	24890
833.16	24894
833.299	24954
833.437	24947
833.576	25164
833.714	25046
833.852	25038
833.991	24989
834.129	25080
834.267	25065
834.406	24977
834.544	25008
834.682	24966
834.821	25019
834.959	25255
835.097	24867
835.235	25118
835.373	24913
835.511	25042
835.65	24852
835.788	24837
835.926	24738
836.064	24631
836.202	24661
836.34	24894
836.478	24894
836.615	24673
836.753	24814
836.891	24913
837.029	24707
837.167	24684
837.305	24749
837.443	24738
837.58	24703
837.718	24604
837.856	24597
837.993	24555
838.131	24661
838.269	24681
838.406	24574
838.544	24513
838.681	24376
838.819	24300
838.956	23920
839.094	24079
839.231	24277
839.369	24235
839.506	24532
839.643	24433
839.781	24155
839.918	24038
840.055	24121
840.193	24083
840.33	24030
840.467	24007
840.604	24076
840.742	24391
840.879	23912
841.016	23923
841.153	23775
841.29	24018
841.427	23992
841.564	24136
841.701	23912
841.838	23980
841.975	24045
842.112	23992
842.249	23954
842.385	23794
842.522	23988
842.659	23904
842.796	23851
842.933	23680
843.069	23726
843.206	23703
843.343	23870
843.479	23794
843.616	23779
843.752	23596
843.889	23634
844.025	23646
844.162	23433
844.298	23722
844.435	23497
844.571	23414
844.708	23554
844.844	23790
844.98	23528
845.117	23672
845.253	23577
845.389	23436
845.525	23425
845.661	23414
845.798	23315
845.934	23318
846.07	23227
846.206	23197
846.342	23410
846.478	23246
846.614	23090
846.75	22991
846.886	23060
847.022	23037
847.158	23014
847.294	23090
847.429	23056
847.565	22980
847.701	23223
847.837	22717
847.972	22691
848.108	22869
848.244	22809
848.379	22554
848.515	22523
848.65	22634
848.786	22592
848.921	22611
849.057	22771
849.192	22691
849.328	22649
849.463	22675
849.598	22489
849.734	22390
849.869	22413
850.004	22253
850.14	22500
850.275	22459
850.41	22249
850.545	22325
850.68	22207
850.815	22371
850.95	22356
851.085	22523
851.22	22538
851.355	22436
851.49	22424
851.625	22352
851.76	22242
851.895	22242
852.03	22318
852.165	22314
852.299	22356
852.434	22489
852.569	22390
852.703	22375
852.838	22417
852.973	22455
853.107	22531
853.242	22314
853.376	22265
853.511	22196
853.645	22078
853.78	22303
853.914	22105
854.048	22238
854.183	22200
854.317	22272
854.451	22390
854.585	22211
854.72	22166
854.854	22371
854.988	22128
855.122	22207
855.256	22242
855.39	22249
855.524	22253
855.658	22207
855.792	22158
855.926	22284
856.06	22181
856.194	22375
856.327	22154
856.461	22181
856.595	22124
856.729	22181
856.862	22299
856.996	22230
857.13	22242
857.263	22291
857.397	22333
857.53	22230
857.664	22219
857.797	22253
857.931	22261
858.064	22246
858.197	22337
858.331	22188
858.464	22082
858.597	21892
858.731	22226
858.864	22166
858.997	22272
859.13	22166
859.263	22204
859.396	22246
859.529	22204
859.662	22196
859.795	22131
859.928	22169
860.061	22462
860.194	22413
860.327	22253
860.46	22143
860.592	22337
860.725	22432
860.858	22462
860.99	22200
861.123	22051
861.256	22116
861.388	22112
861.521	22953
861.653	22139
861.786	21915
861.918	21968
862.05	22036
862.183	22048
862.315	21972
862.447	22238
862.58	22082
862.712	21876
862.844	21785
862.976	21850
863.108	21979
863.24	22291
863.372	21865
863.504	21816
863.636	21964
863.768	21907
863.9	22063
864.032	21812
864.164	21876
864.296	21888
864.428	21949
864.559	21926
864.691	21994
864.823	21968
864.954	21930
865.086	21876
865.217	21804
865.349	21762
865.48	21762
865.612	21831
865.743	21922
865.875	21911
866.006	21808
866.137	21622
866.269	21724
866.4	21778
866.531	21614
866.662	21724
866.793	21724
866.924	21629
867.055	21656
867.186	21663
867.317	21690
867.448	21846
867.579	21667
867.71	21641
867.841	21709
867.972	21755
868.103	21823
868.233	21747
868.364	21701
868.495	21854
868.625	21998
868.756	21983
868.886	21857
869.017	21983
869.147	22048
869.278	22112
869.408	22135
869.539	22078
869.669	22059
869.799	21998
869.929	22131
870.06	22078
870.19	22333
870.32	22112
870.45	22390
870.58	22268
870.71	22360
870.84	22432
870.97	22382
871.1	22379
871.23	22402
871.36	22474
871.489	22409
871.619	22409
871.749	22535
871.879	22466
872.008	22679
872.138	22599
872.267	22561
872.397	22367
872.526	22348
872.656	22348
872.785	22333
872.915	22504
873.044	22615
873.173	22508
873.303	22603
873.432	22599
873.561	22596
873.69	22622
873.819	22504
873.948	22664
874.077	22687
874.206	22588
874.335	22596
874.464	22733
874.593	22710
874.722	22828
874.851	22911
874.979	22801
875.108	22793
875.237	22736
875.365	22691
875.494	22736
875.623	22839
875.751	22786
875.88	22771
876.008	22847
876.136	23033
876.265	23239
876.393	23284
876.521	23235
876.65	23197
876.778	23025
876.906	23193
877.034	23044
877.162	23254
877.29	23029
877.418	23143
877.546	22976
877.674	23006
877.802	23124
877.93	23060
878.058	22991
878.185	22984
878.313	22938
878.441	23170
878.568	23006
878.696	23143
878.824	23170
878.951	23227
879.079	23246
879.206	23383
879.333	23368
879.461	23048
879.588	23273
879.715	23193
879.842	23463
879.97	23185
880.097	22972
880.224	22961
880.351	23109
880.478	23010
880.605	22976
880.732	22946
880.859	23071
880.986	22965
881.112	22908
881.239	22843
881.366	22634
881.493	22645
881.619	22443
881.746	22455
881.872	22417
881.999	22440
882.125	22382
882.252	22512
882.378	22527
882.505	22546
882.631	22284
882.757	22242
882.883	22215
883.01	22135
883.136	22029
883.262	22097
883.388	22051
883.514	22169
883.64	22173
883.766	22128
883.892	22010
884.018	21937
884.143	22150
884.269	22078
884.395	21926
884.52	21793
884.646	21846
884.772	21827
884.897	21610
885.023	21736
885.148	22002
885.274	21983
885.399	21918
885.524	21816
885.65	21713
885.775	21770
885.9	21789
886.025	21941
886.15	21857
886.275	21800
886.4	21660
886.525	21724
886.65	21732
886.775	21785
886.9	21846
887.025	21983
887.149	21682
887.274	21717
887.399	21477
887.523	21603
887.648	21572
887.773	21439
887.897	21625
888.021	21671
888.146	21523
888.27	21580
888.395	21466
888.519	21511
888.643	21599
888.767	21583
888.891	21462
889.015	21249
889.139	21473
889.263	21340
889.387	21443
889.511	21557
889.635	21458
889.759	21264
889.883	21306
890.006	21420
890.13	21454
890.254	21355
890.377	21302
890.501	21081
890.624	21104
890.748	21169
890.871	21066
890.995	20891
891.118	20883
891.241	20925
891.364	21005
891.488	21062
891.611	21001
891.734	20876
891.857	21001
891.98	20872
892.103	20952
892.226	20785
892.349	20804
892.471	20769
892.594	20792
892.717	20773
892.839	20849
892.962	20800
893.085	21005
893.207	20849
893.33	20655
893.452	20609
893.575	20754
893.697	20804
893.819	20967
893.941	21081
894.064	21077
894.186	20663
894.308	20731
894.43	20811
894.552	21055
894.674	20910
894.796	20754
894.918	20849
895.04	20727
895.161	20872
895.283	20785
895.405	20746
895.526	20815
895.648	20880
895.769	20937
895.891	20857
896.012	20830
896.134	20849
896.255	20861
896.376	20868
896.498	20727
896.619	20785
896.74	20834
896.861	20876
896.982	21051
897.103	21355
897.224	21017
897.345	21123
897.466	20956
897.587	20960
897.708	21081
897.828	21036
897.949	20929
898.07	20937
898.19	20933
898.311	20982
898.431	20975
898.552	20990
898.672	21123
898.792	21093
898.913	20994
899.033	20807
899.153	20739
899.273	20632
899.393	20796
899.513	20796
899.633	20788
899.753	20800
899.873	20762
899.993	20693
900.113	20594
900.232	20739
900.352	20556
900.472	20499
900.591	20419
900.711	20587
900.83	20408
900.95	20549
901.069	20648
901.189	20396
901.308	20134
901.427	20126
901.546	20096
901.665	20062
901.784	20096
901.904	20024
902.023	19818
902.141	19662
902.26	19613
902.379	19594
902.498	19540
902.617	19540
902.735	19658
902.854	19556
902.973	19540
903.091	19266
903.21	19308
903.328	19304
903.446	19141
903.565	19091
903.683	19091
903.801	19012
903.919	19046
904.038	19050
904.156	18825
904.274	18848
904.392	18768
904.51	18894
904.627	18768
904.745	18863
904.863	18840
904.981	18601
905.098	18563
905.216	18490
905.334	18536
905.451	18429
905.569	18380
905.686	18464
905.803	18422
905.921	18251
906.038	18353
906.155	18353
906.272	18148
906.389	18213
906.506	18007
906.623	18019
906.74	18026
906.857	17908
906.974	17961
907.091	18102
907.208	18095
907.324	17969
907.441	17847
907.557	17813
907.674	17805
907.79	17764
907.907	17718
908.023	17779
908.139	17695
908.256	17573
908.372	17577
908.488	17596
908.604	17459
908.72	17436
908.836	17440
908.952	17387
909.068	17452
909.184	17596
909.3	17379
909.415	17509
909.531	17387
909.647	17258
909.762	17162
909.878	17159
909.993	17151
910.108	17098
910.224	17075
910.339	17041
910.454	16999
910.57	16904
910.685	16896
910.8	17181
910.915	17064
911.03	16961
911.145	16812
911.259	16702
911.374	16721
911.489	16706
911.604	16584
911.718	16443
911.833	16500
911.947	16344
912.062	16337
912.176	16421
912.291	16481
912.405	16413
912.519	16641
912.633	16565
912.748	16424
912.862	16531
912.976	16268
913.09	16150
913.204	16211
913.318	16310
913.431	16363
913.545	16371
913.659	16310
913.772	16226
913.886	16147
914	15987
914.113	16173
914.226	16204
914.34	16116
914.453	15937
914.566	16135
914.68	15953
914.793	15869
914.906	15690
915.019	15724
915.132	15595
915.245	15599
915.358	15606
915.47	15610
915.583	15663
915.696	15637
915.809	15656
915.921	15755
916.034	15553
916.146	15538
916.259	15572
916.371	15625
916.483	15568
916.595	15454
916.708	15507
916.82	15523
916.932	15439
917.044	15420
917.156	15272
917.268	15275
917.38	15260
917.491	15214
917.603	15313
917.715	15298
917.826	15298
917.938	15252
918.049	15116
918.161	15150
918.272	15310
918.384	15294
918.495	15226
918.606	15165
918.717	14994
918.828	15119
918.939	14986
919.05	14956
919.161	15024
919.272	14716
919.383	14876
919.494	15024
919.604	15150
919.715	15089
919.826	14925
919.936	14960
920.047	14994
920.157	14971
920.267	15173
920.378	14986
920.488	14986
920.598	15272
920.708	15313
920.818	14998
920.928	15180
921.038	15203
921.148	15176
921.258	14883
921.368	14842
921.477	14762
921.587	14678
921.697	14598
921.806	14659
921.916	14560
922.025	14404
922.134	14343
922.244	14324
922.353	14370
922.462	14263
922.571	14092
922.68	14115
922.789	13967
922.898	13974
923.007	13944
923.116	13978
923.224	13951
923.333	13898
923.442	13826
923.55	13879
923.659	13742
923.767	13852
923.876	13841
923.984	13852
924.092	13518
924.201	13753
924.309	13662
924.417	13658
924.525	13658
924.633	13605
924.741	14575
924.849	13369
924.956	13613
925.064	13434
925.172	13350
925.279	13362
925.387	13354
925.494	13502
925.602	13483
925.709	13403
925.816	13244
925.924	13217
926.031	13362
926.138	13304
926.245	13365
926.352	13240
926.459	13339
926.566	13377
926.673	13232
926.779	13061
926.886	13126
926.993	12981
927.099	12989
927.206	12947
927.312	12905
927.419	12977
927.525	12954
927.631	12920
927.737	12863
927.843	12776
927.95	12658
928.056	12700
928.162	12779
928.267	12825
928.373	13324
928.479	12837
928.585	12540
928.69	12700
928.796	12757
928.901	12631
929.007	12426
929.112	12525
929.218	12585
929.323	12471
929.428	12414
929.533	12540
929.638	12445
929.743	12384
929.848	12361
929.953	12369
930.058	12304
930.163	12148
930.267	12114
930.372	12277
930.477	12068
930.581	12323
930.685	12197
930.79	11988
930.894	12102
930.998	11999
931.103	12178
931.207	11699
931.311	11714
931.415	11596
931.519	11372
931.623	11356
