Data from test_V78500241_454.txt Node
Date: Fri Mar 25 15:44:56 CST 2022
User: usil
Spectrometer: V785-0024
Trigger mode: 0
Integration Time (sec): 4.000000E-1
Scans to average: 1
Nonlinearity correction enabled: false
Boxcar width: 0
Storing dark spectrum: false
XAxis mode: Wavelengths
Number of Pixels in Spectrum: 1024
>>>>>Begin Spectral Data<<<<<
801.071	28325
801.214	28257
801.356	28029
801.499	28196
801.641	27880
801.783	27979
801.926	28070
802.068	27926
802.211	27759
802.353	27724
802.496	27595
802.638	27447
802.78	27500
802.923	27500
803.065	27351
803.208	27534
803.35	27530
803.492	27568
803.635	27728
803.777	27515
803.919	27713
804.061	27892
804.204	27576
804.346	27561
804.488	27606
804.63	27591
804.773	27568
804.915	27583
805.057	27739
805.199	27656
805.341	27488
805.483	27633
805.626	27785
805.768	27603
805.91	27846
806.052	27778
806.194	27713
806.336	27736
806.478	27759
806.62	27778
806.762	27838
806.904	27994
807.046	28310
807.188	28173
807.33	28025
807.472	28177
807.614	28147
807.756	27968
807.898	27922
808.04	27899
808.182	28044
808.324	28090
808.465	28154
808.607	28147
808.749	28333
808.891	28455
809.033	28634
809.174	28516
809.316	28596
809.458	28462
809.6	28291
809.741	28344
809.883	28459
810.025	28504
810.166	28782
810.308	28618
810.45	28531
810.591	28489
810.733	28542
810.875	28154
811.016	28154
811.158	28131
811.299	28508
811.441	28634
811.582	28596
811.724	28546
811.865	28287
812.007	28261
812.148	28147
812.29	28417
812.431	28596
812.573	28603
812.714	28713
812.855	28828
812.997	29044
813.138	29132
813.279	28934
813.421	28980
813.562	28976
813.703	28573
813.845	28405
813.986	28341
814.127	28086
814.268	28093
814.41	28032
814.551	27842
814.692	28154
814.833	27899
814.974	27937
815.115	28032
815.256	27914
815.397	27800
815.539	27876
815.68	27850
815.821	27747
815.962	27789
816.103	27717
816.244	27667
816.385	27572
816.526	27534
816.666	27427
816.807	27325
816.948	27268
817.089	27291
817.23	27340
817.371	27135
817.512	27291
817.653	27294
817.793	27256
817.934	27226
818.075	27165
818.216	27298
818.356	27230
818.497	27093
818.638	27104
818.778	26979
818.919	27047
819.06	27009
819.2	27020
819.341	27154
819.481	27245
819.622	27378
819.762	27302
819.903	27348
820.043	27424
820.184	27450
820.324	27287
820.465	27313
820.605	27226
820.746	27401
820.886	27332
821.026	27382
821.167	27192
821.307	27389
821.447	27268
821.588	27089
821.728	26960
821.868	26811
822.008	26667
822.149	26735
822.289	26701
822.429	26374
822.569	26278
822.709	26324
822.849	26221
822.99	26183
823.13	26187
823.27	25989
823.41	26058
823.55	25734
823.69	25849
823.83	26024
823.97	25784
824.11	25723
824.25	25712
824.389	25799
824.529	25803
824.669	26016
824.809	25772
824.949	25944
825.089	25864
825.228	25879
825.368	25586
825.508	25613
825.648	25670
825.787	25548
825.927	25552
826.067	25518
826.206	25624
826.346	25632
826.485	25658
826.625	25518
826.765	25712
826.904	25601
827.044	25217
827.183	25312
827.323	25297
827.462	25247
827.601	25396
827.741	25266
827.88	25324
828.02	25225
828.159	25164
828.298	25312
828.437	25255
828.577	25156
828.716	25445
828.855	25244
828.994	25107
829.134	24844
829.273	25107
829.412	25012
829.551	24924
829.69	24977
829.829	25034
829.968	25023
830.107	25091
830.246	24966
830.385	24909
830.524	24802
830.663	24867
830.802	24703
830.941	24498
831.08	24620
831.219	24707
831.357	24517
831.496	24768
831.635	24437
831.774	24395
831.913	24555
832.051	24372
832.19	24251
832.329	24490
832.467	24148
832.606	24171
832.744	24258
832.883	24216
833.022	24140
833.16	24209
833.299	24197
833.437	24300
833.576	24262
833.714	24243
833.852	24281
833.991	24277
834.129	24273
834.267	24308
834.406	24232
834.544	24346
834.682	24235
834.821	24273
834.959	24300
835.097	24133
835.235	24247
835.373	24239
835.511	24228
835.65	24167
835.788	24155
835.926	23916
836.064	23817
836.202	23897
836.34	24114
836.478	24110
836.615	24053
836.753	24148
836.891	24228
837.029	23999
837.167	23923
837.305	23996
837.443	24015
837.58	23897
837.718	23935
837.856	23935
837.993	23836
838.131	23954
838.269	23859
838.406	23847
838.544	23813
838.681	23429
838.819	23585
838.956	23490
839.094	23353
839.231	23292
839.369	23581
839.506	23726
839.643	23672
839.781	23315
839.918	23197
840.055	23356
840.193	23261
840.33	23379
840.467	23231
840.604	23254
840.742	23570
840.879	23102
841.016	23197
841.153	23109
841.29	23296
841.427	23189
841.564	23235
841.701	23288
841.838	23128
841.975	23132
842.112	23086
842.249	22938
842.385	23090
842.522	23307
842.659	23090
842.796	23029
842.933	22946
843.069	22923
843.206	22869
843.343	23003
843.479	22866
843.616	23041
843.752	22755
843.889	22729
844.025	22850
844.162	22668
844.298	22831
844.435	22885
844.571	22607
844.708	22687
844.844	22873
844.98	22854
845.117	22820
845.253	22725
845.389	22656
845.525	22626
845.661	22596
845.798	22447
845.934	22573
846.07	22474
846.206	22588
846.342	22561
846.478	22386
846.614	22284
846.75	22150
846.886	22143
847.022	22253
847.158	22169
847.294	22074
847.429	22226
847.565	22276
847.701	22493
847.837	21937
847.972	21797
848.108	22032
848.244	22032
848.379	21778
848.515	21846
848.65	21701
848.786	21698
848.921	21778
849.057	21701
849.192	21846
849.328	21778
849.463	21671
849.598	21743
849.734	21618
849.869	21458
850.004	21564
850.14	21542
850.275	21530
850.41	21538
850.545	21504
850.68	21469
850.815	21511
850.95	21462
851.085	21637
851.22	21720
851.355	21557
851.49	21523
851.625	21401
851.76	21466
851.895	21428
852.03	21389
852.165	21507
852.299	21622
852.434	21644
852.569	21644
852.703	21435
852.838	21629
852.973	21629
853.107	21675
853.242	21458
853.376	21405
853.511	21302
853.645	21313
853.78	21545
853.914	21386
854.048	21351
854.183	21378
854.317	21344
854.451	21656
854.585	21397
854.72	21348
854.854	21485
854.988	21302
855.122	21469
855.256	21173
855.39	21291
855.524	21367
855.658	21435
855.792	21355
855.926	21249
856.06	21363
856.194	21363
856.327	21397
856.461	21233
856.595	21313
856.729	21283
856.862	21526
856.996	21344
857.13	21370
857.263	21401
857.397	21439
857.53	21378
857.664	21344
857.797	21359
857.931	21424
858.064	21340
858.197	21447
858.331	21340
858.464	21195
858.597	21154
858.731	21222
858.864	21211
858.997	21389
859.13	21298
859.263	21207
859.396	21386
859.529	21348
859.662	21260
859.795	21233
859.928	21226
860.061	21641
860.194	21515
860.327	21291
860.46	21336
860.592	21378
860.725	21500
860.858	21473
860.99	21420
861.123	21154
861.256	21211
861.388	21313
861.521	21922
861.653	21138
861.786	21138
861.918	21207
862.05	21302
862.183	21306
862.315	21283
862.447	21294
862.58	21260
862.712	21039
862.844	21005
862.976	21085
863.108	21116
863.24	21504
863.372	20880
863.504	21066
863.636	20933
863.768	20994
863.9	21112
864.032	20887
864.164	20979
864.296	21028
864.428	21005
864.559	21058
864.691	21047
864.823	21001
864.954	20929
865.086	21009
865.217	20804
865.349	20796
865.48	20914
865.612	20891
865.743	20960
865.875	20925
866.006	20891
866.137	20853
866.269	20891
866.4	20918
866.531	20826
866.662	20743
866.793	20895
866.924	20845
867.055	20834
867.186	20883
867.317	20868
867.448	20720
867.579	20781
867.71	20765
867.841	20842
867.972	20906
868.103	20883
868.233	20796
868.364	20830
868.495	20887
868.625	20956
868.756	21131
868.886	20937
869.017	21100
869.147	21291
869.278	21169
869.408	21077
869.539	21093
869.669	21169
869.799	21116
869.929	21272
870.06	21108
870.19	21382
870.32	21252
870.45	21412
870.58	21405
870.71	21454
870.84	21641
870.97	21370
871.1	21389
871.23	21545
871.36	21713
871.489	21485
871.619	21557
871.749	21694
871.879	21751
872.008	21778
872.138	21637
872.267	21595
872.397	21515
872.526	21412
872.656	21454
872.785	21523
872.915	21694
873.044	21724
873.173	21667
873.303	21739
873.432	21694
873.561	21724
873.69	21747
873.819	21583
873.948	21804
874.077	21759
874.206	21766
874.335	21762
874.464	21728
874.593	21888
874.722	21812
874.851	21880
874.979	21812
875.108	21994
875.237	21819
875.365	21854
875.494	21949
875.623	22093
875.751	21823
875.88	22013
876.008	22105
876.136	22093
876.265	22341
876.393	22367
876.521	22363
876.65	22398
876.778	22291
876.906	22246
877.034	22150
877.162	22219
877.29	22181
877.418	22303
877.546	22207
877.674	22169
877.802	22386
877.93	22230
878.058	22299
878.185	22097
878.313	22192
878.441	22249
878.568	22025
878.696	22207
878.824	22253
878.951	22242
879.079	22382
879.206	22664
879.333	22459
879.461	22284
879.588	22394
879.715	22447
879.842	22542
879.97	22443
880.097	22211
880.224	22109
880.351	22162
880.478	22101
880.605	22017
880.732	22139
880.859	22253
880.986	22185
881.112	22025
881.239	22017
881.366	21823
881.493	21717
881.619	21686
881.746	21755
881.872	21576
881.999	21534
882.125	21545
882.252	21622
882.378	21515
882.505	21865
882.631	21553
882.757	21492
882.883	21542
883.01	21359
883.136	21367
883.262	21188
883.388	21207
883.514	21450
883.64	21454
883.766	21332
883.892	21252
884.018	21260
884.143	21378
884.269	21405
884.395	21047
884.52	20937
884.646	21013
884.772	20998
884.897	20853
885.023	21039
885.148	21108
885.274	21184
885.399	20948
885.524	21047
885.65	21036
885.775	21005
885.9	21138
886.025	21093
886.15	21157
886.275	20883
886.4	20842
886.525	20941
886.65	20792
886.775	20971
886.9	21192
887.025	21154
887.149	20842
887.274	20758
887.399	20731
887.523	20807
887.648	20720
887.773	20640
887.897	20807
888.021	20845
888.146	20629
888.27	20845
888.395	20807
888.519	20769
888.643	20781
888.767	20941
888.891	20746
889.015	20518
889.139	20568
889.263	20518
889.387	20670
889.511	20785
889.635	20693
889.759	20587
889.883	20545
890.006	20499
890.13	20587
890.254	20446
890.377	20469
890.501	20412
890.624	20301
890.748	20404
890.871	20259
890.995	20115
891.118	20183
891.241	20138
891.364	20145
891.488	20252
891.611	20176
891.734	20111
891.857	20294
891.98	20229
892.103	20138
892.226	20046
892.349	20020
892.471	19894
892.594	20088
892.717	20126
892.839	20073
892.962	20081
893.085	20065
893.207	20046
893.33	19925
893.452	19936
893.575	20043
893.697	20046
893.819	20130
893.941	20206
894.064	20180
894.186	19921
894.308	20020
894.43	20153
894.552	20199
894.674	20077
894.796	19951
894.918	19970
895.04	19982
895.161	20130
895.283	20111
895.405	20088
895.526	20225
895.648	20062
895.769	19963
895.891	20149
896.012	20164
896.134	20027
896.255	20153
896.376	20153
896.498	20027
896.619	20043
896.74	20039
896.861	20172
896.982	20393
897.103	20556
897.224	20320
897.345	20244
897.466	20218
897.587	20263
897.708	20267
897.828	20343
897.949	20229
898.07	20081
898.19	20259
898.311	20469
898.431	20362
898.552	20313
898.672	20393
898.792	20278
898.913	20275
899.033	20149
899.153	20016
899.273	19982
899.393	20096
899.513	19974
899.633	20073
899.753	20142
899.873	19894
899.993	20081
900.113	20001
900.232	20062
900.352	19978
900.472	19947
900.591	19795
900.711	19761
900.83	19788
900.95	19932
901.069	19830
901.189	19681
901.308	19491
901.427	19384
901.546	19460
901.665	19438
901.784	19438
901.904	19285
902.023	19225
902.141	18852
902.26	18962
902.379	18989
902.498	18939
902.617	18837
902.735	18867
902.854	18734
902.973	18867
903.091	18620
903.21	18490
903.328	18593
903.446	18460
903.565	18407
903.683	18353
903.801	18319
903.919	18327
904.038	18350
904.156	18167
904.274	18152
904.392	18201
904.51	18091
904.627	18136
904.745	18209
904.863	18171
904.981	17973
905.098	17729
905.216	17805
905.334	17824
905.451	17840
905.569	17745
905.686	17859
905.803	17813
905.921	17600
906.038	17745
906.155	17562
906.272	17512
906.389	17417
906.506	17261
906.623	17364
906.74	17429
906.857	17204
906.974	17197
907.091	17433
907.208	17349
907.324	17364
907.441	17220
907.557	17037
907.674	16987
907.79	17041
907.907	16919
908.023	17033
908.139	17067
908.256	16896
908.372	16961
908.488	16946
908.604	16801
908.72	16835
908.836	16653
908.952	16675
909.068	16740
909.184	16782
909.3	16755
909.415	16835
909.531	16580
909.647	16542
909.762	16481
909.878	16276
909.993	16398
910.108	16459
910.224	16398
910.339	16363
910.454	16375
910.57	16226
910.685	16169
910.8	16424
910.915	16462
911.03	16265
911.145	16017
911.259	16143
911.374	16078
911.489	16002
911.604	15918
911.718	15728
911.833	15873
911.947	15690
912.062	15690
912.176	15835
912.291	15838
912.405	15831
912.519	16032
912.633	15964
912.748	15873
912.862	15679
912.976	15618
913.09	15507
913.204	15637
913.318	15663
913.431	15698
913.545	15713
913.659	15682
913.772	15614
913.886	15538
914	15458
914.113	15519
914.226	15485
914.34	15435
914.453	15291
914.566	15447
914.68	15310
914.793	15428
914.906	15062
915.019	15081
915.132	15055
915.245	14979
915.358	15135
915.47	15017
915.583	15062
915.696	15165
915.809	15154
915.921	15207
916.034	14960
916.146	14971
916.259	14872
916.371	15036
916.483	14948
916.595	14929
916.708	14933
916.82	14956
916.932	14944
917.044	14921
917.156	14849
917.268	14640
917.38	14663
917.491	14686
917.603	14659
917.715	14712
917.826	14823
917.938	14644
918.049	14507
918.161	14678
918.272	14762
918.384	14796
918.495	14731
918.606	14537
918.717	14499
918.828	14473
918.939	14514
919.05	14404
919.161	14427
919.272	14183
919.383	14271
919.494	14514
919.604	14674
919.715	14381
919.826	14328
919.936	14408
920.047	14457
920.157	14377
920.267	14552
920.378	14431
920.488	14415
920.598	14552
920.708	14682
920.818	14533
920.928	14537
921.038	14705
921.148	14701
921.258	14377
921.368	14267
921.477	14161
921.587	14134
921.697	13978
921.806	14202
921.916	13928
922.025	13795
922.134	13830
922.244	13837
922.353	13822
922.462	13696
922.571	13609
922.68	13529
922.789	13483
922.898	13335
923.007	13422
923.116	13403
923.224	13339
923.333	13457
923.442	13312
923.55	13274
923.659	13320
923.767	13369
923.876	13183
923.984	13346
924.092	13179
924.201	13225
924.309	13209
924.417	13110
924.525	13076
924.633	13103
924.741	13959
924.849	12909
924.956	13076
925.064	12935
925.172	12798
925.279	12856
925.387	12954
925.494	12844
925.602	12890
925.709	12848
925.816	12722
925.924	12871
926.031	12871
926.138	12814
926.245	12814
926.352	12665
926.459	12821
926.566	12973
926.673	12715
926.779	12673
926.886	12604
926.993	12467
927.099	12445
927.206	12304
927.312	12433
927.419	12486
927.525	12395
927.631	12372
927.737	12273
927.843	12319
927.95	12110
928.056	12258
928.162	12232
928.267	12338
928.373	12829
928.479	12380
928.585	12003
928.69	12220
928.796	12194
928.901	12102
929.007	11969
929.112	12129
929.218	12133
929.323	12030
929.428	11901
929.533	12030
929.638	12007
929.743	11980
929.848	11920
929.953	11992
930.058	11840
930.163	11718
930.267	11714
930.372	11821
930.477	11726
930.581	11855
930.685	11676
930.79	11611
930.894	11589
930.998	11497
931.103	11653
931.207	11288
931.311	11151
931.415	11136
931.519	10923
931.623	10972
