Data from test_V78500241_2837.txt Node
Date: Fri Mar 25 16:01:27 CST 2022
User: usil
Spectrometer: V785-0024
Trigger mode: 0
Integration Time (sec): 4.000000E-1
Scans to average: 1
Nonlinearity correction enabled: false
Boxcar width: 0
Storing dark spectrum: false
XAxis mode: Wavelengths
Number of Pixels in Spectrum: 1024
>>>>>Begin Spectral Data<<<<<
801.071	29022
801.214	29071
801.356	28740
801.499	28805
801.641	28573
801.783	28634
801.926	28839
802.068	28805
802.211	28622
802.353	28763
802.496	28580
802.638	28478
802.78	28455
802.923	28363
803.065	28386
803.208	28303
803.35	28436
803.492	28672
803.635	28599
803.777	28512
803.919	28691
804.061	28946
804.204	28752
804.346	28588
804.488	28649
804.63	28683
804.773	28668
804.915	28683
805.057	28824
805.199	28664
805.341	28831
805.483	28812
805.626	28828
805.768	28740
805.91	29071
806.052	28927
806.194	28809
806.336	29067
806.478	28812
806.62	28839
806.762	29037
806.904	29235
807.046	29474
807.188	29265
807.33	29395
807.472	29398
807.614	29292
807.756	29258
807.898	29159
808.04	29284
808.182	29060
808.324	29284
808.465	29105
808.607	29459
808.749	29551
808.891	29630
809.033	29619
809.174	29554
809.316	29615
809.458	29547
809.6	29535
809.741	29703
809.883	29676
810.025	29965
810.166	29786
810.308	29798
810.45	29756
810.591	29855
810.733	29581
810.875	29581
811.016	29391
811.158	29368
811.299	29695
811.441	29794
811.582	29676
811.724	29604
811.865	29558
812.007	29486
812.148	29573
812.29	29630
812.431	29824
812.573	29901
812.714	30057
812.855	30300
812.997	30235
813.138	30357
813.279	30319
813.421	30049
813.562	30079
813.703	29935
813.845	29843
813.986	29535
814.127	29463
814.268	29395
814.41	29345
814.551	29299
814.692	29406
814.833	29334
814.974	29273
815.115	29299
815.256	29197
815.397	29155
815.539	29132
815.68	29151
815.821	29056
815.962	29094
816.103	29071
816.244	29090
816.385	28927
816.526	28831
816.666	28721
816.807	28607
816.948	28687
817.089	28706
817.23	28713
817.371	28607
817.512	28519
817.653	28481
817.793	28675
817.934	28706
818.075	28618
818.216	28523
818.356	28569
818.497	28523
818.638	28417
818.778	28344
818.919	28382
819.06	28519
819.2	28607
819.341	28527
819.481	28561
819.622	28809
819.762	28999
819.903	28885
820.043	28900
820.184	28790
820.324	28660
820.465	28828
820.605	28675
820.746	28782
820.886	28702
821.026	28828
821.167	28721
821.307	28744
821.447	28641
821.588	28626
821.728	28546
821.868	28257
822.008	28150
822.149	28082
822.289	28078
822.429	27922
822.569	27827
822.709	27789
822.849	27682
822.99	27759
823.13	27557
823.27	27671
823.41	27435
823.55	27302
823.69	27477
823.83	27386
823.97	27363
824.11	27256
824.25	27386
824.389	27207
824.529	27321
824.669	27287
824.809	27405
824.949	27325
825.089	27340
825.228	27237
825.368	27055
825.508	27195
825.648	27150
825.787	27169
825.927	27135
826.067	27203
826.206	27085
826.346	27222
826.485	27268
826.625	27131
826.765	27252
826.904	27138
827.044	26940
827.183	27043
827.323	26925
827.462	27013
827.601	27039
827.741	26785
827.88	27077
828.02	26864
828.159	26750
828.298	26948
828.437	27001
828.577	26811
828.716	26960
828.855	26811
828.994	26579
829.134	26598
829.273	26712
829.412	26617
829.551	26541
829.69	26598
829.829	26648
829.968	26746
830.107	26731
830.246	26518
830.385	26568
830.524	26583
830.663	26492
830.802	26377
830.941	26122
831.08	26191
831.219	26362
831.357	26324
831.496	26396
831.635	26233
831.774	26400
831.913	26084
832.051	26100
832.19	26016
832.329	25917
832.467	25803
832.606	25879
832.744	25734
832.883	25868
833.022	25795
833.16	25887
833.299	25909
833.437	25936
833.576	25970
833.714	25970
833.852	25997
833.991	25963
834.129	26069
834.267	25940
834.406	25818
834.544	25928
834.682	26001
834.821	25856
834.959	26142
835.097	25772
835.235	26035
835.373	25925
835.511	25947
835.65	25883
835.788	25814
835.926	25635
836.064	25533
836.202	25578
836.34	25616
836.478	25750
836.615	25723
836.753	25731
836.891	25875
837.029	25814
837.167	25700
837.305	25624
837.443	25594
837.58	25738
837.718	25552
837.856	25559
837.993	25567
838.131	25620
838.269	25320
838.406	25468
838.544	25426
838.681	25339
838.819	25259
838.956	25076
839.094	25031
839.231	25137
839.369	25297
839.506	25407
839.643	25217
839.781	25099
839.918	24905
840.055	25031
840.193	24878
840.33	24875
840.467	24886
840.604	24973
840.742	25194
840.879	24966
841.016	24791
841.153	24814
841.29	25080
841.427	24875
841.564	25050
841.701	24909
841.838	24863
841.975	24825
842.112	24837
842.249	24772
842.385	24696
842.522	24951
842.659	24806
842.796	24700
842.933	24738
843.069	24696
843.206	24623
843.343	24715
843.479	24753
843.616	24593
843.752	24566
843.889	24483
844.025	24658
844.162	24426
844.298	24399
844.435	24502
844.571	24327
844.708	24460
844.844	24582
844.98	24525
845.117	24650
845.253	24372
845.389	24365
845.525	24346
845.661	24486
845.798	24205
845.934	24182
846.07	24205
846.206	24258
846.342	24311
846.478	24186
846.614	23866
846.75	23775
846.886	23901
847.022	23927
847.158	23950
847.294	23912
847.429	23969
847.565	23958
847.701	24243
847.837	23707
847.972	23566
848.108	23737
848.244	23703
848.379	23528
848.515	23505
848.65	23391
848.786	23448
848.921	23448
849.057	23680
849.192	23577
849.328	23543
849.463	23448
849.598	23455
849.734	23391
849.869	23326
850.004	23383
850.14	23227
850.275	23307
850.41	23124
850.545	23231
850.68	23261
850.815	23250
850.95	23162
851.085	23501
851.22	23395
851.355	23440
851.49	23258
851.625	23242
851.76	23170
851.895	23113
852.03	23246
852.165	23204
852.299	23288
852.434	23170
852.569	23330
852.703	23140
852.838	23220
852.973	23311
853.107	23421
853.242	23102
853.376	23155
853.511	22987
853.645	23079
853.78	23113
853.914	23155
854.048	23083
854.183	23083
854.317	23204
854.451	23334
854.585	23140
854.72	23121
854.854	23250
854.988	22995
855.122	23140
855.256	23010
855.39	23010
855.524	23216
855.658	23075
855.792	23166
855.926	23109
856.06	23010
856.194	23075
856.327	23132
856.461	22995
856.595	23079
856.729	23075
856.862	23121
856.996	23181
857.13	23105
857.263	23223
857.397	23197
857.53	23098
857.664	23174
857.797	23113
857.931	23227
858.064	23056
858.197	23288
858.331	23064
858.464	22972
858.597	22972
858.731	23052
858.864	23098
858.997	22987
859.13	23083
859.263	23140
859.396	23136
859.529	23086
859.662	23071
859.795	23003
859.928	23071
860.061	23280
860.194	23178
860.327	23105
860.46	23292
860.592	23227
860.725	23117
860.858	23189
860.99	23075
861.123	23083
861.256	23018
861.388	23037
861.521	23878
861.653	22850
861.786	22736
861.918	22923
862.05	22923
862.183	22972
862.315	23067
862.447	23143
862.58	22946
862.712	22824
862.844	22881
862.976	22911
863.108	22805
863.24	23231
863.372	22828
863.504	22847
863.636	22664
863.768	22953
863.9	22755
864.032	22816
864.164	22740
864.296	22771
864.428	22953
864.559	22790
864.691	22809
864.823	22797
864.954	22801
865.086	22748
865.217	22649
865.349	22683
865.48	22577
865.612	22596
865.743	22744
865.875	22683
866.006	22649
866.137	22634
866.269	22634
866.4	22538
866.531	22497
866.662	22603
866.793	22485
866.924	22599
867.055	22683
867.186	22626
867.317	22542
867.448	22394
867.579	22615
867.71	22565
867.841	22402
867.972	22538
868.103	22523
868.233	22573
868.364	22527
868.495	22653
868.625	22782
868.756	22869
868.886	22672
869.017	22881
869.147	22797
869.278	23022
869.408	22892
869.539	22911
869.669	22957
869.799	22908
869.929	22987
870.06	22934
870.19	23075
870.32	23003
870.45	23372
870.58	23239
870.71	23246
870.84	23341
870.97	23254
871.1	23246
871.23	23360
871.36	23452
871.489	23204
871.619	23379
871.749	23429
871.879	23383
872.008	23471
872.138	23356
872.267	23398
872.397	23132
872.526	23284
872.656	23197
872.785	23124
872.915	23376
873.044	23463
873.173	23387
873.303	23459
873.432	23406
873.561	23505
873.69	23463
873.819	23520
873.948	23452
874.077	23520
874.206	23284
874.335	23410
874.464	23604
874.593	23611
874.722	23581
874.851	23543
874.979	23627
875.108	23687
875.237	23589
875.365	23520
875.494	23547
875.623	23684
875.751	23589
875.88	23657
876.008	23714
876.136	23760
876.265	24095
876.393	24159
876.521	24155
876.65	24182
876.778	24018
876.906	23954
877.034	23828
877.162	24022
877.29	23904
877.418	23863
877.546	24098
877.674	23939
877.802	23908
877.93	23923
878.058	23874
878.185	23783
878.313	23946
878.441	23870
878.568	23764
878.696	23897
878.824	24034
878.951	24083
879.079	24083
879.206	24224
879.333	24034
879.461	24018
879.588	24026
879.715	24125
879.842	24277
879.97	23923
880.097	23836
880.224	23741
880.351	23828
880.478	23809
880.605	23695
880.732	23843
880.859	23958
880.986	23729
881.112	23722
881.239	23680
881.366	23524
881.493	23360
881.619	23341
881.746	23284
881.872	23379
881.999	23372
882.125	23341
882.252	23200
882.378	23322
882.505	23524
882.631	23185
882.757	23048
882.883	23071
883.01	23109
883.136	23022
883.262	22717
883.388	22763
883.514	22946
883.64	22862
883.766	22877
883.892	22847
884.018	22896
884.143	22873
884.269	23003
884.395	22717
884.52	22577
884.646	22588
884.772	22580
884.897	22531
885.023	22603
885.148	22710
885.274	22752
885.399	22634
885.524	22599
885.65	22694
885.775	22713
885.9	22615
886.025	22557
886.15	22771
886.275	22497
886.4	22538
886.525	22596
886.65	22599
886.775	22443
886.9	22797
887.025	22854
887.149	22577
887.274	22398
887.399	22306
887.523	22325
887.648	22272
887.773	22287
887.897	22436
888.021	22504
888.146	22382
888.27	22493
888.395	22413
888.519	22367
888.643	22329
888.767	22500
888.891	22287
889.015	22234
889.139	22299
889.263	22166
889.387	22325
889.511	22344
889.635	22253
889.759	22040
889.883	22147
890.006	22219
890.13	22257
890.254	21972
890.377	22124
890.501	21960
890.624	21873
890.748	21846
890.871	21747
890.995	21660
891.118	21732
891.241	21652
891.364	21732
891.488	21827
891.611	21785
891.734	21641
891.857	21717
891.98	21728
892.103	21686
892.226	21747
892.349	21622
892.471	21526
892.594	21511
892.717	21595
892.839	21614
892.962	21705
893.085	21637
893.207	21591
893.33	21500
893.452	21435
893.575	21713
893.697	21614
893.819	21682
893.941	21831
894.064	21770
894.186	21462
894.308	21466
894.43	21728
894.552	21770
894.674	21751
894.796	21481
894.918	21534
895.04	21542
895.161	21599
895.283	21580
895.405	21450
895.526	21568
895.648	21564
895.769	21606
895.891	21637
896.012	21542
896.134	21629
896.255	21656
896.376	21519
896.498	21614
896.619	21561
896.74	21424
896.861	21557
896.982	21968
897.103	21941
897.224	21705
897.345	21759
897.466	21603
897.587	21755
897.708	21888
897.828	21679
897.949	21785
898.07	21610
898.19	21778
898.311	21819
898.431	21694
898.552	21778
898.672	21865
898.792	21869
898.913	21789
899.033	21606
899.153	21526
899.273	21313
899.393	21534
899.513	21458
899.633	21492
899.753	21610
899.873	21317
899.993	21507
900.113	21420
900.232	21378
900.352	21450
900.472	21359
900.591	21207
900.711	21116
900.83	21211
900.95	21310
901.069	21272
901.189	21116
901.308	20948
901.427	20762
901.546	20815
901.665	20929
901.784	20746
901.904	20705
902.023	20526
902.141	20328
902.26	20473
902.379	20492
902.498	20206
902.617	20267
902.735	20336
902.854	20229
902.973	20107
903.091	19989
903.21	19883
903.328	19890
903.446	19940
903.565	19655
903.683	19742
903.801	19582
903.919	19670
904.038	19647
904.156	19514
904.274	19540
904.392	19495
904.51	19453
904.627	19529
904.745	19426
904.863	19483
904.981	19187
905.098	19213
905.216	19194
905.334	19179
905.451	19228
905.569	19126
905.686	19076
905.803	19126
905.921	18916
906.038	18951
906.155	18878
906.272	18943
906.389	18859
906.506	18654
906.623	18673
906.74	18608
906.857	18570
906.974	18684
907.091	18730
907.208	18684
907.324	18696
907.441	18551
907.557	18414
907.674	18384
907.79	18338
907.907	18376
908.023	18437
908.139	18391
908.256	18277
908.372	18270
908.488	18247
908.604	18178
908.72	18026
908.836	18197
908.952	18030
909.068	18167
909.184	18281
909.3	18030
909.415	18079
909.531	18026
909.647	17817
909.762	17813
909.878	17832
909.993	17863
910.108	17691
910.224	17687
910.339	17684
910.454	17592
910.57	17585
910.685	17554
910.8	17703
910.915	17638
911.03	17577
911.145	17364
911.259	17421
911.374	17337
911.489	17235
911.604	17299
911.718	16991
911.833	17212
911.947	17067
912.062	16911
912.176	17071
912.291	17041
912.405	17098
912.519	17239
912.633	17326
912.748	17113
912.862	17060
912.976	16984
913.09	16786
913.204	16847
913.318	16885
913.431	16866
913.545	16889
913.659	16919
913.772	16790
913.886	16752
914	16744
914.113	16778
914.226	16805
914.34	16763
914.453	16478
914.566	16740
914.68	16478
914.793	16558
914.906	16363
915.019	16242
915.132	16097
915.245	16173
915.358	16303
915.47	16253
915.583	16246
915.696	16204
915.809	16348
915.921	16299
916.034	16154
916.146	16051
916.259	16120
916.371	16196
916.483	16131
916.595	16109
916.708	16116
916.82	16055
916.932	16044
917.044	15968
917.156	16082
917.268	15762
917.38	15762
917.491	15857
917.603	15842
917.715	15842
917.826	15922
917.938	15812
918.049	15648
918.161	15743
918.272	15922
918.384	15895
918.495	15797
918.606	15686
918.717	15477
918.828	15618
918.939	15587
919.05	15663
919.161	15485
919.272	15382
919.383	15389
919.494	15610
919.604	15701
919.715	15614
919.826	15462
919.936	15466
920.047	15561
920.157	15542
920.267	15770
920.378	15542
920.488	15405
920.598	15800
920.708	15838
920.818	15530
920.928	15644
921.038	15781
921.148	15785
921.258	15458
921.368	15454
921.477	15142
921.587	15302
921.697	15127
921.806	15249
921.916	15062
922.025	14971
922.134	14876
922.244	14845
922.353	14883
922.462	14720
922.571	14621
922.68	14507
922.789	14480
922.898	14476
923.007	14438
923.116	14530
923.224	14434
923.333	14469
923.442	14362
923.55	14385
923.659	14370
923.767	14450
923.876	14263
923.984	14381
924.092	14202
924.201	14172
924.309	14233
924.417	14126
924.525	14145
924.633	14115
924.741	15123
924.849	13955
924.956	14054
925.064	14024
925.172	13837
925.279	13814
925.387	13871
925.494	13837
925.602	13951
925.709	13993
925.816	13765
925.924	13837
926.031	13856
926.138	13791
926.245	13826
926.352	13738
926.459	13757
926.566	13837
926.673	13807
926.779	13647
926.886	13594
926.993	13453
927.099	13369
927.206	13358
927.312	13369
927.419	13445
927.525	13369
927.631	13403
927.737	13285
927.843	13270
927.95	13012
928.056	13137
928.162	13198
928.267	13282
928.373	13944
928.479	13263
928.585	12985
928.69	13088
928.796	13221
928.901	13000
929.007	12878
929.112	12966
929.218	13076
929.323	12947
929.428	12833
929.533	13012
929.638	12882
929.743	12932
929.848	12833
929.953	12932
930.058	12673
930.163	12502
930.267	12536
930.372	12745
930.477	12490
930.581	12779
930.685	12642
930.79	12342
930.894	12494
930.998	12308
931.103	12578
931.207	12159
931.311	12091
931.415	12019
931.519	11798
931.623	11870
