Data from test_V78500241_3071.txt Node
Date: Fri Mar 25 16:03:04 CST 2022
User: usil
Spectrometer: V785-0024
Trigger mode: 0
Integration Time (sec): 4.000000E-1
Scans to average: 1
Nonlinearity correction enabled: false
Boxcar width: 0
Storing dark spectrum: false
XAxis mode: Wavelengths
Number of Pixels in Spectrum: 1024
>>>>>Begin Spectral Data<<<<<
801.071	28831
801.214	28656
801.356	28596
801.499	28565
801.641	28413
801.783	28257
801.926	28341
802.068	28379
802.211	28265
802.353	28398
802.496	28040
802.638	28124
802.78	28124
802.923	28025
803.065	28010
803.208	27831
803.35	28234
803.492	28234
803.635	28268
803.777	28188
803.919	28325
804.061	28778
804.204	28443
804.346	28207
804.488	28329
804.63	28394
804.773	28169
804.915	28500
805.057	28447
805.199	28299
805.341	28356
805.483	28557
805.626	28603
805.768	28367
805.91	28535
806.052	28535
806.194	28474
806.336	28596
806.478	28535
806.62	28462
806.762	28546
806.904	28786
807.046	29060
807.188	28949
807.33	28987
807.472	29037
807.614	29022
807.756	28911
807.898	28927
808.04	28717
808.182	28866
808.324	28873
808.465	28862
808.607	29098
808.749	29143
808.891	29265
809.033	29395
809.174	29292
809.316	29098
809.458	29170
809.6	29124
809.741	29197
809.883	29212
810.025	29649
810.166	29520
810.308	29455
810.45	29493
810.591	29471
810.733	29395
810.875	29261
811.016	29159
811.158	29212
811.299	29448
811.441	29433
811.582	29471
811.724	29296
811.865	29105
812.007	29261
812.148	29288
812.29	29254
812.431	29315
812.573	29505
812.714	29600
812.855	29710
812.997	29843
813.138	30011
813.279	29828
813.421	29767
813.562	29630
813.703	29497
813.845	29345
813.986	29204
814.127	29041
814.268	28957
814.41	28987
814.551	28877
814.692	28976
814.833	28930
814.974	28835
815.115	28923
815.256	28736
815.397	28896
815.539	28805
815.68	28896
815.821	28683
815.962	28713
816.103	28733
816.244	28565
816.385	28535
816.526	28436
816.666	28329
816.807	28268
816.948	28303
817.089	28333
817.23	28299
817.371	28211
817.512	28306
817.653	28181
817.793	28253
817.934	28268
818.075	28249
818.216	28265
818.356	28242
818.497	28207
818.638	28070
818.778	28097
818.919	27998
819.06	28192
819.2	28280
819.341	28230
819.481	28261
819.622	28428
819.762	28573
819.903	28512
820.043	28390
820.184	28443
820.324	28436
820.465	28470
820.605	28333
820.746	28379
820.886	28265
821.026	28348
821.167	28169
821.307	28417
821.447	28299
821.588	28177
821.728	28002
821.868	27812
822.008	27667
822.149	27660
822.289	27675
822.429	27530
822.569	27443
822.709	27389
822.849	27161
822.99	27241
823.13	27195
823.27	27237
823.41	27131
823.55	26975
823.69	27066
823.83	27233
823.97	27131
824.11	26960
824.25	26826
824.389	26918
824.529	27100
824.669	26861
824.809	27070
824.949	27001
825.089	26944
825.228	26883
825.368	26880
825.508	26746
825.648	26811
825.787	26769
825.927	26777
826.067	26727
826.206	26773
826.346	26705
826.485	26746
826.625	26743
826.765	26872
826.904	26960
827.044	26598
827.183	26579
827.323	26659
827.462	26415
827.601	26511
827.741	26457
827.88	26526
828.02	26423
828.159	26423
828.298	26446
828.437	26644
828.577	26541
828.716	26541
828.855	26358
828.994	26100
829.134	26122
829.273	26161
829.412	26168
829.551	26046
829.69	26206
829.829	26157
829.968	26271
830.107	26298
830.246	26263
830.385	26206
830.524	26115
830.663	26065
830.802	25890
830.941	25761
831.08	25852
831.219	25864
831.357	25807
831.496	25970
831.635	25746
831.774	25689
831.913	25651
832.051	25396
832.19	25559
832.329	25605
832.467	25457
832.606	25544
832.744	25434
832.883	25320
833.022	25411
833.16	25556
833.299	25616
833.437	25479
833.576	25483
833.714	25605
833.852	25613
833.991	25609
834.129	25666
834.267	25685
834.406	25582
834.544	25571
834.682	25544
834.821	25556
834.959	25696
835.097	25434
835.235	25582
835.373	25594
835.511	25400
835.65	25373
835.788	25392
835.926	25141
836.064	25175
836.202	25175
836.34	25388
836.478	25441
836.615	25331
836.753	25263
836.891	25362
837.029	25419
837.167	25312
837.305	25301
837.443	25324
837.58	25160
837.718	25335
837.856	25255
837.993	25190
838.131	25217
838.269	25015
838.406	25019
838.544	25103
838.681	24719
838.819	24719
838.956	24627
839.094	24627
839.231	24738
839.369	24829
839.506	24992
839.643	24913
839.781	24745
839.918	24517
840.055	24601
840.193	24585
840.33	24509
840.467	24521
840.604	24631
840.742	24783
840.879	24388
841.016	24502
841.153	24380
841.29	24692
841.427	24486
841.564	24544
841.701	24578
841.838	24460
841.975	24517
842.112	24525
842.249	24460
842.385	24384
842.522	24593
842.659	24414
842.796	24410
842.933	24251
843.069	24395
843.206	24285
843.343	24266
843.479	24178
843.616	24235
843.752	24068
843.889	24224
844.025	24338
844.162	23965
844.298	24083
844.435	24194
844.571	24087
844.708	24266
844.844	24125
844.98	24197
845.117	24114
845.253	24114
845.389	23984
845.525	24060
845.661	23897
845.798	23851
845.934	23866
846.07	23779
846.206	23794
846.342	23821
846.478	23691
846.614	23627
846.75	23440
846.886	23368
847.022	23570
847.158	23611
847.294	23493
847.429	23630
847.565	23448
847.701	23756
847.837	23246
847.972	23250
848.108	23280
848.244	23337
848.379	23178
848.515	23197
848.65	23162
848.786	23048
848.921	23140
849.057	23223
849.192	23132
849.328	23280
849.463	23193
849.598	22953
849.734	23052
849.869	22938
850.004	22923
850.14	22957
850.275	22805
850.41	22759
850.545	22991
850.68	22847
850.815	22957
850.95	22972
851.085	23056
851.22	22984
851.355	22968
851.49	22915
851.625	22881
851.76	22915
851.895	22793
852.03	22858
852.165	22782
852.299	22942
852.434	23067
852.569	22953
852.703	22919
852.838	22976
852.973	23064
853.107	22987
853.242	22820
853.376	22759
853.511	22489
853.645	22713
853.78	22679
853.914	22725
854.048	22733
854.183	22672
854.317	22729
854.451	22999
854.585	22793
854.72	22767
854.854	22820
854.988	22580
855.122	22672
855.256	22687
855.39	22706
855.524	22831
855.658	22755
855.792	22816
855.926	22744
856.06	22812
856.194	22736
856.327	22698
856.461	22767
856.595	22611
856.729	22771
856.862	22759
856.996	22694
857.13	22733
857.263	22694
857.397	22752
857.53	22763
857.664	22797
857.797	22672
857.931	22729
858.064	22809
858.197	22900
858.331	22736
858.464	22565
858.597	22656
858.731	22698
858.864	22618
858.997	22736
859.13	22573
859.263	22698
859.396	22858
859.529	22713
859.662	22706
859.795	22645
859.928	22710
860.061	22805
860.194	22930
860.327	22839
860.46	22793
860.592	22869
860.725	22847
860.858	22885
860.99	22596
861.123	22596
861.256	22736
861.388	22744
861.521	23406
861.653	22554
861.786	22474
861.918	22603
862.05	22603
862.183	22634
862.315	22660
862.447	22698
862.58	22584
862.712	22409
862.844	22470
862.976	22508
863.108	22443
863.24	22862
863.372	22310
863.504	22291
863.636	22348
863.768	22504
863.9	22405
864.032	22272
864.164	22402
864.296	22421
864.428	22542
864.559	22504
864.691	22565
864.823	22474
864.954	22550
865.086	22246
865.217	22344
865.349	22207
865.48	22417
865.612	22310
865.743	22485
865.875	22257
866.006	22181
866.137	22318
866.269	22440
866.4	22207
866.531	22143
866.662	22166
866.793	22238
866.924	22238
867.055	22234
867.186	22299
867.317	22147
867.448	22177
867.579	22158
867.71	22017
867.841	22200
867.972	22363
868.103	22265
868.233	22272
868.364	22333
868.495	22402
868.625	22405
868.756	22645
868.886	22409
869.017	22557
869.147	22557
869.278	22523
869.408	22405
869.539	22459
869.669	22531
869.799	22508
869.929	22546
870.06	22478
870.19	22763
870.32	22736
870.45	22771
870.58	22919
870.71	22824
870.84	22927
870.97	22839
871.1	22968
871.23	23022
871.36	22987
871.489	22923
871.619	22919
871.749	23071
871.879	22949
872.008	23109
872.138	23010
872.267	23117
872.397	22930
872.526	22930
872.656	22961
872.785	22911
872.915	23136
873.044	23124
873.173	23212
873.303	23102
873.432	23159
873.561	23022
873.69	23189
873.819	23132
873.948	23189
874.077	23121
874.206	22949
874.335	23003
874.464	23216
874.593	23315
874.722	23223
874.851	23360
874.979	23356
875.108	23307
875.237	23280
875.365	23318
875.494	23197
875.623	23353
875.751	23193
875.88	23383
876.008	23330
876.136	23547
876.265	23687
876.393	23775
876.521	23718
876.65	23798
876.778	23779
876.906	23748
877.034	23615
877.162	23668
877.29	23535
877.418	23547
877.546	23562
877.674	23619
877.802	23600
877.93	23691
878.058	23646
878.185	23589
878.313	23585
878.441	23695
878.568	23429
878.696	23486
878.824	23707
878.951	23764
879.079	23699
879.206	23859
879.333	23904
879.461	23722
879.588	23733
879.715	23821
879.842	23786
879.97	23623
880.097	23493
880.224	23455
880.351	23646
880.478	23528
880.605	23395
880.732	23436
880.859	23589
880.986	23474
881.112	23490
881.239	23292
881.366	23208
881.493	23060
881.619	22942
881.746	22995
881.872	23003
881.999	23037
882.125	22850
882.252	23041
882.378	22938
882.505	23033
882.631	22782
882.757	22656
882.883	22733
883.01	22668
883.136	22607
883.262	22516
883.388	22611
883.514	22584
883.64	22691
883.766	22687
883.892	22455
884.018	22573
884.143	22653
884.269	22687
884.395	22371
884.52	22375
884.646	22367
884.772	22196
884.897	22314
885.023	22310
885.148	22360
885.274	22436
885.399	22409
885.524	22303
885.65	22390
885.775	22421
885.9	22192
886.025	22466
886.15	22348
886.275	22246
886.4	22185
886.525	22299
886.65	22230
886.775	22257
886.9	22462
887.025	22390
887.149	22226
887.274	22158
887.399	22135
887.523	22055
887.648	21960
887.773	21998
887.897	22044
888.021	22150
888.146	21922
888.27	22192
888.395	22090
888.519	22086
888.643	22200
888.767	22086
888.891	22002
889.015	21903
889.139	21903
889.263	21812
889.387	21956
889.511	22070
889.635	21975
889.759	21911
889.883	21755
890.006	21869
890.13	21800
890.254	21736
890.377	21724
890.501	21568
890.624	21622
890.748	21667
890.871	21458
890.995	21424
891.118	21412
891.241	21424
891.364	21374
891.488	21424
891.611	21416
891.734	21428
891.857	21466
891.98	21359
892.103	21416
892.226	21374
892.349	21230
892.471	21093
892.594	21310
892.717	21268
892.839	21275
892.962	21264
893.085	21397
893.207	21275
893.33	21260
893.452	21252
893.575	21302
893.697	21260
893.819	21431
893.941	21515
894.064	21492
894.186	21260
894.308	21176
894.43	21340
894.552	21424
894.674	21272
894.796	21207
894.918	21287
895.04	21310
895.161	21256
895.283	21165
895.405	21154
895.526	21348
895.648	21317
895.769	21306
895.891	21287
896.012	21287
896.134	21488
896.255	21279
896.376	21074
896.498	21291
896.619	21249
896.74	21294
896.861	21275
896.982	21568
897.103	21644
897.224	21667
897.345	21469
897.466	21412
897.587	21405
897.708	21507
897.828	21568
897.949	21450
898.07	21275
898.19	21340
898.311	21462
898.431	21287
898.552	21389
898.672	21511
898.792	21511
898.913	21515
899.033	21332
899.153	21264
899.273	21169
899.393	21184
899.513	21313
899.633	21192
899.753	21249
899.873	21043
899.993	21195
900.113	21036
900.232	21249
900.352	21058
900.472	21062
900.591	20979
900.711	20956
900.83	20918
900.95	21001
901.069	20933
901.189	20891
901.308	20575
901.427	20484
901.546	20530
901.665	20541
901.784	20450
901.904	20339
902.023	20271
902.141	20164
902.26	20100
902.379	20100
902.498	19955
902.617	19921
902.735	20111
902.854	19890
902.973	19951
903.091	19708
903.21	19670
903.328	19761
903.446	19586
903.565	19495
903.683	19483
903.801	19354
903.919	19514
904.038	19419
904.156	19312
904.274	19266
904.392	19152
904.51	19236
904.627	19251
904.745	19247
904.863	19255
904.981	19053
905.098	18878
905.216	18943
905.334	18951
905.451	18958
905.569	18905
905.686	18856
905.803	18840
905.921	18528
906.038	18806
906.155	18692
906.272	18441
906.389	18582
906.506	18509
906.623	18350
906.74	18437
906.857	18338
906.974	18346
907.091	18494
907.208	18475
907.324	18403
907.441	18346
907.557	18194
907.674	18102
907.79	18106
907.907	18041
908.023	18201
908.139	18091
908.256	18091
908.372	18007
908.488	18026
908.604	17874
908.72	17863
908.836	17802
908.952	17741
909.068	17851
909.184	17935
909.3	17813
909.415	17931
909.531	17794
909.647	17581
909.762	17516
909.878	17505
909.993	17501
910.108	17554
910.224	17501
910.339	17482
910.454	17501
910.57	17417
910.685	17250
910.8	17535
910.915	17486
911.03	17353
911.145	17075
911.259	17037
911.374	17067
911.489	17105
911.604	16965
911.718	16900
911.833	16828
911.947	16660
912.062	16698
912.176	16843
912.291	16957
912.405	16812
912.519	17124
912.633	16900
912.748	16771
912.862	16729
912.976	16740
913.09	16569
913.204	16580
913.318	16645
913.431	16809
913.545	16778
913.659	16679
913.772	16611
913.886	16455
914	16371
914.113	16504
914.226	16542
914.34	16493
914.453	16306
914.566	16519
914.68	16223
914.793	16322
914.906	16169
915.019	15949
915.132	15960
915.245	16067
915.358	16059
915.47	16162
915.583	15960
915.696	15972
915.809	16048
915.921	16131
916.034	15873
916.146	15892
916.259	15888
916.371	15991
916.483	15888
916.595	15865
916.708	15915
916.82	15736
916.932	15717
917.044	15667
917.156	15759
917.268	15701
917.38	15705
917.491	15584
917.603	15599
917.715	15793
917.826	15701
917.938	15610
918.049	15545
918.161	15519
918.272	15686
918.384	15717
918.495	15599
918.606	15332
918.717	15348
918.828	15389
918.939	15355
919.05	15275
919.161	15367
919.272	15207
919.383	15127
919.494	15310
919.604	15587
919.715	15351
919.826	15351
919.936	15256
920.047	15469
920.157	15256
920.267	15561
920.378	15348
920.488	15367
920.598	15496
920.708	15606
920.818	15511
920.928	15359
921.038	15481
921.148	15530
921.258	15211
921.368	15184
921.477	15058
921.587	15005
921.697	14925
921.806	15077
921.916	14910
922.025	14727
922.134	14705
922.244	14689
922.353	14632
922.462	14533
922.571	14446
922.68	14347
922.789	14343
922.898	14347
923.007	14317
923.116	14457
923.224	14362
923.333	14332
923.442	14240
923.55	14180
923.659	14115
923.767	14183
923.876	14058
923.984	14149
924.092	13928
924.201	14142
924.309	14001
924.417	13978
924.525	13921
924.633	14027
924.741	14830
924.849	13776
924.956	13852
925.064	13685
925.172	13601
925.279	13731
925.387	13742
925.494	13788
925.602	13685
925.709	13670
925.816	13578
925.924	13731
926.031	13742
926.138	13605
926.245	13605
926.352	13518
926.459	13563
926.566	13715
926.673	13491
926.779	13426
926.886	13460
926.993	13278
927.099	13209
927.206	13183
927.312	13206
927.419	13289
927.525	13133
927.631	13164
927.737	13129
927.843	13012
927.95	13004
928.056	13019
928.162	13019
928.267	13065
928.373	13636
928.479	13129
928.585	12867
928.69	12951
928.796	12981
928.901	12993
929.007	12760
929.112	12856
929.218	12764
929.323	12776
929.428	12817
929.533	12871
929.638	12650
929.743	12700
929.848	12802
929.953	12745
930.058	12589
930.163	12448
930.267	12437
930.372	12525
930.477	12372
930.581	12532
930.685	12509
930.79	12289
930.894	12319
930.998	12216
931.103	12391
931.207	12079
931.311	11942
931.415	11897
931.519	11699
931.623	11630
