Data from test_V78500241_513.txt Node
Date: Fri Mar 25 15:45:21 CST 2022
User: usil
Spectrometer: V785-0024
Trigger mode: 0
Integration Time (sec): 4.000000E-1
Scans to average: 1
Nonlinearity correction enabled: false
Boxcar width: 0
Storing dark spectrum: false
XAxis mode: Wavelengths
Number of Pixels in Spectrum: 1024
>>>>>Begin Spectral Data<<<<<
801.071	27245
801.214	27154
801.356	26990
801.499	27028
801.641	26883
801.783	26823
801.926	26937
802.068	26826
802.211	26724
802.353	26564
802.496	26355
802.638	26473
802.78	26415
802.923	26507
803.065	26366
803.208	26396
803.35	26473
803.492	26434
803.635	26530
803.777	26419
803.919	26640
804.061	26838
804.204	26590
804.346	26461
804.488	26537
804.63	26579
804.773	26423
804.915	26522
805.057	26765
805.199	26560
805.341	26655
805.483	26689
805.626	26564
805.768	26617
805.91	26575
806.052	26651
806.194	26640
806.336	26853
806.478	26727
806.62	26587
806.762	26883
806.904	26887
807.046	27180
807.188	27123
807.33	27062
807.472	27081
807.614	27051
807.756	26982
807.898	27039
808.04	26849
808.182	26830
808.324	26899
808.465	26921
808.607	27127
808.749	27310
808.891	27317
809.033	27260
809.174	27431
809.316	27439
809.458	27332
809.6	27329
809.741	27389
809.883	27275
810.025	27564
810.166	27507
810.308	27526
810.45	27580
810.591	27424
810.733	27252
810.875	27332
811.016	27192
811.158	27169
811.299	27401
811.441	27595
811.582	27412
811.724	27393
811.865	27306
812.007	27226
812.148	27218
812.29	27199
812.431	27389
812.573	27519
812.714	27701
812.855	27804
812.997	27880
813.138	28021
813.279	27945
813.421	27884
813.562	27808
813.703	27561
813.845	27485
813.986	27332
814.127	27005
814.268	26960
814.41	26994
814.551	27051
814.692	26872
814.833	26933
814.974	26956
815.115	26906
815.256	26819
815.397	26834
815.539	26876
815.68	26743
815.821	26682
815.962	26842
816.103	26648
816.244	26648
816.385	26613
816.526	26518
816.666	26244
816.807	26115
816.948	26400
817.089	26233
817.23	26248
817.371	26168
817.512	26278
817.653	26161
817.793	26096
817.934	26187
818.075	26187
818.216	26259
818.356	26149
818.497	26073
818.638	25936
818.778	26130
818.919	25974
819.06	26001
819.2	26107
819.341	26126
819.481	26180
819.622	26328
819.762	26594
819.903	26511
820.043	26453
820.184	26191
820.324	26358
820.465	26400
820.605	26229
820.746	26256
820.886	26016
821.026	26100
821.167	26210
821.307	26362
821.447	26263
821.588	26054
821.728	26039
821.868	25712
822.008	25696
822.149	25681
822.289	25689
822.429	25483
822.569	25392
822.709	25396
822.849	25213
822.99	25187
823.13	25137
823.27	25072
823.41	24973
823.55	24890
823.69	24817
823.83	25004
823.97	24852
824.11	24749
824.25	24776
824.389	24787
824.529	24791
824.669	24852
824.809	24966
824.949	24935
825.089	24894
825.228	24810
825.368	24448
825.508	24623
825.648	24585
825.787	24734
825.927	24578
826.067	24582
826.206	24601
826.346	24631
826.485	24730
826.625	24559
826.765	24719
826.904	24642
827.044	24429
827.183	24422
827.323	24414
827.462	24327
827.601	24395
827.741	24311
827.88	24448
828.02	24319
828.159	24304
828.298	24456
828.437	24429
828.577	24319
828.716	24422
828.855	24155
828.994	24083
829.134	24015
829.273	24079
829.412	24064
829.551	23908
829.69	24194
829.829	24117
829.968	24205
830.107	24133
830.246	23965
830.385	24053
830.524	24022
830.663	23737
830.802	23786
830.941	23707
831.08	23554
831.219	23722
831.357	23786
831.496	23988
831.635	23718
831.774	23551
831.913	23627
832.051	23528
832.19	23425
832.329	23467
832.467	23425
832.606	23330
832.744	23250
832.883	23322
833.022	23299
833.16	23284
833.299	23341
833.437	23341
833.576	23459
833.714	23501
833.852	23448
833.991	23493
834.129	23436
834.267	23376
834.406	23391
834.544	23353
834.682	23376
834.821	23364
834.959	23638
835.097	23429
835.235	23433
835.373	23414
835.511	23467
835.65	23311
835.788	23151
835.926	23166
836.064	23094
836.202	23044
836.34	23200
836.478	23299
836.615	23128
836.753	23246
836.891	23307
837.029	23284
837.167	23162
837.305	23147
837.443	23098
837.58	23014
837.718	23090
837.856	23044
837.993	23022
838.131	23109
838.269	22953
838.406	22987
838.544	22946
838.681	22717
838.819	22744
838.956	22569
839.094	22550
839.231	22523
839.369	22816
839.506	23018
839.643	22797
839.781	22432
839.918	22603
840.055	22489
840.193	22577
840.33	22470
840.467	22462
840.604	22557
840.742	22835
840.879	22356
841.016	22462
841.153	22478
841.29	22630
841.427	22341
841.564	22630
841.701	22432
841.838	22451
841.975	22344
842.112	22516
842.249	22382
842.385	22299
842.522	22516
842.659	22196
842.796	22173
842.933	22234
843.069	22139
843.206	22169
843.343	22276
843.479	22200
843.616	22287
843.752	21987
843.889	22074
844.025	22177
844.162	22021
844.298	22097
844.435	21949
844.571	21789
844.708	21998
844.844	22143
844.98	22105
845.117	22040
845.253	21979
845.389	21793
845.525	21926
845.661	21804
845.798	21800
845.934	21838
846.07	21701
846.206	21774
846.342	21831
846.478	21652
846.614	21561
846.75	21294
846.886	21488
847.022	21454
847.158	21576
847.294	21496
847.429	21481
847.565	21466
847.701	21724
847.837	21211
847.972	21108
848.108	21291
848.244	21222
848.379	21077
848.515	21013
848.65	21093
848.786	21043
848.921	21085
849.057	21093
849.192	21108
849.328	21112
849.463	21013
849.598	21055
849.734	20937
849.869	20842
850.004	20887
850.14	20880
850.275	20811
850.41	20750
850.545	20857
850.68	20861
850.815	20891
850.95	20823
851.085	20967
851.22	20963
851.355	20739
851.49	20777
851.625	20830
851.76	20632
851.895	20708
852.03	20716
852.165	20849
852.299	20842
852.434	20925
852.569	20838
852.703	20986
852.838	20861
852.973	20906
853.107	20895
853.242	20762
853.376	20727
853.511	20511
853.645	20621
853.78	20705
853.914	20792
854.048	20678
854.183	20632
854.317	20644
854.451	20933
854.585	20678
854.72	20716
854.854	20720
854.988	20564
855.122	20613
855.256	20575
855.39	20659
855.524	20674
855.658	20674
855.792	20701
855.926	20674
856.06	20609
856.194	20781
856.327	20602
856.461	20522
856.595	20609
856.729	20598
856.862	20792
856.996	20735
857.13	20689
857.263	20804
857.397	20750
857.53	20632
857.664	20724
857.797	20765
857.931	20743
858.064	20686
858.197	20788
858.331	20598
858.464	20590
858.597	20644
858.731	20682
858.864	20686
858.997	20583
859.13	20712
859.263	20530
859.396	20590
859.529	20522
859.662	20450
859.795	20545
859.928	20746
860.061	20792
860.194	20895
860.327	20754
860.46	20686
860.592	20708
860.725	20788
860.858	20864
860.99	20674
861.123	20609
861.256	20621
861.388	20724
861.521	21336
861.653	20492
861.786	20518
861.918	20564
862.05	20564
862.183	20667
862.315	20587
862.447	20663
862.58	20514
862.712	20362
862.844	20298
862.976	20530
863.108	20419
863.24	20937
863.372	20374
863.504	20381
863.636	20507
863.768	20480
863.9	20244
864.032	20434
864.164	20328
864.296	20237
864.428	20507
864.559	20366
864.691	20400
864.823	20339
864.954	20374
865.086	20393
865.217	20377
865.349	20168
865.48	20339
865.612	20370
865.743	20457
865.875	20347
866.006	20374
866.137	20195
866.269	20199
866.4	20252
866.531	20134
866.662	20168
866.793	20271
866.924	20119
867.055	20191
867.186	20119
867.317	20210
867.448	20138
867.579	20214
867.71	20115
867.841	20126
867.972	20172
868.103	20252
868.233	20214
868.364	20317
868.495	20389
868.625	20412
868.756	20492
868.886	20377
869.017	20423
869.147	20476
869.278	20556
869.408	20518
869.539	20488
869.669	20499
869.799	20465
869.929	20629
870.06	20533
870.19	20735
870.32	20762
870.45	20682
870.58	20895
870.71	20971
870.84	20925
870.97	20887
871.1	20815
871.23	20967
871.36	21093
871.489	20880
871.619	21001
871.749	21043
871.879	20929
872.008	21161
872.138	21089
872.267	20967
872.397	20891
872.526	20921
872.656	20880
872.785	20868
872.915	21116
873.044	21127
873.173	21081
873.303	21074
873.432	21180
873.561	21233
873.69	21176
873.819	21062
873.948	21104
874.077	21013
874.206	21047
874.335	21024
874.464	21116
874.593	21389
874.722	21348
874.851	21386
874.979	21294
875.108	21291
875.237	21268
875.365	21222
875.494	21294
875.623	21298
875.751	21348
875.88	21382
876.008	21473
876.136	21416
876.265	21709
876.393	21854
876.521	21690
876.65	21850
876.778	21698
876.906	21656
877.034	21690
877.162	21686
877.29	21587
877.418	21705
877.546	21709
877.674	21720
877.802	21717
877.93	21572
878.058	21705
878.185	21485
878.313	21671
878.441	21656
878.568	21564
878.696	21629
878.824	21717
878.951	21736
879.079	21690
879.206	21907
879.333	21838
879.461	21717
879.588	21865
879.715	21835
879.842	21953
879.97	21732
880.097	21530
880.224	21454
880.351	21519
880.478	21424
880.605	21618
880.732	21580
880.859	21713
880.986	21549
881.112	21679
881.239	21325
881.366	21264
881.493	21051
881.619	21169
881.746	21085
881.872	21127
881.999	21089
882.125	20918
882.252	21112
882.378	21142
882.505	21104
882.631	20849
882.757	20804
882.883	20861
883.01	20811
883.136	20792
883.262	20701
883.388	20735
883.514	20773
883.64	20750
883.766	20800
883.892	20606
884.018	20682
884.143	20739
884.269	20826
884.395	20575
884.52	20446
884.646	20507
884.772	20446
884.897	20415
885.023	20492
885.148	20465
885.274	20590
885.399	20476
885.524	20507
885.65	20526
885.775	20503
885.9	20366
886.025	20590
886.15	20450
886.275	20415
886.4	20252
886.525	20396
886.65	20366
886.775	20275
886.9	20434
887.025	20625
887.149	20457
887.274	20259
887.399	20233
887.523	20199
887.648	20153
887.773	20069
887.897	20309
888.021	20301
888.146	20164
888.27	20126
888.395	20412
888.519	20275
888.643	20202
888.767	20164
888.891	20100
889.015	19997
889.139	20096
889.263	20024
889.387	20134
889.511	20191
889.635	20088
889.759	20050
889.883	19963
890.006	19890
890.13	20035
890.254	19845
890.377	19852
890.501	19894
890.624	19761
890.748	19883
890.871	19655
890.995	19544
891.118	19472
891.241	19742
891.364	19575
891.488	19750
891.611	19552
891.734	19563
891.857	19639
891.98	19529
892.103	19609
892.226	19643
892.349	19552
892.471	19426
892.594	19529
892.717	19559
892.839	19388
892.962	19597
893.085	19537
893.207	19499
893.33	19556
893.452	19384
893.575	19552
893.697	19472
893.819	19624
893.941	19746
894.064	19658
894.186	19453
894.308	19514
894.43	19476
894.552	19727
894.674	19616
894.796	19430
894.918	19578
895.04	19392
895.161	19502
895.283	19651
895.405	19426
895.526	19613
895.648	19620
895.769	19533
895.891	19460
896.012	19628
896.134	19719
896.255	19480
896.376	19434
896.498	19502
896.619	19586
896.74	19525
896.861	19597
896.982	19849
897.103	20027
897.224	19814
897.345	19772
897.466	19666
897.587	19822
897.708	19837
897.828	19731
897.949	19628
898.07	19559
898.19	19738
898.311	19814
898.431	19734
898.552	19822
898.672	19868
898.792	19921
898.913	19723
899.033	19715
899.153	19537
899.273	19537
899.393	19655
899.513	19537
899.633	19586
899.753	19639
899.873	19506
899.993	19529
900.113	19658
900.232	19578
900.352	19460
900.472	19354
900.591	19164
900.711	19373
900.83	19255
900.95	19411
901.069	19369
901.189	19129
901.308	19015
901.427	18840
901.546	18943
901.665	18878
901.784	18954
901.904	18764
902.023	18760
902.141	18471
902.26	18422
902.379	18578
902.498	18456
902.617	18506
902.735	18399
902.854	18384
902.973	18369
903.091	18098
903.21	17977
903.328	18110
903.446	18057
903.565	17908
903.683	17863
903.801	17836
903.919	17805
904.038	17828
904.156	17657
904.274	17783
904.392	17649
904.51	17642
904.627	17729
904.745	17786
904.863	17745
904.981	17429
905.098	17376
905.216	17337
905.334	17387
905.451	17315
905.569	17383
905.686	17455
905.803	17330
905.921	17136
906.038	17303
906.155	17193
906.272	17075
906.389	17079
906.506	16850
906.623	16927
906.74	16877
906.857	16771
906.974	16820
907.091	16999
907.208	17045
907.324	16999
907.441	16778
907.557	16675
907.674	16626
907.79	16634
907.907	16527
908.023	16622
908.139	16588
908.256	16462
908.372	16550
908.488	16481
908.604	16360
908.72	16341
908.836	16261
908.952	16356
909.068	16371
909.184	16360
909.3	16310
909.415	16394
909.531	16257
909.647	16006
909.762	16051
909.878	15979
909.993	16036
910.108	16029
910.224	16105
910.339	15998
910.454	15865
910.57	15854
910.685	15736
910.8	16166
910.915	15972
911.03	15819
911.145	15599
911.259	15690
911.374	15713
911.489	15667
911.604	15526
911.718	15428
911.833	15447
911.947	15401
912.062	15348
912.176	15424
912.291	15386
912.405	15428
912.519	15595
912.633	15584
912.748	15485
912.862	15393
912.976	15192
913.09	15070
913.204	15165
913.318	15188
913.431	15283
913.545	15389
913.659	15363
913.772	15184
913.886	15066
914	14967
914.113	15142
914.226	15203
914.34	15100
914.453	14994
914.566	15093
914.68	15005
914.793	14929
914.906	14739
915.019	14727
915.132	14514
915.245	14663
915.358	14686
915.47	14594
915.583	14610
915.696	14659
915.809	14796
915.921	14807
916.034	14579
916.146	14556
916.259	14492
916.371	14701
916.483	14495
916.595	14484
916.708	14590
916.82	14419
916.932	14514
917.044	14473
917.156	14492
917.268	14362
917.38	14377
917.491	14339
917.603	14374
917.715	14351
917.826	14404
917.938	14218
918.049	14115
918.161	14263
918.272	14450
918.384	14438
918.495	14252
918.606	14081
918.717	14008
918.828	14119
918.939	14103
919.05	13940
919.161	14096
919.272	13932
919.383	13974
919.494	14142
919.604	14317
919.715	14077
919.826	13879
919.936	14024
920.047	14199
920.157	14054
920.267	14138
920.378	14084
920.488	14054
920.598	14267
920.708	14385
920.818	14111
920.928	14221
921.038	14415
921.148	14286
921.258	14043
921.368	13947
921.477	13791
921.587	13811
921.697	13696
921.806	13845
921.916	13742
922.025	13616
922.134	13438
922.244	13487
922.353	13449
922.462	13327
922.571	13190
922.68	13126
922.789	13038
922.898	13152
923.007	13065
923.116	13149
923.224	13057
923.333	13050
923.442	13000
923.55	12973
923.659	12993
923.767	12989
923.876	12829
923.984	13012
924.092	12825
924.201	12939
924.309	12970
924.417	12878
924.525	12768
924.633	12840
924.741	13582
924.849	12642
924.956	12825
925.064	12608
925.172	12464
925.279	12494
925.387	12635
925.494	12517
925.602	12692
925.709	12620
925.816	12448
925.924	12464
926.031	12544
926.138	12448
926.245	12669
926.352	12410
926.459	12513
926.566	12525
926.673	12475
926.779	12365
926.886	12285
926.993	12182
927.099	12155
927.206	12159
927.312	12083
927.419	12251
927.525	12163
927.631	12270
927.737	12064
927.843	11950
927.95	11897
928.056	11939
928.162	12007
928.267	12064
928.373	12620
928.479	12060
928.585	11870
928.69	11901
928.796	12026
928.901	11767
929.007	11699
929.112	11824
929.218	11851
929.323	11760
929.428	11680
929.533	11843
929.638	11699
929.743	11718
929.848	11794
929.953	11680
930.058	11543
930.163	11417
930.267	11376
930.372	11516
930.477	11387
930.581	11608
930.685	11414
930.79	11318
930.894	11353
930.998	11269
931.103	11455
931.207	11071
931.311	11045
931.415	10854
931.519	10645
931.623	10622
