Data from test_V78500241_156.txt Node
Date: Fri Mar 25 15:42:52 CST 2022
User: usil
Spectrometer: V785-0024
Trigger mode: 0
Integration Time (sec): 4.000000E-1
Scans to average: 1
Nonlinearity correction enabled: false
Boxcar width: 0
Storing dark spectrum: false
XAxis mode: Wavelengths
Number of Pixels in Spectrum: 1024
>>>>>Begin Spectral Data<<<<<
801.071	29410
801.214	29311
801.356	29048
801.499	29029
801.641	29022
801.783	28866
801.926	29029
802.068	28984
802.211	28919
802.353	28820
802.496	28721
802.638	28599
802.78	28462
802.923	28500
803.065	28497
803.208	28546
803.35	28588
803.492	28850
803.635	28729
803.777	28660
803.919	28809
804.061	29060
804.204	28637
804.346	28626
804.488	28577
804.63	28557
804.773	28603
804.915	28637
805.057	28774
805.199	28736
805.341	28805
805.483	28923
805.626	28847
805.768	28733
805.91	28744
806.052	28869
806.194	28668
806.336	28987
806.478	28839
806.62	28934
806.762	28801
806.904	29098
807.046	29162
807.188	29117
807.33	29128
807.472	29250
807.614	29193
807.756	29064
807.898	28949
808.04	28991
808.182	28987
808.324	28991
808.465	29037
808.607	29155
808.749	29246
808.891	29364
809.033	29528
809.174	29273
809.316	29433
809.458	29383
809.6	29318
809.741	29227
809.883	29383
810.025	29516
810.166	29551
810.308	29444
810.45	29493
810.591	29391
810.733	29368
810.875	29296
811.016	29174
811.158	29242
811.299	29417
811.441	29440
811.582	29433
811.724	29212
811.865	29200
812.007	29307
812.148	29181
812.29	29239
812.431	29356
812.573	29410
812.714	29638
812.855	29824
812.997	29813
813.138	29931
813.279	29961
813.421	29745
813.562	29627
813.703	29497
813.845	29379
813.986	29166
814.127	29003
814.268	28869
814.41	28938
814.551	28828
814.692	28908
814.833	28801
814.974	28774
815.115	28824
815.256	28561
815.397	28736
815.539	28797
815.68	28519
815.821	28512
815.962	28679
816.103	28649
816.244	28462
816.385	28500
816.526	28287
816.666	28234
816.807	28017
816.948	28219
817.089	28177
817.23	27975
817.371	28032
817.512	28021
817.653	28029
817.793	27945
817.934	28044
818.075	28032
818.216	28078
818.356	27960
818.497	27857
818.638	27694
818.778	27781
818.919	27785
819.06	27774
819.2	27918
819.341	27854
819.481	27960
819.622	28112
819.762	28344
819.903	28249
820.043	28101
820.184	28006
820.324	28032
820.465	28265
820.605	28162
820.746	28051
820.886	27819
821.026	27964
821.167	27827
821.307	28059
821.447	27911
821.588	27781
821.728	27610
821.868	27538
822.008	27332
822.149	27401
822.289	27298
822.429	27058
822.569	26975
822.709	27039
822.849	26838
822.99	26918
823.13	26788
823.27	26674
823.41	26571
823.55	26476
823.69	26617
823.83	26507
823.97	26530
824.11	26492
824.25	26381
824.389	26423
824.529	26526
824.669	26514
824.809	26328
824.949	26568
825.089	26427
825.228	26431
825.368	26138
825.508	26237
825.648	26278
825.787	26221
825.927	26271
826.067	26271
826.206	26282
826.346	26313
826.485	26271
826.625	26271
826.765	26343
826.904	26313
827.044	25970
827.183	25925
827.323	25849
827.462	26031
827.601	25997
827.741	25841
827.88	25902
828.02	25685
828.159	25837
828.298	25902
828.437	25966
828.577	25746
828.716	25944
828.855	25826
828.994	25567
829.134	25616
829.273	25666
829.412	25594
829.551	25594
829.69	25529
829.829	25525
829.968	25696
830.107	25738
830.246	25514
830.385	25472
830.524	25434
830.663	25358
830.802	25244
830.941	25183
831.08	25103
831.219	25206
831.357	25354
831.496	25225
831.635	25027
831.774	25057
831.913	24859
832.051	25019
832.19	24776
832.329	24814
832.467	24909
832.606	24669
832.744	24814
832.883	24821
833.022	24669
833.16	24658
833.299	24837
833.437	24749
833.576	24886
833.714	24882
833.852	24947
833.991	24970
834.129	24916
834.267	24875
834.406	24711
834.544	24760
834.682	24661
834.821	24673
834.959	25038
835.097	24757
835.235	24829
835.373	24715
835.511	24654
835.65	24574
835.788	24627
835.926	24437
836.064	24384
836.202	24532
836.34	24585
836.478	24696
836.615	24570
836.753	24517
836.891	24703
837.029	24578
837.167	24570
837.305	24471
837.443	24475
837.58	24467
837.718	24380
837.856	24391
837.993	24350
838.131	24254
838.269	24201
838.406	24380
838.544	24216
838.681	23961
838.819	23912
838.956	23794
839.094	23847
839.231	23813
839.369	24106
839.506	24247
839.643	23961
839.781	23786
839.918	23570
840.055	23809
840.193	23745
840.33	23710
840.467	23809
840.604	23756
840.742	24064
840.879	23497
841.016	23756
841.153	23577
841.29	23687
841.427	23577
841.564	23642
841.701	23551
841.838	23528
841.975	23543
842.112	23684
842.249	23448
842.385	23395
842.522	23661
842.659	23581
842.796	23414
842.933	23372
843.069	23311
843.206	23490
843.343	23398
843.479	23318
843.616	23398
843.752	23025
843.889	23136
844.025	23223
844.162	23041
844.298	23204
844.435	23181
844.571	23140
844.708	23166
844.844	23208
844.98	23227
845.117	23239
845.253	23086
845.389	22869
845.525	23124
845.661	22984
845.798	22816
845.934	22850
846.07	22691
846.206	22828
846.342	22953
846.478	22831
846.614	22592
846.75	22622
846.886	22474
847.022	22683
847.158	22694
847.294	22394
847.429	22694
847.565	22550
847.701	22755
847.837	22314
847.972	22185
848.108	22432
848.244	22371
848.379	22147
848.515	22105
848.65	22036
848.786	22044
848.921	22032
849.057	22158
849.192	22169
849.328	22219
849.463	22105
849.598	22040
849.734	21972
849.869	21865
850.004	21895
850.14	21808
850.275	21781
850.41	21774
850.545	21770
850.68	21739
850.815	21778
850.95	21690
851.085	22112
851.22	21968
851.355	21899
851.49	21728
851.625	21709
851.76	21857
851.895	21785
852.03	21648
852.165	21869
852.299	21964
852.434	21953
852.569	21759
852.703	21865
852.838	21842
852.973	21972
853.107	21895
853.242	21781
853.376	21622
853.511	21603
853.645	21557
853.78	21755
853.914	21542
854.048	21477
854.183	21564
854.317	21534
854.451	21800
854.585	21625
854.72	21606
854.854	21591
854.988	21469
855.122	21591
855.256	21344
855.39	21504
855.524	21633
855.658	21660
855.792	21717
855.926	21553
856.06	21629
856.194	21720
856.327	21534
856.461	21466
856.595	21526
856.729	21504
856.862	21724
856.996	21705
857.13	21690
857.263	21641
857.397	21675
857.53	21481
857.664	21679
857.797	21728
857.931	21732
858.064	21667
858.197	21561
858.331	21526
858.464	21538
858.597	21408
858.731	21542
858.864	21492
858.997	21591
859.13	21580
859.263	21603
859.396	21675
859.529	21477
859.662	21416
859.795	21386
859.928	21549
860.061	21679
860.194	21793
860.327	21713
860.46	21549
860.592	21698
860.725	21671
860.858	21603
860.99	21519
861.123	21416
861.256	21488
861.388	21553
861.521	22105
861.653	21336
861.786	21302
861.918	21466
862.05	21355
862.183	21534
862.315	21488
862.447	21629
862.58	21481
862.712	21374
862.844	21184
862.976	21287
863.108	21310
863.24	21587
863.372	21233
863.504	21157
863.636	21298
863.768	21230
863.9	21264
864.032	21093
864.164	21176
864.296	21146
864.428	21332
864.559	21256
864.691	21203
864.823	21256
864.954	21249
865.086	21180
865.217	21142
865.349	21028
865.48	21108
865.612	21180
865.743	21112
865.875	21154
866.006	20944
866.137	21085
866.269	21104
866.4	21070
866.531	21070
866.662	21001
866.793	20948
866.924	21017
867.055	20891
867.186	21096
867.317	20963
867.448	20925
867.579	20921
867.71	20944
867.841	21013
867.972	20929
868.103	21036
868.233	21093
868.364	20887
868.495	21123
868.625	21211
868.756	21386
868.886	21157
869.017	21173
869.147	21336
869.278	21325
869.408	21203
869.539	21260
869.669	21344
869.799	21294
869.929	21321
870.06	21378
870.19	21564
870.32	21545
870.45	21545
870.58	21648
870.71	21846
870.84	21808
870.97	21625
871.1	21564
871.23	21876
871.36	21816
871.489	21736
871.619	21793
871.749	21945
871.879	21838
872.008	21880
872.138	21827
872.267	21842
872.397	21713
872.526	21739
872.656	21705
872.785	21720
872.915	21793
873.044	21934
873.173	21827
873.303	21930
873.432	21873
873.561	21998
873.69	21880
873.819	21838
873.948	21968
874.077	21785
874.206	21793
874.335	21800
874.464	21869
874.593	22139
874.722	22074
874.851	22147
874.979	22131
875.108	22143
875.237	22078
875.365	21991
875.494	22067
875.623	22177
875.751	22040
875.88	21991
876.008	22242
876.136	22295
876.265	22504
876.393	22504
876.521	22535
876.65	22527
876.778	22485
876.906	22363
877.034	22500
877.162	22436
877.29	22375
877.418	22344
877.546	22432
877.674	22394
877.802	22451
877.93	22550
878.058	22291
878.185	22291
878.313	22436
878.441	22405
878.568	22363
878.696	22261
878.824	22519
878.951	22516
879.079	22554
879.206	22763
879.333	22649
879.461	22538
879.588	22630
879.715	22596
879.842	22729
879.97	22626
880.097	22287
880.224	22211
880.351	22360
880.478	22192
880.605	22181
880.732	22280
880.859	22561
880.986	22287
881.112	22303
881.239	22230
881.366	22082
881.493	21888
881.619	21873
881.746	21949
881.872	21854
881.999	21759
882.125	21800
882.252	21930
882.378	21907
882.505	21934
882.631	21667
882.757	21705
882.883	21690
883.01	21618
883.136	21603
883.262	21431
883.388	21526
883.514	21568
883.64	21663
883.766	21504
883.892	21389
884.018	21340
884.143	21439
884.269	21606
884.395	21302
884.52	21226
884.646	21233
884.772	21119
884.897	21135
885.023	21150
885.148	21348
885.274	21450
885.399	21325
885.524	21188
885.65	21180
885.775	21218
885.9	21203
886.025	21302
886.15	21329
886.275	21252
886.4	21104
886.525	21192
886.65	21214
886.775	21119
886.9	21325
887.025	21450
887.149	21214
887.274	20883
887.399	21013
887.523	21024
887.648	20788
887.773	20857
887.897	21047
888.021	20883
888.146	20849
888.27	21081
888.395	21017
888.519	20918
888.643	20986
888.767	21017
888.891	20815
889.015	20720
889.139	20861
889.263	20720
889.387	20925
889.511	20872
889.635	20735
889.759	20617
889.883	20682
890.006	20731
890.13	20750
890.254	20716
890.377	20556
890.501	20492
890.624	20229
890.748	20587
890.871	20419
890.995	20164
891.118	20229
891.241	20305
891.364	20309
891.488	20366
891.611	20336
891.734	20298
891.857	20355
891.98	20225
892.103	20248
892.226	20305
892.349	20263
892.471	20043
892.594	20183
892.717	20168
892.839	20084
892.962	20218
893.085	20195
893.207	20172
893.33	20130
893.452	20168
893.575	20298
893.697	20142
893.819	20419
893.941	20396
894.064	20404
894.186	20016
894.308	20176
894.43	20347
894.552	20328
894.674	20263
894.796	20027
894.918	20168
895.04	20271
895.161	20202
895.283	20237
895.405	20149
895.526	20229
895.648	20058
895.769	20191
895.891	20271
896.012	20309
896.134	20256
896.255	20210
896.376	20183
896.498	20233
896.619	20282
896.74	20339
896.861	20195
896.982	20522
897.103	20705
897.224	20522
897.345	20473
897.466	20320
897.587	20438
897.708	20442
897.828	20484
897.949	20336
898.07	20275
898.19	20442
898.311	20579
898.431	20377
898.552	20408
898.672	20473
898.792	20495
898.913	20355
899.033	20259
899.153	20138
899.273	20138
899.393	20073
899.513	20176
899.633	20240
899.753	20164
899.873	20016
899.993	20081
900.113	20153
900.232	20073
900.352	20016
900.472	19967
900.591	19887
900.711	19894
900.83	19803
900.95	19967
901.069	20001
901.189	19655
901.308	19635
901.427	19476
901.546	19438
901.665	19563
901.784	19651
901.904	19251
902.023	19301
902.141	19019
902.26	18943
902.379	19015
902.498	18970
902.617	18913
902.735	18901
902.854	18951
902.973	18916
903.091	18688
903.21	18578
903.328	18559
903.446	18650
903.565	18460
903.683	18361
903.801	18361
903.919	18391
904.038	18391
904.156	18140
904.274	18296
904.392	18258
904.51	18285
904.627	18152
904.745	18285
904.863	18277
904.981	17901
905.098	17828
905.216	17904
905.334	17942
905.451	17897
905.569	17863
905.686	17923
905.803	17843
905.921	17661
906.038	17752
906.155	17687
906.272	17512
906.389	17554
906.506	17261
906.623	17433
906.74	17395
906.857	17250
906.974	17239
907.091	17303
907.208	17463
907.324	17395
907.441	17315
907.557	17185
907.674	17174
907.79	16961
907.907	16946
908.023	17018
908.139	16953
908.256	17006
908.372	16896
908.488	16885
908.604	16748
908.72	16740
908.836	16713
908.952	16729
909.068	16771
909.184	16889
909.3	16755
909.415	16790
909.531	16752
909.647	16447
909.762	16523
909.878	16394
909.993	16329
910.108	16352
910.224	16386
910.339	16523
910.454	16246
910.57	16219
910.685	16169
910.8	16489
910.915	16348
911.03	16207
911.145	15972
911.259	15899
911.374	16002
911.489	15934
911.604	15918
911.718	15774
911.833	15781
911.947	15682
912.062	15671
912.176	15747
912.291	15778
912.405	15831
912.519	15945
912.633	15956
912.748	15797
912.862	15861
912.976	15568
913.09	15397
913.204	15519
913.318	15599
913.431	15667
913.545	15595
913.659	15663
913.772	15443
913.886	15462
914	15389
914.113	15450
914.226	15462
914.34	15428
914.453	15211
914.566	15382
914.68	15252
914.793	15192
914.906	15138
915.019	15020
915.132	14933
915.245	14986
915.358	15039
915.47	14998
915.583	15032
915.696	15081
915.809	15119
915.921	15199
916.034	14990
916.146	14857
916.259	14891
916.371	14960
916.483	14994
916.595	14758
916.708	14876
916.82	14823
916.932	14815
917.044	14716
917.156	14834
917.268	14663
917.38	14629
917.491	14571
917.603	14610
917.715	14670
917.826	14792
917.938	14663
918.049	14438
918.161	14602
918.272	14716
918.384	14735
918.495	14613
918.606	14476
918.717	14320
918.828	14446
918.939	14461
919.05	14229
919.161	14332
919.272	14138
919.383	14256
919.494	14377
919.604	14556
919.715	14347
919.826	14263
919.936	14294
920.047	14400
920.157	14259
920.267	14507
920.378	14362
920.488	14282
920.598	14499
920.708	14594
920.818	14454
920.928	14526
921.038	14583
921.148	14545
921.258	14286
921.368	14153
921.477	14088
921.587	14012
921.697	13906
921.806	14130
921.916	13841
922.025	13753
922.134	13715
922.244	13613
922.353	13738
922.462	13556
922.571	13525
922.68	13343
922.789	13259
922.898	13324
923.007	13278
923.116	13316
923.224	13259
923.333	13251
923.442	13114
923.55	13042
923.659	13209
923.767	13171
923.876	13069
923.984	13168
924.092	13027
924.201	13141
924.309	13008
924.417	13183
924.525	12928
924.633	13015
924.741	13761
924.849	12753
924.956	12901
925.064	12806
925.172	12741
925.279	12688
925.387	12768
925.494	12806
925.602	12897
925.709	12795
925.816	12753
925.924	12753
926.031	12787
926.138	12692
926.245	12703
926.352	12566
926.459	12604
926.566	12783
926.673	12620
926.779	12502
926.886	12475
926.993	12391
927.099	12319
927.206	12216
927.312	12220
927.419	12308
927.525	12281
927.631	12251
927.737	12258
927.843	12205
927.95	12057
928.056	12117
928.162	12136
928.267	12175
928.373	12825
928.479	12190
928.585	11954
928.69	12087
928.796	12163
928.901	11988
929.007	11874
929.112	11999
929.218	11889
929.323	11863
929.428	11866
929.533	11950
929.638	11794
929.743	11813
929.848	11859
929.953	11794
930.058	11657
930.163	11532
930.267	11619
930.372	11668
930.477	11471
930.581	11729
930.685	11570
930.79	11440
930.894	11429
930.998	11391
931.103	11562
931.207	11151
931.311	11113
931.415	11037
931.519	10835
931.623	10752
