Data from test_V78500241_1409.txt Node
Date: Fri Mar 25 15:51:33 CST 2022
User: usil
Spectrometer: V785-0024
Trigger mode: 0
Integration Time (sec): 4.000000E-1
Scans to average: 1
Nonlinearity correction enabled: false
Boxcar width: 0
Storing dark spectrum: false
XAxis mode: Wavelengths
Number of Pixels in Spectrum: 1024
>>>>>Begin Spectral Data<<<<<
801.071	27755
801.214	27614
801.356	27534
801.499	27348
801.641	27180
801.783	27302
801.926	27401
802.068	27207
802.211	27211
802.353	27279
802.496	26918
802.638	26861
802.78	26929
802.923	26921
803.065	26762
803.208	26910
803.35	27077
803.492	27074
803.635	27138
803.777	27150
803.919	27207
804.061	27477
804.204	27313
804.346	27074
804.488	27074
804.63	27066
804.773	27142
804.915	27226
805.057	27176
805.199	27252
805.341	27226
805.483	27268
805.626	27344
805.768	27241
805.91	27272
806.052	27192
806.194	27127
806.336	27393
806.478	27397
806.62	27249
806.762	27405
806.904	27625
807.046	27762
807.188	27606
807.33	27789
807.472	27732
807.614	27637
807.756	27599
807.898	27652
808.04	27534
808.182	27511
808.324	27576
808.465	27648
808.607	27770
808.749	27857
808.891	28036
809.033	28044
809.174	28025
809.316	27873
809.458	27888
809.6	27838
809.741	28010
809.883	28097
810.025	28223
810.166	28226
810.308	28196
810.45	28112
810.591	28002
810.733	27918
810.875	27922
811.016	27690
811.158	27907
811.299	27998
811.441	28093
811.582	27998
811.724	28078
811.865	27804
812.007	27876
812.148	27869
812.29	27930
812.431	28036
812.573	28272
812.714	28303
812.855	28523
812.997	28489
813.138	28592
813.279	28478
813.421	28470
813.562	28398
813.703	28223
813.845	28116
813.986	27892
814.127	27682
814.268	27515
814.41	27610
814.551	27610
814.692	27625
814.833	27545
814.974	27606
815.115	27648
815.256	27564
815.397	27420
815.539	27473
815.68	27291
815.821	27260
815.962	27340
816.103	27401
816.244	27252
816.385	27241
816.526	27199
816.666	26940
816.807	26910
816.948	27032
817.089	26891
817.23	26944
817.371	26895
817.512	26933
817.653	26918
817.793	26769
817.934	26708
818.075	26830
818.216	26705
818.356	26769
818.497	26804
818.638	26590
818.778	26648
818.919	26644
819.06	26648
819.2	26853
819.341	26982
819.481	26887
819.622	27165
819.762	27062
819.903	27188
820.043	27036
820.184	26998
820.324	26845
820.465	27024
820.605	27017
820.746	27047
820.886	26895
821.026	27058
821.167	26819
821.307	27009
821.447	26826
821.588	26644
821.728	26727
821.868	26511
822.008	26415
822.149	26393
822.289	26290
822.429	26202
822.569	25963
822.709	26062
822.849	25811
822.99	25826
823.13	25921
823.27	25814
823.41	25689
823.55	25738
823.69	25750
823.83	25662
823.97	25643
824.11	25457
824.25	25430
824.389	25590
824.529	25525
824.669	25358
824.809	25620
824.949	25578
825.089	25594
825.228	25544
825.368	25278
825.508	25335
825.648	25331
825.787	25430
825.927	25430
826.067	25411
826.206	25190
826.346	25308
826.485	25400
826.625	25373
826.765	25491
826.904	25369
827.044	25118
827.183	25190
827.323	25099
827.462	25156
827.601	25122
827.741	25034
827.88	25133
828.02	24901
828.159	24920
828.298	25012
828.437	25107
828.577	24947
828.716	25156
828.855	24958
828.994	24753
829.134	24844
829.273	24829
829.412	24688
829.551	24681
829.69	24772
829.829	24661
829.968	24951
830.107	24802
830.246	24703
830.385	24665
830.524	24555
830.663	24639
830.802	24433
830.941	24399
831.08	24350
831.219	24376
831.357	24399
831.496	24528
831.635	24239
831.774	24247
831.913	24342
832.051	24155
832.19	24045
832.329	24159
832.467	24060
832.606	23923
832.744	23969
832.883	23961
833.022	23973
833.16	24121
833.299	23950
833.437	24095
833.576	24076
833.714	24087
833.852	24106
833.991	24148
834.129	24277
834.267	24197
834.406	24091
834.544	24213
834.682	24038
834.821	24102
834.959	24361
835.097	23973
835.235	24091
835.373	24102
835.511	24060
835.65	23973
835.788	23882
835.926	23847
836.064	23726
836.202	23813
836.34	23923
836.478	24045
836.615	23737
836.753	24022
836.891	23931
837.029	23942
837.167	23863
837.305	23794
837.443	23817
837.58	23817
837.718	23912
837.856	23661
837.993	23752
838.131	23832
838.269	23573
838.406	23699
838.544	23627
838.681	23254
838.819	23455
838.956	23189
839.094	23197
839.231	23326
839.369	23349
839.506	23657
839.643	23364
839.781	23273
839.918	23102
840.055	23337
840.193	23181
840.33	23132
840.467	23162
840.604	23265
840.742	23376
840.879	22987
841.016	23094
841.153	22927
841.29	23269
841.427	23155
841.564	23140
841.701	23102
841.838	23052
841.975	23067
842.112	23136
842.249	22942
842.385	22835
842.522	23075
842.659	22984
842.796	22961
842.933	22759
843.069	22835
843.206	22923
843.343	22908
843.479	22923
843.616	22816
843.752	22599
843.889	22618
844.025	22801
844.162	22630
844.298	22679
844.435	22577
844.571	22706
844.708	22687
844.844	22885
844.98	22691
845.117	22812
845.253	22462
845.389	22481
845.525	22519
845.661	22573
845.798	22386
845.934	22478
846.07	22413
846.206	22447
846.342	22417
846.478	22196
846.614	22265
846.75	22101
846.886	22090
847.022	22162
847.158	22147
847.294	22109
847.429	22029
847.565	22074
847.701	22382
847.837	21884
847.972	21945
848.108	22059
848.244	21915
848.379	21888
848.515	21690
848.65	21759
848.786	21892
848.921	21759
849.057	21808
849.192	21892
849.328	21808
849.463	21759
849.598	21728
849.734	21618
849.869	21766
850.004	21443
850.14	21534
850.275	21603
850.41	21450
850.545	21519
850.68	21416
850.815	21420
850.95	21488
851.085	21751
851.22	21663
851.355	21447
851.49	21469
851.625	21496
851.76	21420
851.895	21370
852.03	21454
852.165	21348
852.299	21523
852.434	21534
852.569	21412
852.703	21454
852.838	21587
852.973	21675
853.107	21625
853.242	21545
853.376	21355
853.511	21268
853.645	21264
853.78	21363
853.914	21351
854.048	21230
854.183	21260
854.317	21294
854.451	21523
854.585	21386
854.72	21378
854.854	21329
854.988	21161
855.122	21294
855.256	21032
855.39	21298
855.524	21268
855.658	21348
855.792	21344
855.926	21355
856.06	21435
856.194	21344
856.327	21294
856.461	21249
856.595	21348
856.729	21519
856.862	21416
856.996	21344
857.13	21367
857.263	21462
857.397	21412
857.53	21241
857.664	21363
857.797	21370
857.931	21355
858.064	21298
858.197	21492
858.331	21275
858.464	21287
858.597	21157
858.731	21230
858.864	21176
858.997	21241
859.13	21355
859.263	21378
859.396	21435
859.529	21291
859.662	21268
859.795	21218
859.928	21294
860.061	21291
860.194	21576
860.327	21363
860.46	21386
860.592	21428
860.725	21530
860.858	21485
860.99	21279
861.123	21119
861.256	21298
861.388	21279
861.521	22082
861.653	21169
861.786	21039
861.918	21127
862.05	21298
862.183	21226
862.315	21199
862.447	21325
862.58	21237
862.712	21150
862.844	20941
862.976	21077
863.108	20994
863.24	21488
863.372	20906
863.504	21135
863.636	20929
863.768	20990
863.9	21020
864.032	20921
864.164	20986
864.296	21123
864.428	21051
864.559	21123
864.691	21039
864.823	20941
864.954	21081
865.086	20929
865.217	20853
865.349	20777
865.48	20819
865.612	20963
865.743	21005
865.875	20975
866.006	20960
866.137	20845
866.269	20826
866.4	20739
866.531	20796
866.662	20925
866.793	20891
866.924	20853
867.055	20807
867.186	20872
867.317	20895
867.448	20712
867.579	20800
867.71	20769
867.841	20701
867.972	20838
868.103	20887
868.233	20800
868.364	20906
868.495	20925
868.625	21100
868.756	21188
868.886	21062
869.017	21028
869.147	21176
869.278	21207
869.408	21062
869.539	21180
869.669	21161
869.799	21237
869.929	21249
870.06	21249
870.19	21504
870.32	21450
870.45	21408
870.58	21374
870.71	21492
870.84	21583
870.97	21405
871.1	21393
871.23	21682
871.36	21778
871.489	21652
871.619	21648
871.749	21781
871.879	21701
872.008	21850
872.138	21728
872.267	21713
872.397	21656
872.526	21443
872.656	21443
872.785	21538
872.915	21766
873.044	21800
873.173	21751
873.303	21804
873.432	21800
873.561	21854
873.69	21861
873.819	21759
873.948	21770
874.077	21762
874.206	21663
874.335	21762
874.464	21892
874.593	22063
874.722	21907
874.851	22101
874.979	22082
875.108	21979
875.237	21930
875.365	21842
875.494	21987
875.623	22063
875.751	22002
875.88	22036
876.008	22196
876.136	22223
876.265	22417
876.393	22550
876.521	22462
876.65	22436
876.778	22287
876.906	22489
877.034	22253
877.162	22409
877.29	22284
877.418	22291
877.546	22428
877.674	22333
877.802	22276
877.93	22318
878.058	22158
878.185	22253
878.313	22333
878.441	22280
878.568	22181
878.696	22337
878.824	22485
878.951	22379
879.079	22447
879.206	22653
879.333	22481
879.461	22348
879.588	22470
879.715	22489
879.842	22736
879.97	22325
880.097	22078
880.224	22196
880.351	22234
880.478	22211
880.605	22090
880.732	22124
880.859	22329
880.986	22097
881.112	22265
881.239	22021
881.366	21911
881.493	21842
881.619	21827
881.746	21785
881.872	21739
881.999	21644
882.125	21591
882.252	21781
882.378	21663
882.505	21831
882.631	21587
882.757	21454
882.883	21542
883.01	21492
883.136	21454
883.262	21344
883.388	21275
883.514	21344
883.64	21428
883.766	21302
883.892	21241
884.018	21214
884.143	21439
884.269	21576
884.395	21214
884.52	21161
884.646	21104
884.772	20937
884.897	20952
885.023	21024
885.148	21192
885.274	21157
885.399	21127
885.524	21176
885.65	21112
885.775	21009
885.9	21085
886.025	21116
886.15	21066
886.275	20948
886.4	20975
886.525	21032
886.65	21036
886.775	20986
886.9	21157
887.025	21211
887.149	21104
887.274	20948
887.399	20918
887.523	20804
887.648	20899
887.773	20788
887.897	20853
888.021	20960
888.146	20785
888.27	20921
888.395	20933
888.519	20933
888.643	20758
888.767	21020
888.891	20743
889.015	20609
889.139	20708
889.263	20556
889.387	20693
889.511	20952
889.635	20769
889.759	20613
889.883	20583
890.006	20590
890.13	20796
890.254	20503
890.377	20636
890.501	20476
890.624	20313
890.748	20442
890.871	20313
890.995	20187
891.118	20206
891.241	20317
891.364	20317
891.488	20355
891.611	20229
891.734	20187
891.857	20244
891.98	20172
892.103	20248
892.226	20149
892.349	20202
892.471	19986
892.594	20084
892.717	20119
892.839	20145
892.962	20005
893.085	20183
893.207	20065
893.33	20016
893.452	20084
893.575	20122
893.697	20050
893.819	20233
893.941	20381
894.064	20229
894.186	20119
894.308	20054
894.43	20100
894.552	20267
894.674	20218
894.796	20088
894.918	20024
895.04	20027
895.161	20138
895.283	20088
895.405	20073
895.526	20142
895.648	20149
895.769	20043
895.891	20229
896.012	20256
896.134	20062
896.255	20176
896.376	20020
896.498	20103
896.619	20183
896.74	20142
896.861	20183
896.982	20461
897.103	20537
897.224	20400
897.345	20412
897.466	20332
897.587	20343
897.708	20495
897.828	20324
897.949	20309
898.07	20122
898.19	20259
898.311	20412
898.431	20275
898.552	20358
898.672	20537
898.792	20404
898.913	20389
899.033	20282
899.153	20058
899.273	20001
899.393	20077
899.513	20233
899.633	20103
899.753	20050
899.873	20016
899.993	20054
900.113	20012
900.232	20031
900.352	19989
900.472	19902
900.591	19879
900.711	19967
900.83	19898
900.95	20016
901.069	19970
901.189	19807
901.308	19537
901.427	19426
901.546	19464
901.665	19476
901.784	19434
901.904	19339
902.023	19164
902.141	19107
902.26	19061
902.379	19065
902.498	18935
902.617	18856
902.735	18993
902.854	18852
902.973	18878
903.091	18688
903.21	18681
903.328	18559
903.446	18616
903.565	18460
903.683	18452
903.801	18285
903.919	18361
904.038	18414
904.156	18277
904.274	18285
904.392	18201
904.51	18155
904.627	18194
904.745	18209
904.863	18266
904.981	18140
905.098	17920
905.216	17935
905.334	17859
905.451	17817
905.569	17931
905.686	17897
905.803	17802
905.921	17623
906.038	17824
906.155	17691
906.272	17501
906.389	17467
906.506	17391
906.623	17501
906.74	17326
906.857	17387
906.974	17299
907.091	17417
907.208	17471
907.324	17444
907.441	17204
907.557	17147
907.674	17197
907.79	17102
907.907	17064
908.023	17136
908.139	17105
908.256	17090
908.372	17067
908.488	16965
908.604	16820
908.72	16809
908.836	16965
908.952	16710
909.068	16877
909.184	17037
909.3	16839
909.415	16839
909.531	16733
909.647	16706
909.762	16546
909.878	16637
909.993	16596
910.108	16546
910.224	16459
910.339	16569
910.454	16527
910.57	16360
910.685	16246
910.8	16440
910.915	16504
911.03	16440
911.145	16188
911.259	16051
911.374	16158
911.489	16192
911.604	16071
911.718	15884
911.833	15941
911.947	15739
912.062	15759
912.176	15876
912.291	15880
912.405	15968
912.519	16101
912.633	16109
912.748	15880
912.862	15846
912.976	15720
913.09	15690
913.204	15675
913.318	15705
913.431	15751
913.545	15759
913.659	15804
913.772	15774
913.886	15462
914	15507
914.113	15538
914.226	15705
914.34	15504
914.453	15431
914.566	15526
914.68	15428
914.793	15351
914.906	15214
915.019	15123
915.132	14990
915.245	15127
915.358	15009
915.47	15093
915.583	15116
915.696	15081
915.809	15195
915.921	15291
916.034	15119
916.146	15024
916.259	14933
916.371	15108
916.483	15036
916.595	14891
916.708	15013
916.82	14967
916.932	14963
917.044	14845
917.156	14746
917.268	14762
917.38	14788
917.491	14773
917.603	14807
917.715	14739
917.826	14891
917.938	14712
918.049	14670
918.161	14663
918.272	14788
918.384	14868
918.495	14708
918.606	14537
918.717	14507
918.828	14465
918.939	14412
919.05	14503
919.161	14518
919.272	14294
919.383	14396
919.494	14526
919.604	14750
919.715	14549
919.826	14400
919.936	14427
920.047	14541
920.157	14503
920.267	14636
920.378	14514
920.488	14438
920.598	14632
920.708	14781
920.818	14655
920.928	14667
921.038	14743
921.148	14682
921.258	14423
921.368	14438
921.477	14195
921.587	14267
921.697	14123
921.806	14275
921.916	14103
922.025	13913
922.134	13997
922.244	13837
922.353	13932
922.462	13708
922.571	13681
922.68	13601
922.789	13563
922.898	13453
923.007	13411
923.116	13430
923.224	13533
923.333	13476
923.442	13396
923.55	13308
923.659	13350
923.767	13350
923.876	13217
923.984	13388
924.092	13228
924.201	13312
924.309	13320
924.417	13331
924.525	13164
924.633	13240
924.741	13963
924.849	13019
924.956	13122
925.064	12954
925.172	12932
925.279	12901
925.387	13065
925.494	12943
925.602	13095
925.709	12928
925.816	12852
925.924	12875
926.031	12951
926.138	12935
926.245	12932
926.352	12768
926.459	12814
926.566	12977
926.673	12779
926.779	12631
926.886	12673
926.993	12528
927.099	12475
927.206	12445
927.312	12483
927.419	12528
927.525	12502
927.631	12513
927.737	12460
927.843	12277
927.95	12209
928.056	12292
928.162	12285
928.267	12372
928.373	13004
928.479	12300
928.585	12148
928.69	12311
928.796	12243
928.901	12209
929.007	12011
929.112	12136
929.218	12205
929.323	12133
929.428	12022
929.533	12152
929.638	11950
929.743	12015
929.848	11980
929.953	11973
930.058	11874
930.163	11767
930.267	11771
930.372	11798
930.477	11760
930.581	11821
930.685	11809
930.79	11642
930.894	11611
930.998	11600
931.103	11828
931.207	11292
931.311	11197
931.415	11250
931.519	11067
931.623	11018
