Data from test_V78500241_3055.txt Node
Date: Fri Mar 25 16:02:57 CST 2022
User: usil
Spectrometer: V785-0024
Trigger mode: 0
Integration Time (sec): 4.000000E-1
Scans to average: 1
Nonlinearity correction enabled: false
Boxcar width: 0
Storing dark spectrum: false
XAxis mode: Wavelengths
Number of Pixels in Spectrum: 1024
>>>>>Begin Spectral Data<<<<<
801.071	28135
801.214	27918
801.356	27854
801.499	27819
801.641	27728
801.783	27717
801.926	27732
802.068	27720
802.211	27469
802.353	27599
802.496	27614
802.638	27408
802.78	27321
802.923	27260
803.065	27241
803.208	27245
803.35	27458
803.492	27603
803.635	27690
803.777	27538
803.919	27595
804.061	27994
804.204	27625
804.346	27580
804.488	27507
804.63	27599
804.773	27583
804.915	27682
805.057	27713
805.199	27568
805.341	27705
805.483	27842
805.626	27694
805.768	27690
805.91	27705
806.052	27667
806.194	27603
806.336	27850
806.478	27884
806.62	27743
806.762	27911
806.904	28040
807.046	28253
807.188	28204
807.33	28238
807.472	28280
807.614	28249
807.756	28169
807.898	27994
808.04	28070
808.182	27979
808.324	27945
808.465	28219
808.607	28363
808.749	28596
808.891	28516
809.033	28592
809.174	28390
809.316	28303
809.458	28356
809.6	28466
809.741	28470
809.883	28527
810.025	28580
810.166	28774
810.308	28733
810.45	28622
810.591	28554
810.733	28508
810.875	28295
811.016	28341
811.158	28485
811.299	28580
811.441	28656
811.582	28660
811.724	28451
811.865	28398
812.007	28443
812.148	28554
812.29	28523
812.431	28683
812.573	28603
812.714	28824
812.855	28888
812.997	29083
813.138	29231
813.279	29098
813.421	28980
813.562	28767
813.703	28858
813.845	28736
813.986	28314
814.127	28265
814.268	28192
814.41	28120
814.551	28090
814.692	28226
814.833	28029
814.974	28109
815.115	28074
815.256	28048
815.397	27899
815.539	27975
815.68	27937
815.821	27755
815.962	28021
816.103	27816
816.244	27842
816.385	27793
816.526	27694
816.666	27526
816.807	27378
816.948	27492
817.089	27568
817.23	27367
817.371	27344
817.512	27370
817.653	27336
817.793	27211
817.934	27370
818.075	27454
818.216	27397
818.356	27317
818.497	27302
818.638	27306
818.778	27184
818.919	27176
819.06	27241
819.2	27169
819.341	27469
819.481	27431
819.622	27481
819.762	27739
819.903	27713
820.043	27610
820.184	27439
820.324	27603
820.465	27561
820.605	27488
820.746	27466
820.886	27412
821.026	27576
821.167	27572
821.307	27637
821.447	27386
821.588	27291
821.728	27135
821.868	27085
822.008	27036
822.149	26952
822.289	26948
822.429	26640
822.569	26473
822.709	26609
822.849	26427
822.99	26412
823.13	26400
823.27	26419
823.41	26370
823.55	26168
823.69	26221
823.83	26210
823.97	26294
824.11	26008
824.25	25925
824.389	26001
824.529	26180
824.669	26054
824.809	26134
824.949	26256
825.089	26088
825.228	26138
825.368	25799
825.508	25814
825.648	25833
825.787	25951
825.927	25936
826.067	25955
826.206	25906
826.346	25978
826.485	25849
826.625	25898
826.765	25974
826.904	25803
827.044	25784
827.183	25708
827.323	25575
827.462	25655
827.601	25643
827.741	25624
827.88	25533
828.02	25468
828.159	25506
828.298	25845
828.437	25594
828.577	25586
828.716	25742
828.855	25571
828.994	25453
829.134	25320
829.273	25304
829.412	25289
829.551	25312
829.69	25270
829.829	25407
829.968	25422
830.107	25373
830.246	25354
830.385	25278
830.524	25133
830.663	25164
830.802	25065
830.941	25015
831.08	25069
831.219	25057
831.357	25034
831.496	25148
831.635	24897
831.774	24768
831.913	24795
832.051	24639
832.19	24730
832.329	24623
832.467	24578
832.606	24597
832.744	24509
832.883	24616
833.022	24559
833.16	24593
833.299	24795
833.437	24673
833.576	24719
833.714	24566
833.852	24635
833.991	24806
834.129	24791
834.267	24814
834.406	24635
834.544	24776
834.682	24753
834.821	24623
834.959	24753
835.097	24585
835.235	24650
835.373	24612
835.511	24627
835.65	24513
835.788	24486
835.926	24467
836.064	24410
836.202	24247
836.34	24544
836.478	24635
836.615	24532
836.753	24475
836.891	24498
837.029	24426
837.167	24467
837.305	24422
837.443	24448
837.58	24224
837.718	24372
837.856	24197
837.993	24262
838.131	24243
838.269	24228
838.406	24258
838.544	24022
838.681	23912
838.819	23996
838.956	23802
839.094	23726
839.231	23912
839.369	23893
839.506	24178
839.643	24064
839.781	23817
839.918	23824
840.055	23802
840.193	23798
840.33	23707
840.467	23786
840.604	23699
840.742	23946
840.879	23429
841.016	23657
841.153	23570
841.29	23760
841.427	23710
841.564	23771
841.701	23611
841.838	23592
841.975	23543
842.112	23478
842.249	23501
842.385	23410
842.522	23691
842.659	23497
842.796	23528
842.933	23535
843.069	23402
843.206	23395
843.343	23543
843.479	23417
843.616	23368
843.752	23258
843.889	23417
844.025	23311
844.162	23284
844.298	23296
844.435	23258
844.571	23189
844.708	23227
844.844	23322
844.98	23414
845.117	23345
845.253	23181
845.389	23140
845.525	23121
845.661	23174
845.798	22873
845.934	22972
846.07	22889
846.206	22965
846.342	23140
846.478	22889
846.614	22679
846.75	22679
846.886	22573
847.022	22725
847.158	22774
847.294	22740
847.429	22752
847.565	22561
847.701	23014
847.837	22226
847.972	22390
848.108	22489
848.244	22413
848.379	22409
848.515	22375
848.65	22348
848.786	22257
848.921	22493
849.057	22417
849.192	22447
849.328	22276
849.463	22306
849.598	22223
849.734	22154
849.869	22063
850.004	22112
850.14	22059
850.275	22010
850.41	21945
850.545	22021
850.68	22021
850.815	22025
850.95	22040
851.085	22325
851.22	21975
851.355	22154
851.49	22013
851.625	21960
851.76	22006
851.895	21785
852.03	21922
852.165	22097
852.299	22158
852.434	22105
852.569	22029
852.703	22150
852.838	22131
852.973	22188
853.107	22192
853.242	21994
853.376	21827
853.511	21770
853.645	21808
853.78	21983
853.914	21922
854.048	21869
854.183	21861
854.317	21918
854.451	22086
854.585	21880
854.72	21915
854.854	21907
854.988	21846
855.122	21793
855.256	21747
855.39	21968
855.524	21975
855.658	21918
855.792	21857
855.926	21907
856.06	21865
856.194	21937
856.327	21789
856.461	21762
856.595	21778
856.729	21823
856.862	21926
856.996	21922
857.13	21785
857.263	21960
857.397	21934
857.53	21880
857.664	21899
857.797	21857
857.931	21789
858.064	21888
858.197	21907
858.331	21865
858.464	21899
858.597	21759
858.731	21915
858.864	21903
858.997	21720
859.13	21888
859.263	21827
859.396	22010
859.529	21838
859.662	21876
859.795	21869
859.928	21930
860.061	22112
860.194	22006
860.327	22025
860.46	21903
860.592	21930
860.725	22078
860.858	22013
860.99	21895
861.123	21827
861.256	21827
861.388	21797
861.521	22546
861.653	21812
861.786	21701
861.918	21736
862.05	21694
862.183	21873
862.315	21869
862.447	21831
862.58	21880
862.712	21637
862.844	21511
862.976	21743
863.108	21637
863.24	21991
863.372	21496
863.504	21637
863.636	21572
863.768	21618
863.9	21622
864.032	21618
864.164	21538
864.296	21789
864.428	21755
864.559	21625
864.691	21686
864.823	21572
864.954	21663
865.086	21614
865.217	21485
865.349	21393
865.48	21450
865.612	21439
865.743	21686
865.875	21526
866.006	21488
866.137	21477
866.269	21416
866.4	21500
866.531	21492
866.662	21317
866.793	21477
866.924	21492
867.055	21488
867.186	21431
867.317	21378
867.448	21287
867.579	21370
867.71	21157
867.841	21310
867.972	21485
868.103	21370
868.233	21469
868.364	21405
868.495	21629
868.625	21739
868.756	21808
868.886	21568
869.017	21686
869.147	21804
869.278	21739
869.408	21797
869.539	21477
869.669	21686
869.799	21618
869.929	21743
870.06	21591
870.19	21892
870.32	21956
870.45	21983
870.58	21991
870.71	22101
870.84	22105
870.97	22074
871.1	22143
871.23	22150
871.36	22299
871.489	22143
871.619	22226
871.749	22226
871.879	22196
872.008	22352
872.138	22284
872.267	22295
872.397	22181
872.526	22105
872.656	22070
872.785	22128
872.915	22322
873.044	22310
873.173	22185
873.303	22188
873.432	22299
873.561	22268
873.69	22386
873.819	22192
873.948	22363
874.077	22223
874.206	22192
874.335	22215
874.464	22440
874.593	22523
874.722	22451
874.851	22546
874.979	22379
875.108	22531
875.237	22519
875.365	22257
875.494	22405
875.623	22634
875.751	22443
875.88	22447
876.008	22554
876.136	22774
876.265	22824
876.393	22999
876.521	22915
876.65	23052
876.778	22847
876.906	22706
877.034	22862
877.162	22923
877.29	22752
877.418	22721
877.546	22904
877.674	22683
877.802	22748
877.93	22862
878.058	22858
878.185	22881
878.313	22774
878.441	22752
878.568	22664
878.696	22752
878.824	22889
878.951	22980
879.079	23048
879.206	23003
879.333	23014
879.461	22999
879.588	22957
879.715	23014
879.842	23037
879.97	22885
880.097	22698
880.224	22698
880.351	22698
880.478	22763
880.605	22759
880.732	22713
880.859	23037
880.986	22790
881.112	22664
881.239	22538
881.366	22375
881.493	22409
881.619	22185
881.746	22219
881.872	22246
881.999	22200
882.125	22200
882.252	22265
882.378	22162
882.505	22402
882.631	22078
882.757	21979
882.883	21937
883.01	21937
883.136	21945
883.262	21789
883.388	21759
883.514	21751
883.64	21956
883.766	21819
883.892	21720
884.018	21793
884.143	21854
884.269	21930
884.395	21679
884.52	21450
884.646	21492
884.772	21644
884.897	21526
885.023	21545
885.148	21660
885.274	21660
885.399	21713
885.524	21591
885.65	21538
885.775	21530
885.9	21591
886.025	21671
886.15	21652
886.275	21572
886.4	21439
886.525	21545
886.65	21576
886.775	21469
886.9	21679
887.025	21785
887.149	21496
887.274	21355
887.399	21428
887.523	21264
887.648	21329
887.773	21268
887.897	21363
888.021	21393
888.146	21340
888.27	21519
888.395	21344
888.519	21317
888.643	21336
888.767	21401
888.891	21218
889.015	21233
889.139	21302
889.263	21108
889.387	21272
889.511	21332
889.635	21332
889.759	21142
889.883	21062
890.006	21085
890.13	21180
890.254	21024
890.377	21047
890.501	21001
890.624	20880
890.748	20937
890.871	20769
890.995	20785
891.118	20667
891.241	20705
891.364	20720
891.488	20746
891.611	20697
891.734	20746
891.857	20739
891.98	20724
892.103	20777
892.226	20727
892.349	20705
892.471	20480
892.594	20667
892.717	20682
892.839	20571
892.962	20518
893.085	20682
893.207	20533
893.33	20492
893.452	20545
893.575	20762
893.697	20473
893.819	20727
893.941	20807
894.064	20716
894.186	20579
894.308	20590
894.43	20644
894.552	20735
894.674	20617
894.796	20533
894.918	20461
895.04	20514
895.161	20655
895.283	20648
895.405	20560
895.526	20613
895.648	20590
895.769	20613
895.891	20651
896.012	20632
896.134	20568
896.255	20522
896.376	20530
896.498	20549
896.619	20568
896.74	20511
896.861	20651
896.982	20769
897.103	20914
897.224	20876
897.345	20857
897.466	20746
897.587	20785
897.708	20880
897.828	20838
897.949	20765
898.07	20575
898.19	20606
898.311	20861
898.431	20777
898.552	20819
898.672	20830
898.792	20754
898.913	20556
899.033	20648
899.153	20533
899.273	20476
899.393	20556
899.513	20644
899.633	20415
899.753	20651
899.873	20442
899.993	20617
900.113	20419
900.232	20488
900.352	20240
900.472	20332
900.591	20176
900.711	20313
900.83	20263
900.95	20484
901.069	20457
901.189	20210
901.308	19974
901.427	19868
901.546	19841
901.665	19959
901.784	19868
901.904	19677
902.023	19693
902.141	19434
902.26	19365
902.379	19521
902.498	19335
902.617	19301
902.735	19441
902.854	19480
902.973	19324
903.091	19107
903.21	19053
903.328	19000
903.446	19038
903.565	18829
903.683	18833
903.801	18730
903.919	18852
904.038	18753
904.156	18604
904.274	18669
904.392	18631
904.51	18623
904.627	18620
904.745	18741
904.863	18700
904.981	18517
905.098	18243
905.216	18319
905.334	18330
905.451	18311
905.569	18228
905.686	18327
905.803	18273
905.921	18053
906.038	18110
906.155	18022
906.272	18019
906.389	18057
906.506	17882
906.623	17809
906.74	17802
906.857	17661
906.974	17748
907.091	17950
907.208	18022
907.324	17843
907.441	17718
907.557	17627
907.674	17627
907.79	17539
907.907	17547
908.023	17642
908.139	17596
908.256	17436
908.372	17452
908.488	17493
908.604	17318
908.72	17170
908.836	17318
908.952	17193
909.068	17250
909.184	17307
909.3	17227
909.415	17208
909.531	17208
909.647	16934
909.762	16987
909.878	16961
909.993	16965
910.108	16946
910.224	16801
910.339	16961
910.454	16698
910.57	16790
910.685	16725
910.8	16987
910.915	16942
911.03	16702
911.145	16561
911.259	16485
911.374	16466
911.489	16360
911.604	16481
911.718	16284
911.833	16253
911.947	16242
912.062	16143
912.176	16234
912.291	16348
912.405	16287
912.519	16424
912.633	16474
912.748	16341
912.862	16325
912.976	16105
913.09	16051
913.204	15956
913.318	16093
913.431	16150
913.545	16143
913.659	16158
913.772	16135
913.886	15972
914	15899
914.113	15930
914.226	15968
914.34	16010
914.453	15808
914.566	15968
914.68	15827
914.793	15732
914.906	15496
915.019	15488
915.132	15504
915.245	15412
915.358	15526
915.47	15538
915.583	15439
915.696	15435
915.809	15644
915.921	15553
916.034	15469
916.146	15443
916.259	15332
916.371	15439
916.483	15397
916.595	15325
916.708	15256
916.82	15374
916.932	15249
917.044	15310
917.156	15135
917.268	15089
917.38	15173
917.491	15142
917.603	15157
917.715	15135
917.826	15233
917.938	14971
918.049	14952
918.161	15112
918.272	15157
918.384	15169
918.495	15100
918.606	14815
918.717	14792
918.828	14925
918.939	14887
919.05	14796
919.161	14838
919.272	14667
919.383	14670
919.494	14849
919.604	15077
919.715	14781
919.826	14720
919.936	14788
920.047	14804
920.157	14788
920.267	15036
920.378	14857
920.488	14739
920.598	15020
920.708	15058
920.818	14948
920.928	14948
921.038	15165
921.148	15017
921.258	14804
921.368	14693
921.477	14568
921.587	14533
921.697	14442
921.806	14556
921.916	14320
922.025	14294
922.134	14263
922.244	14111
922.353	14214
922.462	14111
922.571	13940
922.68	13902
922.789	13894
922.898	13864
923.007	13757
923.116	13967
923.224	13776
923.333	13814
923.442	13772
923.55	13582
923.659	13693
923.767	13712
923.876	13563
923.984	13700
924.092	13586
924.201	13613
924.309	13616
924.417	13548
924.525	13499
924.633	13407
924.741	14339
924.849	13365
924.956	13460
925.064	13285
925.172	13247
925.279	13221
925.387	13259
925.494	13149
925.602	13312
925.709	13282
925.816	13156
925.924	13206
926.031	13308
926.138	13247
926.245	13251
926.352	13107
926.459	13187
926.566	13228
926.673	12996
926.779	13012
926.886	12981
926.993	12837
927.099	12829
927.206	12707
927.312	12700
927.419	12825
927.525	12810
927.631	12806
927.737	12741
927.843	12642
927.95	12521
928.056	12601
928.162	12635
928.267	12715
928.373	13141
928.479	12768
928.585	12483
928.69	12631
928.796	12604
928.901	12456
929.007	12357
929.112	12479
929.218	12513
929.323	12350
929.428	12281
929.533	12517
929.638	12178
929.743	12266
929.848	12353
929.953	12323
930.058	12190
930.163	12003
930.267	12007
930.372	12159
930.477	11973
930.581	12106
930.685	12072
930.79	11866
930.894	11840
930.998	11958
931.103	12049
931.207	11714
931.311	11680
931.415	11459
931.519	11250
931.623	11220
