Data from test_V78500241_1152.txt Node
Date: Fri Mar 25 15:49:46 CST 2022
User: usil
Spectrometer: V785-0024
Trigger mode: 0
Integration Time (sec): 4.000000E-1
Scans to average: 1
Nonlinearity correction enabled: false
Boxcar width: 0
Storing dark spectrum: false
XAxis mode: Wavelengths
Number of Pixels in Spectrum: 1024
>>>>>Begin Spectral Data<<<<<
801.071	28607
801.214	28557
801.356	28276
801.499	28177
801.641	28158
801.783	28158
801.926	28181
802.068	28021
802.211	28181
802.353	28074
802.496	27892
802.638	27934
802.78	27781
802.923	27816
803.065	27778
803.208	27819
803.35	27888
803.492	27914
803.635	28040
803.777	27918
803.919	28036
804.061	28428
804.204	28017
804.346	28090
804.488	27934
804.63	28093
804.773	27941
804.915	28067
805.057	28215
805.199	27930
805.341	28325
805.483	28246
805.626	28158
805.768	28150
805.91	28272
806.052	28135
806.194	28120
806.336	28489
806.478	28379
806.62	28280
806.762	28318
806.904	28443
807.046	28698
807.188	28675
807.33	28812
807.472	28637
807.614	28516
807.756	28565
807.898	28512
808.04	28428
808.182	28424
808.324	28573
808.465	28550
808.607	28672
808.749	28866
808.891	28968
809.033	28984
809.174	29227
809.316	28862
809.458	28919
809.6	28824
809.741	29044
809.883	29181
810.025	29235
810.166	29269
810.308	29166
810.45	29113
810.591	29067
810.733	28995
810.875	28919
811.016	28759
811.158	28725
811.299	28938
811.441	29159
811.582	29193
811.724	29006
811.865	28866
812.007	28900
812.148	28904
812.29	29025
812.431	29094
812.573	29341
812.714	29242
812.855	29448
812.997	29512
813.138	29668
813.279	29551
813.421	29471
813.562	29490
813.703	29265
813.845	29261
813.986	28881
814.127	28668
814.268	28710
814.41	28759
814.551	28531
814.692	28512
814.833	28611
814.974	28573
815.115	28702
815.256	28523
815.397	28413
815.539	28523
815.68	28481
815.821	28531
815.962	28584
816.103	28390
816.244	28253
816.385	28238
816.526	28253
816.666	28025
816.807	27972
816.948	27991
817.089	28032
817.23	27991
817.371	27968
817.512	27884
817.653	27922
817.793	27998
817.934	28017
818.075	27964
818.216	28051
818.356	27945
818.497	27857
818.638	27705
818.778	27671
818.919	27705
819.06	27899
819.2	27953
819.341	27808
819.481	27979
819.622	28139
819.762	28261
819.903	28333
820.043	28230
820.184	28253
820.324	28029
820.465	28147
820.605	28021
820.746	28032
820.886	27991
821.026	28238
821.167	27994
821.307	28200
821.447	27994
821.588	28002
821.728	27717
821.868	27690
822.008	27443
822.149	27515
822.289	27477
822.429	27173
822.569	27051
822.709	27146
822.849	27058
822.99	26883
823.13	27024
823.27	26967
823.41	26629
823.55	26686
823.69	26815
823.83	26826
823.97	26762
824.11	26659
824.25	26518
824.389	26568
824.529	26746
824.669	26621
824.809	26857
824.949	26731
825.089	26667
825.228	26724
825.368	26514
825.508	26358
825.648	26480
825.787	26423
825.927	26621
826.067	26533
826.206	26484
826.346	26431
826.485	26526
826.625	26503
826.765	26640
826.904	26549
827.044	26229
827.183	26267
827.323	26164
827.462	26362
827.601	26122
827.741	26218
827.88	26183
828.02	26039
828.159	26191
828.298	26218
828.437	26275
828.577	26096
828.716	26301
828.855	26111
828.994	26016
829.134	25875
829.273	26005
829.412	25940
829.551	25944
829.69	26027
829.829	25993
829.968	26008
830.107	26081
830.246	25993
830.385	25928
830.524	25723
830.663	25833
830.802	25761
830.941	25521
831.08	25537
831.219	25548
831.357	25502
831.496	25700
831.635	25506
831.774	25388
831.913	25449
832.051	25312
832.19	25434
832.329	25301
832.467	25183
832.606	25156
832.744	25114
832.883	25236
833.022	25160
833.16	25099
833.299	25236
833.437	25148
833.576	25381
833.714	25206
833.852	25228
833.991	25209
834.129	25190
834.267	25240
834.406	25179
834.544	25190
834.682	25175
834.821	25107
834.959	25419
835.097	25126
835.235	25320
835.373	25202
835.511	25244
835.65	25050
835.788	25133
835.926	24916
836.064	24909
836.202	24894
836.34	25088
836.478	25133
836.615	25057
836.753	25148
836.891	25118
837.029	25019
837.167	24958
837.305	24954
837.443	25034
837.58	24954
837.718	24985
837.856	24916
837.993	24833
838.131	24905
838.269	24734
838.406	24859
838.544	24726
838.681	24639
838.819	24623
838.956	24357
839.094	24467
839.231	24456
839.369	24589
839.506	24715
839.643	24585
839.781	24258
839.918	24254
840.055	24365
840.193	24220
840.33	24266
840.467	24258
840.604	24384
840.742	24513
840.879	24076
841.016	24304
841.153	24068
841.29	24422
841.427	24213
841.564	24403
841.701	24213
841.838	24216
841.975	24159
842.112	24254
842.249	24022
842.385	24121
842.522	24292
842.659	24045
842.796	24015
842.933	24038
843.069	23840
843.206	23977
843.343	24140
843.479	24034
843.616	24038
843.752	23855
843.889	23912
844.025	24022
844.162	23684
844.298	23885
844.435	23668
844.571	23707
844.708	23901
844.844	24011
844.98	23870
845.117	24018
845.253	23745
845.389	23737
845.525	23646
845.661	23615
845.798	23638
845.934	23558
846.07	23623
846.206	23520
846.342	23539
846.478	23528
846.614	23273
846.75	23318
846.886	23280
847.022	23315
847.158	23166
847.294	23162
847.429	23288
847.565	23197
847.701	23539
847.837	22881
847.972	22949
848.108	23128
848.244	23162
848.379	22934
848.515	22862
848.65	22866
848.786	22805
848.921	22854
849.057	22976
849.192	22957
849.328	22896
849.463	22828
849.598	22755
849.734	22691
849.869	22774
850.004	22516
850.14	22698
850.275	22660
850.41	22504
850.545	22603
850.68	22561
850.815	22656
850.95	22557
851.085	22755
851.22	22672
851.355	22603
851.49	22649
851.625	22542
851.76	22622
851.895	22596
852.03	22512
852.165	22618
852.299	22611
852.434	22729
852.569	22698
852.703	22618
852.838	22561
852.973	22668
853.107	22653
853.242	22478
853.376	22489
853.511	22295
853.645	22424
853.78	22459
853.914	22432
854.048	22306
854.183	22280
854.317	22485
854.451	22546
854.585	22523
854.72	22519
854.854	22580
854.988	22451
855.122	22333
855.256	22310
855.39	22516
855.524	22573
855.658	22447
855.792	22417
855.926	22310
856.06	22417
856.194	22500
856.327	22402
856.461	22306
856.595	22402
856.729	22424
856.862	22462
856.996	22508
857.13	22398
857.263	22535
857.397	22542
857.53	22363
857.664	22478
857.797	22462
857.931	22512
858.064	22573
858.197	22569
858.331	22417
858.464	22341
858.597	22371
858.731	22523
858.864	22280
858.997	22314
859.13	22325
859.263	22440
859.396	22424
859.529	22443
859.662	22417
859.795	22249
859.928	22375
860.061	22478
860.194	22710
860.327	22379
860.46	22398
860.592	22527
860.725	22519
860.858	22569
860.99	22474
861.123	22382
861.256	22424
861.388	22356
861.521	23113
861.653	22337
861.786	22322
861.918	22337
862.05	22421
862.183	22329
862.315	22329
862.447	22470
862.58	22367
862.712	22109
862.844	22207
862.976	22234
863.108	22166
863.24	22656
863.372	22150
863.504	22139
863.636	21949
863.768	22101
863.9	22036
864.032	22067
864.164	22162
864.296	22120
864.428	22230
864.559	22124
864.691	22181
864.823	22082
864.954	22002
865.086	22078
865.217	22032
865.349	22032
865.48	22010
865.612	21911
865.743	22097
865.875	21972
866.006	22048
866.137	21956
866.269	22044
866.4	22040
866.531	21854
866.662	21899
866.793	21857
866.924	21964
867.055	21888
867.186	21888
867.317	21854
867.448	21854
867.579	21835
867.71	21850
867.841	21934
867.972	21838
868.103	21865
868.233	21926
868.364	21930
868.495	21979
868.625	22166
868.756	22246
868.886	22078
869.017	22162
869.147	22325
869.278	22139
869.408	22048
869.539	22185
869.669	22150
869.799	22287
869.929	22348
870.06	22322
870.19	22519
870.32	22535
870.45	22390
870.58	22485
870.71	22672
870.84	22538
870.97	22489
871.1	22455
871.23	22771
871.36	22771
871.489	22573
871.619	22656
871.749	22809
871.879	22710
872.008	22877
872.138	22812
872.267	22694
872.397	22626
872.526	22672
872.656	22694
872.785	22550
872.915	22850
873.044	22881
873.173	22725
873.303	22675
873.432	22816
873.561	22828
873.69	22843
873.819	22904
873.948	22809
874.077	22797
874.206	22691
874.335	22725
874.464	22930
874.593	23010
874.722	23033
874.851	22927
874.979	23025
875.108	23086
875.237	22980
875.365	22767
875.494	22968
875.623	23025
875.751	23052
875.88	22995
876.008	23067
876.136	23250
876.265	23497
876.393	23520
876.521	23440
876.65	23395
876.778	23516
876.906	23341
877.034	23254
877.162	23330
877.29	23334
877.418	23299
877.546	23273
877.674	23296
877.802	23356
877.93	23398
878.058	23246
878.185	23273
878.313	23360
878.441	23379
878.568	23132
878.696	23277
878.824	23391
878.951	23402
879.079	23554
879.206	23573
879.333	23425
879.461	23296
879.588	23269
879.715	23505
879.842	23611
879.97	23379
880.097	23128
880.224	23216
880.351	23326
880.478	23083
880.605	23113
880.732	23014
880.859	23376
880.986	23200
881.112	23185
881.239	22984
881.366	22793
881.493	22828
881.619	22736
881.746	22725
881.872	22653
881.999	22596
882.125	22706
882.252	22793
882.378	22740
882.505	22755
882.631	22519
882.757	22382
882.883	22348
883.01	22440
883.136	22219
883.262	22272
883.388	22299
883.514	22451
883.64	22424
883.766	22363
883.892	22128
884.018	22169
884.143	22398
884.269	22481
884.395	22139
884.52	22025
884.646	22074
884.772	21934
884.897	21907
885.023	22067
885.148	22188
885.274	22192
885.399	22063
885.524	22135
885.65	22002
885.775	22017
885.9	21915
886.025	22219
886.15	21953
886.275	21937
886.4	21968
886.525	21972
886.65	21778
886.775	21869
886.9	22070
887.025	22211
887.149	21926
887.274	21774
887.399	21789
887.523	21838
887.648	21732
887.773	21637
887.897	21842
888.021	21781
888.146	21682
888.27	21968
888.395	21762
888.519	21884
888.643	21850
888.767	21804
888.891	21709
889.015	21564
889.139	21526
889.263	21595
889.387	21648
889.511	21770
889.635	21625
889.759	21561
889.883	21447
890.006	21633
890.13	21701
890.254	21481
890.377	21473
890.501	21374
890.624	21256
890.748	21332
890.871	21230
890.995	21089
891.118	21066
891.241	21039
891.364	21108
891.488	21237
891.611	21146
891.734	21100
891.857	21070
891.98	21100
892.103	21230
892.226	21176
892.349	21013
892.471	20937
892.594	20944
892.717	21077
892.839	21047
892.962	21020
893.085	21085
893.207	21093
893.33	20948
893.452	20910
893.575	21039
893.697	20986
893.819	21119
893.941	21264
894.064	21043
894.186	20929
894.308	20891
894.43	21096
894.552	21173
894.674	21039
894.796	20902
894.918	20979
895.04	20944
895.161	21089
895.283	21096
895.405	21005
895.526	20929
895.648	20941
895.769	20963
895.891	21096
896.012	21218
896.134	20914
896.255	21005
896.376	20994
896.498	20899
896.619	21051
896.74	21047
896.861	21123
896.982	21298
897.103	21469
897.224	21207
897.345	21256
897.466	21241
897.587	21169
897.708	21275
897.828	21192
897.949	21085
898.07	20971
898.19	21176
898.311	21336
898.431	21169
898.552	21169
898.672	21222
898.792	21214
898.913	21317
899.033	21157
899.153	20937
899.273	20902
899.393	20849
899.513	20872
899.633	20868
899.753	20819
899.873	20910
899.993	20906
900.113	20914
900.232	20834
900.352	20769
900.472	20720
900.591	20632
900.711	20689
900.83	20640
900.95	20735
901.069	20804
901.189	20678
901.308	20366
901.427	20355
901.546	20263
901.665	20408
901.784	20252
901.904	20062
902.023	20077
902.141	19890
902.26	19887
902.379	19811
902.498	19750
902.617	19734
902.735	19849
902.854	19655
902.973	19556
903.091	19377
903.21	19400
903.328	19354
903.446	19403
903.565	19209
903.683	19156
903.801	19110
903.919	19129
904.038	19118
904.156	19099
904.274	19198
904.392	18932
904.51	18951
904.627	19046
904.745	19046
904.863	18985
904.981	18848
905.098	18646
905.216	18669
905.334	18681
905.451	18661
905.569	18642
905.686	18677
905.803	18601
905.921	18433
906.038	18612
906.155	18429
906.272	18399
906.389	18369
906.506	18171
906.623	18171
906.74	18125
906.857	18095
906.974	18079
907.091	18277
907.208	18422
907.324	18281
907.441	18121
907.557	17893
907.674	17851
907.79	17794
907.907	17752
908.023	17870
908.139	17961
908.256	17866
908.372	17794
908.488	17779
908.604	17592
908.72	17619
908.836	17562
908.952	17684
909.068	17676
909.184	17649
909.3	17566
909.415	17592
909.531	17524
909.647	17436
909.762	17315
909.878	17334
909.993	17376
910.108	17269
910.224	17151
910.339	17307
910.454	17189
910.57	17143
910.685	16961
910.8	17223
910.915	17246
911.03	17090
911.145	16934
911.259	16889
911.374	16953
911.489	16736
911.604	16816
911.718	16630
911.833	16679
911.947	16660
912.062	16554
912.176	16656
912.291	16618
912.405	16763
912.519	16839
912.633	16809
912.748	16512
912.862	16618
912.976	16531
913.09	16325
913.204	16367
913.318	16303
913.431	16538
913.545	16588
913.659	16554
913.772	16284
913.886	16432
914	16249
914.113	16341
914.226	16379
914.34	16242
914.453	16013
914.566	16215
914.68	16055
914.793	16063
914.906	15899
915.019	15774
915.132	15751
915.245	15861
915.358	15861
915.47	15838
915.583	15728
915.696	15854
915.809	15804
915.921	15937
916.034	15698
916.146	15679
916.259	15686
916.371	15717
916.483	15770
916.595	15660
916.708	15679
916.82	15686
916.932	15534
917.044	15492
917.156	15545
917.268	15416
917.38	15469
917.491	15340
917.603	15488
917.715	15500
917.826	15500
917.938	15340
918.049	15275
918.161	15435
918.272	15561
918.384	15553
918.495	15351
918.606	15214
918.717	15199
918.828	15268
918.939	15226
919.05	15047
919.161	15077
919.272	14990
919.383	14994
919.494	15176
919.604	15447
919.715	15157
919.826	15085
919.936	15131
920.047	15203
920.157	15169
920.267	15291
920.378	15062
920.488	15097
920.598	15321
920.708	15492
920.818	15119
920.928	15222
921.038	15412
921.148	15336
921.258	15104
921.368	14929
921.477	14857
921.587	14804
921.697	14648
921.806	14861
921.916	14594
922.025	14514
922.134	14579
922.244	14355
922.353	14526
922.462	14370
922.571	14221
922.68	14206
922.789	14084
922.898	14191
923.007	14020
923.116	14180
923.224	14145
923.333	13982
923.442	13997
923.55	13932
923.659	14046
923.767	14012
923.876	13875
923.984	14016
924.092	13826
924.201	13913
924.309	13860
924.417	13868
924.525	13769
924.633	13830
924.741	14533
924.849	13601
924.956	13715
925.064	13434
925.172	13445
925.279	13559
925.387	13499
925.494	13506
925.602	13624
925.709	13571
925.816	13403
925.924	13312
926.031	13540
926.138	13358
926.245	13495
926.352	13335
926.459	13510
926.566	13441
926.673	13266
926.779	13217
926.886	13274
926.993	13160
927.099	13004
927.206	13000
927.312	12928
927.419	13027
927.525	13050
927.631	12981
927.737	13008
927.843	12886
927.95	12791
928.056	12817
928.162	12947
928.267	12943
928.373	13540
928.479	12928
928.585	12700
928.69	12757
928.796	12856
928.901	12745
929.007	12555
929.112	12757
929.218	12722
929.323	12528
929.428	12563
929.533	12646
929.638	12490
929.743	12528
929.848	12578
929.953	12551
930.058	12391
930.163	12159
930.267	12224
930.372	12361
930.477	12182
930.581	12350
930.685	12235
930.79	12079
930.894	12205
930.998	12106
931.103	12266
931.207	11855
931.311	11805
931.415	11661
931.519	11490
931.623	11474
