Data from test_V78500241_2673.txt Node
Date: Fri Mar 25 16:00:19 CST 2022
User: usil
Spectrometer: V785-0024
Trigger mode: 0
Integration Time (sec): 4.000000E-1
Scans to average: 1
Nonlinearity correction enabled: false
Boxcar width: 0
Storing dark spectrum: false
XAxis mode: Wavelengths
Number of Pixels in Spectrum: 1024
>>>>>Begin Spectral Data<<<<<
801.071	28767
801.214	28740
801.356	28649
801.499	28447
801.641	28432
801.783	28348
801.926	28527
802.068	28356
802.211	28367
802.353	28306
802.496	28181
802.638	28120
802.78	27949
802.923	27987
803.065	27968
803.208	27876
803.35	27994
803.492	28375
803.635	28265
803.777	28173
803.919	28310
804.061	28717
804.204	28272
804.346	28173
804.488	28158
804.63	28223
804.773	28188
804.915	28242
805.057	28489
805.199	28337
805.341	28481
805.483	28424
805.626	28478
805.768	28367
805.91	28497
806.052	28546
806.194	28348
806.336	28679
806.478	28470
806.62	28440
806.762	28653
806.904	28713
807.046	28949
807.188	28835
807.33	29022
807.472	28980
807.614	28767
807.756	28866
807.898	28725
808.04	28786
808.182	28653
808.324	28847
808.465	28748
808.607	29079
808.749	29258
808.891	29231
809.033	29463
809.174	29102
809.316	29147
809.458	29124
809.6	29067
809.741	29242
809.883	29140
810.025	29326
810.166	29429
810.308	29509
810.45	29227
810.591	29292
810.733	29159
810.875	29189
811.016	29204
811.158	29105
811.299	29440
811.441	29429
811.582	29296
811.724	29022
811.865	29159
812.007	29083
812.148	29170
812.29	29159
812.431	29216
812.573	29573
812.714	29478
812.855	29680
812.997	29554
813.138	29961
813.279	29870
813.421	29668
813.562	29767
813.703	29448
813.845	29467
813.986	29094
814.127	28965
814.268	28915
814.41	28888
814.551	29075
814.692	28915
814.833	28744
814.974	28847
815.115	28885
815.256	28672
815.397	28672
815.539	28736
815.68	28797
815.821	28451
815.962	28835
816.103	28691
816.244	28615
816.385	28516
816.526	28516
816.666	28299
816.807	28223
816.948	28204
817.089	28249
817.23	28257
817.371	28261
817.512	28337
817.653	28135
817.793	28226
817.934	28238
818.075	28196
818.216	28116
818.356	28109
818.497	27964
818.638	27903
818.778	27941
818.919	27972
819.06	27983
819.2	28139
819.341	28234
819.481	28177
819.622	28375
819.762	28645
819.903	28519
820.043	28470
820.184	28314
820.324	28352
820.465	28287
820.605	28341
820.746	28219
820.886	28280
821.026	28188
821.167	28135
821.307	28333
821.447	28299
821.588	28162
821.728	27945
821.868	27785
822.008	27774
822.149	27606
822.289	27542
822.429	27454
822.569	27245
822.709	27443
822.849	27218
822.99	27173
823.13	27264
823.27	27176
823.41	26986
823.55	26918
823.69	27077
823.83	26948
823.97	26861
824.11	26765
824.25	26823
824.389	26940
824.529	26921
824.669	26910
824.809	26918
824.949	26933
825.089	26804
825.228	26883
825.368	26640
825.508	26686
825.648	26682
825.787	26769
825.927	26880
826.067	26720
826.206	26571
826.346	26705
826.485	26777
826.625	26583
826.765	26853
826.904	26762
827.044	26507
827.183	26362
827.323	26476
827.462	26514
827.601	26499
827.741	26488
827.88	26396
828.02	26313
828.159	26473
828.298	26419
828.437	26362
828.577	26400
828.716	26457
828.855	26309
828.994	26172
829.134	26145
829.273	26282
829.412	26103
829.551	26008
829.69	26153
829.829	26180
829.968	26233
830.107	26309
830.246	26046
830.385	25974
830.524	26031
830.663	25898
830.802	25799
830.941	25734
831.08	25628
831.219	25788
831.357	25677
831.496	26020
831.635	25723
831.774	25696
831.913	25677
832.051	25605
832.19	25514
832.329	25578
832.467	25430
832.606	25339
832.744	25339
832.883	25301
833.022	25373
833.16	25297
833.299	25472
833.437	25567
833.576	25377
833.714	25335
833.852	25426
833.991	25571
834.129	25605
834.267	25613
834.406	25407
834.544	25502
834.682	25419
834.821	25533
834.959	25548
835.097	25419
835.235	25483
835.373	25472
835.511	25510
835.65	25289
835.788	25293
835.926	25156
836.064	25057
836.202	25255
836.34	25194
836.478	25331
836.615	25346
836.753	25255
836.891	25301
837.029	25282
837.167	25293
837.305	25152
837.443	25232
837.58	25091
837.718	25274
837.856	25240
837.993	24989
838.131	25050
838.269	25012
838.406	24981
838.544	24962
838.681	24646
838.819	24681
838.956	24555
839.094	24688
839.231	24616
839.369	24665
839.506	24947
839.643	24787
839.781	24494
839.918	24517
840.055	24479
840.193	24536
840.33	24540
840.467	24460
840.604	24593
840.742	24749
840.879	24330
841.016	24262
841.153	24414
841.29	24574
841.427	24441
841.564	24464
841.701	24467
841.838	24422
841.975	24327
842.112	24528
842.249	24216
842.385	24220
842.522	24483
842.659	24327
842.796	24213
842.933	24232
843.069	24060
843.206	24106
843.343	24186
843.479	24285
843.616	24171
843.752	23927
843.889	24015
844.025	24186
844.162	23954
844.298	24110
844.435	24079
844.571	23984
844.708	24057
844.844	24273
844.98	24197
845.117	24106
845.253	23923
845.389	23878
845.525	23908
845.661	23859
845.798	23802
845.934	23786
846.07	23775
846.206	23657
846.342	23779
846.478	23760
846.614	23551
846.75	23368
846.886	23406
847.022	23429
847.158	23436
847.294	23448
847.429	23497
847.565	23444
847.701	23748
847.837	23330
847.972	23166
848.108	23254
848.244	23216
848.379	22987
848.515	23079
848.65	22889
848.786	23041
848.921	23075
849.057	23075
849.192	23037
849.328	22968
849.463	23033
849.598	22976
849.734	22938
849.869	22771
850.004	22771
850.14	22862
850.275	22930
850.41	22767
850.545	22881
850.68	22752
850.815	22854
850.95	22850
851.085	22930
851.22	22869
851.355	22797
851.49	22824
851.625	22759
851.76	22790
851.895	22729
852.03	22588
852.165	22847
852.299	22942
852.434	22877
852.569	22949
852.703	22896
852.838	22892
852.973	22862
853.107	23010
853.242	22755
853.376	22569
853.511	22474
853.645	22634
853.78	22755
853.914	22603
854.048	22592
854.183	22531
854.317	22725
854.451	22782
854.585	22607
854.72	22653
854.854	22767
854.988	22554
855.122	22683
855.256	22493
855.39	22599
855.524	22675
855.658	22713
855.792	22736
855.926	22713
856.06	22740
856.194	22580
856.327	22573
856.461	22603
856.595	22500
856.729	22569
856.862	22725
856.996	22523
857.13	22626
857.263	22763
857.397	22755
857.53	22588
857.664	22725
857.797	22721
857.931	22698
858.064	22733
858.197	22615
858.331	22649
858.464	22584
858.597	22535
858.731	22569
858.864	22554
858.997	22634
859.13	22630
859.263	22706
859.396	22694
859.529	22546
859.662	22622
859.795	22649
859.928	22554
860.061	22675
860.194	22752
860.327	22713
860.46	22630
860.592	22710
860.725	22820
860.858	22702
860.99	22740
861.123	22584
861.256	22653
861.388	22717
861.521	23337
861.653	22622
861.786	22455
861.918	22356
862.05	22489
862.183	22565
862.315	22584
862.447	22615
862.58	22497
862.712	22424
862.844	22223
862.976	22481
863.108	22474
863.24	22675
863.372	22318
863.504	22276
863.636	22432
863.768	22268
863.9	22379
864.032	22306
864.164	22329
864.296	22402
864.428	22382
864.559	22481
864.691	22428
864.823	22238
864.954	22348
865.086	22284
865.217	22352
865.349	21949
865.48	22196
865.612	22215
865.743	22200
865.875	22188
866.006	22067
866.137	22306
866.269	22150
866.4	22169
866.531	22093
866.662	22166
866.793	22219
866.924	22147
867.055	22013
867.186	22135
867.317	22112
867.448	22109
867.579	22128
867.71	22090
867.841	22029
867.972	22211
868.103	22074
868.233	22090
868.364	22158
868.495	22223
868.625	22360
868.756	22455
868.886	22219
869.017	22432
869.147	22493
869.278	22481
869.408	22481
869.539	22287
869.669	22409
869.799	22440
869.929	22611
870.06	22398
870.19	22702
870.32	22664
870.45	22622
870.58	22698
870.71	22911
870.84	22900
870.97	22759
871.1	22790
871.23	22873
871.36	23060
871.489	22778
871.619	23037
871.749	23044
871.879	23052
872.008	22968
872.138	22972
872.267	22930
872.397	22858
872.526	22733
872.656	22885
872.785	22668
872.915	23022
873.044	23140
873.173	22965
873.303	23033
873.432	23124
873.561	23067
873.69	23128
873.819	23098
873.948	23159
874.077	23041
874.206	22999
874.335	23064
874.464	22972
874.593	23334
874.722	23220
874.851	23296
874.979	23235
875.108	23292
875.237	23227
875.365	23098
875.494	23208
875.623	23227
875.751	23250
875.88	23349
876.008	23402
876.136	23429
876.265	23516
876.393	23687
876.521	23722
876.65	23729
876.778	23710
876.906	23630
877.034	23642
877.162	23512
877.29	23547
877.418	23516
877.546	23551
877.674	23691
877.802	23570
877.93	23562
878.058	23547
878.185	23554
878.313	23528
878.441	23589
878.568	23459
878.696	23653
878.824	23589
878.951	23684
879.079	23695
879.206	23863
879.333	23634
879.461	23691
879.588	23741
879.715	23748
879.842	23821
879.97	23642
880.097	23402
880.224	23433
880.351	23414
880.478	23391
880.605	23299
880.732	23455
880.859	23646
880.986	23345
881.112	23490
881.239	23311
881.366	23102
881.493	22976
881.619	22991
881.746	23006
881.872	22938
881.999	22824
882.125	22995
882.252	23010
882.378	22919
882.505	23014
882.631	22793
882.757	22656
882.883	22733
883.01	22656
883.136	22584
883.262	22459
883.388	22580
883.514	22679
883.64	22603
883.766	22462
883.892	22341
884.018	22451
884.143	22569
884.269	22637
884.395	22291
884.52	22162
884.646	22367
884.772	22265
884.897	22097
885.023	22215
885.148	22341
885.274	22421
885.399	22223
885.524	22261
885.65	22344
885.775	22306
885.9	22310
886.025	22390
886.15	22390
886.275	22207
886.4	22223
886.525	22238
886.65	22063
886.775	22177
886.9	22287
887.025	22409
887.149	22253
887.274	22154
887.399	22044
887.523	22013
887.648	21941
887.773	21899
887.897	22097
888.021	21998
888.146	21915
888.27	22128
888.395	22006
888.519	21983
888.643	22177
888.767	22055
888.891	22025
889.015	21827
889.139	21842
889.263	21789
889.387	21888
889.511	22017
889.635	21953
889.759	21713
889.883	21816
890.006	21884
890.13	21949
890.254	21675
890.377	21652
890.501	21572
890.624	21618
890.748	21538
890.871	21515
890.995	21439
891.118	21211
891.241	21378
891.364	21237
891.488	21523
891.611	21386
891.734	21188
891.857	21363
891.98	21428
892.103	21412
892.226	21439
892.349	21268
892.471	21108
892.594	21180
892.717	21241
892.839	21188
892.962	21123
893.085	21241
893.207	21207
893.33	21184
893.452	21116
893.575	21310
893.697	21173
893.819	21382
893.941	21473
894.064	21340
894.186	21146
894.308	21104
894.43	21306
894.552	21386
894.674	21245
894.796	21081
894.918	21214
895.04	21146
895.161	21275
895.283	21272
895.405	21096
895.526	21180
895.648	21279
895.769	21222
895.891	21291
896.012	21298
896.134	21252
896.255	21150
896.376	21165
896.498	21180
896.619	21283
896.74	21256
896.861	21260
896.982	21431
897.103	21622
897.224	21450
897.345	21435
897.466	21287
897.587	21405
897.708	21606
897.828	21389
897.949	21386
898.07	21272
898.19	21317
898.311	21447
898.431	21313
898.552	21435
898.672	21363
898.792	21523
898.913	21363
899.033	21241
899.153	21169
899.273	21127
899.393	21218
899.513	21272
899.633	21119
899.753	21116
899.873	20937
899.993	21169
900.113	21089
900.232	21066
900.352	20925
900.472	20933
900.591	20906
900.711	20906
900.83	20792
900.95	21043
901.069	21028
901.189	20701
901.308	20514
901.427	20503
901.546	20583
901.665	20332
901.784	20461
901.904	20248
902.023	20214
902.141	20001
902.26	20020
902.379	20058
902.498	20020
902.617	19955
902.735	20043
902.854	19944
902.973	19849
903.091	19693
903.21	19586
903.328	19647
903.446	19590
903.565	19480
903.683	19396
903.801	19411
903.919	19369
904.038	19304
904.156	19202
904.274	19339
904.392	19289
904.51	19156
904.627	19137
904.745	19251
904.863	19217
904.981	18970
905.098	18871
905.216	18768
905.334	18848
905.451	18897
905.569	18852
905.686	18821
905.803	18882
905.921	18753
906.038	18688
906.155	18574
906.272	18532
906.389	18525
906.506	18304
906.623	18353
906.74	18410
906.857	18258
906.974	18216
907.091	18414
907.208	18448
907.324	18456
907.441	18365
907.557	18034
907.674	18011
907.79	18060
907.907	18011
908.023	18076
908.139	18098
908.256	18038
908.372	17999
908.488	17889
908.604	17874
908.72	17737
908.836	17737
908.952	17771
909.068	17790
909.184	17882
909.3	17756
909.415	17741
909.531	17813
909.647	17425
909.762	17562
909.878	17398
909.993	17520
910.108	17482
910.224	17391
910.339	17387
910.454	17318
910.57	17284
910.685	17280
910.8	17478
910.915	17463
911.03	17261
911.145	17151
911.259	17147
911.374	17124
911.489	16991
911.604	16892
911.718	16885
911.833	16797
911.947	16675
912.062	16679
912.176	16843
912.291	16809
912.405	16816
912.519	17006
912.633	17003
912.748	16896
912.862	16824
912.976	16641
913.09	16546
913.204	16603
913.318	16634
913.431	16679
913.545	16698
913.659	16748
913.772	16508
913.886	16500
914	16485
914.113	16569
914.226	16527
914.34	16455
914.453	16314
914.566	16382
914.68	16322
914.793	16234
914.906	16036
915.019	15922
915.132	15937
915.245	15895
915.358	15972
915.47	15998
915.583	16059
915.696	16051
915.809	16025
915.921	16173
916.034	15915
916.146	15895
916.259	15884
916.371	15899
916.483	15994
916.595	15762
916.708	15785
916.82	15728
916.932	15713
917.044	15755
917.156	15717
917.268	15663
917.38	15690
917.491	15584
917.603	15629
917.715	15675
917.826	15637
917.938	15542
918.049	15401
918.161	15599
918.272	15614
918.384	15591
918.495	15572
918.606	15412
918.717	15294
918.828	15431
918.939	15428
919.05	15214
919.161	15245
919.272	15127
919.383	15233
919.494	15367
919.604	15492
919.715	15370
919.826	15306
919.936	15245
920.047	15291
920.157	15272
920.267	15450
920.378	15249
920.488	15260
920.598	15496
920.708	15545
920.818	15401
920.928	15428
921.038	15481
921.148	15511
921.258	15245
921.368	15142
921.477	15055
921.587	15017
921.697	14895
921.806	15028
921.916	14925
922.025	14705
922.134	14727
922.244	14530
922.353	14606
922.462	14385
922.571	14381
922.68	14298
922.789	14206
922.898	14377
923.007	14229
923.116	14320
923.224	14248
923.333	14225
923.442	14180
923.55	14065
923.659	14077
923.767	14157
923.876	14008
923.984	14153
924.092	14005
924.201	13993
924.309	13993
924.417	13898
924.525	13947
924.633	13967
924.741	14823
924.849	13742
924.956	13921
925.064	13704
925.172	13578
925.279	13521
925.387	13624
925.494	13677
925.602	13769
925.709	13788
925.816	13537
925.924	13552
926.031	13696
926.138	13601
926.245	13563
926.352	13464
926.459	13601
926.566	13651
926.673	13430
926.779	13388
926.886	13362
926.993	13270
927.099	13251
927.206	13183
927.312	13160
927.419	13255
927.525	13118
927.631	13118
927.737	13088
927.843	13065
927.95	12916
928.056	13042
928.162	13061
928.267	13065
928.373	13605
928.479	13031
928.585	12779
928.69	12985
928.796	13061
928.901	12734
929.007	12814
929.112	12802
929.218	12802
929.323	12787
929.428	12696
929.533	12825
929.638	12642
929.743	12623
929.848	12681
929.953	12635
930.058	12464
930.163	12369
930.267	12399
930.372	12483
930.477	12361
930.581	12464
930.685	12429
930.79	12330
930.894	12292
930.998	12296
931.103	12308
931.207	12038
931.311	11885
931.415	11882
931.519	11642
931.623	11566
