Data from test_V78500241_501.txt Node
Date: Fri Mar 25 15:45:16 CST 2022
User: usil
Spectrometer: V785-0024
Trigger mode: 0
Integration Time (sec): 4.000000E-1
Scans to average: 1
Nonlinearity correction enabled: false
Boxcar width: 0
Storing dark spectrum: false
XAxis mode: Wavelengths
Number of Pixels in Spectrum: 1024
>>>>>Begin Spectral Data<<<<<
801.071	26971
801.214	26853
801.356	26625
801.499	26511
801.641	26438
801.783	26469
801.926	26473
802.068	26400
802.211	26393
802.353	26301
802.496	26024
802.638	26153
802.78	26027
802.923	26012
803.065	25959
803.208	25966
803.35	26046
803.492	25944
803.635	26267
803.777	25963
803.919	26134
804.061	26457
804.204	26172
804.346	26081
804.488	26126
804.63	26122
804.773	25982
804.915	26126
805.057	26298
805.199	26077
805.341	26305
805.483	26221
805.626	26210
805.768	26199
805.91	26172
806.052	26305
806.194	26153
806.336	26446
806.478	26290
806.62	26309
806.762	26351
806.904	26579
807.046	26842
807.188	26526
807.33	26720
807.472	26705
807.614	26503
807.756	26480
807.898	26503
808.04	26400
808.182	26453
808.324	26499
808.465	26492
808.607	26625
808.749	26804
808.891	26868
809.033	27116
809.174	27005
809.316	26963
809.458	26849
809.6	26853
809.741	26910
809.883	26960
810.025	27119
810.166	27055
810.308	27085
810.45	27001
810.591	26944
810.733	26902
810.875	26781
811.016	26667
811.158	26716
811.299	26944
811.441	26982
811.582	26963
811.724	26845
811.865	26807
812.007	26861
812.148	26853
812.29	26887
812.431	27028
812.573	27089
812.714	27283
812.855	27374
812.997	27447
813.138	27534
813.279	27599
813.421	27370
813.562	27332
813.703	27169
813.845	27138
813.986	26743
814.127	26587
814.268	26511
814.41	26457
814.551	26400
814.692	26530
814.833	26370
814.974	26446
815.115	26495
815.256	26290
815.397	26415
815.539	26457
815.68	26248
815.821	26107
815.962	26206
816.103	26092
816.244	26031
816.385	25997
816.526	26126
816.666	25902
816.807	25734
816.948	25788
817.089	25830
817.23	25765
817.371	25647
817.512	25643
817.653	25788
817.793	25647
817.934	25712
818.075	25677
818.216	25788
818.356	25670
818.497	25552
818.638	25297
818.778	25343
818.919	25502
819.06	25491
819.2	25499
819.341	25575
819.481	25772
819.622	25822
819.762	26001
819.903	25841
820.043	25856
820.184	25708
820.324	25902
820.465	25807
820.605	25769
820.746	25940
820.886	25628
821.026	25776
821.167	25712
821.307	25807
821.447	25719
821.588	25639
821.728	25514
821.868	25339
822.008	25198
822.149	25171
822.289	25129
822.429	24958
822.569	24814
822.709	24844
822.849	24722
822.99	24639
823.13	24677
823.27	24791
823.41	24525
823.55	24380
823.69	24452
823.83	24410
823.97	24426
824.11	24266
824.25	24235
824.389	24319
824.529	24388
824.669	24323
824.809	24437
824.949	24464
825.089	24456
825.228	24384
825.368	24091
825.508	24190
825.648	24235
825.787	24155
825.927	24308
826.067	24159
826.206	24140
826.346	24235
826.485	24171
826.625	24133
826.765	24304
826.904	24186
827.044	23923
827.183	23950
827.323	23756
827.462	23901
827.601	23821
827.741	23904
827.88	23882
828.02	23684
828.159	23904
828.298	23885
828.437	23889
828.577	23779
828.716	23965
828.855	23783
828.994	23539
829.134	23703
829.273	23615
829.412	23577
829.551	23474
829.69	23707
829.829	23581
829.968	23653
830.107	23665
830.246	23516
830.385	23493
830.524	23444
830.663	23463
830.802	23239
830.941	23178
831.08	23136
831.219	23162
831.357	23334
831.496	23345
831.635	22961
831.774	23208
831.913	23071
832.051	22946
832.19	22972
832.329	22968
832.467	22889
832.606	22801
832.744	22763
832.883	22672
833.022	22831
833.16	22828
833.299	22782
833.437	22801
833.576	22965
833.714	22942
833.852	22869
833.991	22961
834.129	22991
834.267	23014
834.406	22805
834.544	22900
834.682	22896
834.821	22755
834.959	23079
835.097	22847
835.235	22919
835.373	22946
835.511	22831
835.65	22774
835.788	22740
835.926	22626
836.064	22500
836.202	22538
836.34	22812
836.478	22923
836.615	22683
836.753	22679
836.891	22752
837.029	22793
837.167	22653
837.305	22710
837.443	22561
837.58	22630
837.718	22771
837.856	22607
837.993	22519
838.131	22611
838.269	22516
838.406	22481
838.544	22329
838.681	22143
838.819	22215
838.956	22101
839.094	22074
839.231	22150
839.369	22128
839.506	22527
839.643	22306
839.781	22116
839.918	22051
840.055	22010
840.193	22006
840.33	22013
840.467	21983
840.604	22055
840.742	22284
840.879	21842
841.016	21911
841.153	21884
841.29	22101
841.427	21774
841.564	22025
841.701	21842
841.838	21922
841.975	21899
842.112	21960
842.249	21762
842.385	21705
842.522	21945
842.659	21743
842.796	21679
842.933	21667
843.069	21751
843.206	21622
843.343	21755
843.479	21736
843.616	21679
843.752	21443
843.889	21447
844.025	21690
844.162	21568
844.298	21625
844.435	21473
844.571	21359
844.708	21580
844.844	21682
844.98	21705
845.117	21561
845.253	21477
845.389	21450
845.525	21424
845.661	21405
845.798	21321
845.934	21401
846.07	21363
846.206	21188
846.342	21370
846.478	21173
846.614	21096
846.75	20868
846.886	20971
847.022	21081
847.158	21028
847.294	20895
847.429	20986
847.565	20952
847.701	21317
847.837	20788
847.972	20659
848.108	20758
848.244	20769
848.379	20594
848.515	20598
848.65	20488
848.786	20629
848.921	20640
849.057	20655
849.192	20762
849.328	20564
849.463	20568
849.598	20587
849.734	20492
849.869	20427
850.004	20339
850.14	20370
850.275	20328
850.41	20225
850.545	20282
850.68	20142
850.815	20358
850.95	20244
851.085	20522
851.22	20461
851.355	20339
851.49	20206
851.625	20298
851.76	20313
851.895	20263
852.03	20263
852.165	20263
852.299	20480
852.434	20423
852.569	20454
852.703	20343
852.838	20396
852.973	20461
853.107	20434
853.242	20294
853.376	20218
853.511	20054
853.645	20191
853.78	20187
853.914	20210
854.048	19970
854.183	20263
854.317	20111
854.451	20278
854.585	20229
854.72	20168
854.854	20180
854.988	20039
855.122	20168
855.256	20043
855.39	20115
855.524	20214
855.658	20111
855.792	20153
855.926	20225
856.06	20107
856.194	20210
856.327	20199
856.461	19947
856.595	20134
856.729	20092
856.862	20347
856.996	20229
857.13	20195
857.263	20332
857.397	20221
857.53	20206
857.664	20191
857.797	20214
857.931	20278
858.064	20187
858.197	20210
858.331	20202
858.464	20062
858.597	20024
858.731	20206
858.864	20119
858.997	20153
859.13	20142
859.263	20149
859.396	20149
859.529	20168
859.662	20046
859.795	20024
859.928	20164
860.061	20393
860.194	20377
860.327	20084
860.46	20172
860.592	20336
860.725	20328
860.858	20259
860.99	20214
861.123	20206
861.256	20043
861.388	20263
861.521	20773
861.653	19974
861.786	19944
861.918	20008
862.05	20016
862.183	20122
862.315	20084
862.447	20096
862.58	20138
862.712	19898
862.844	19864
862.976	19944
863.108	19849
863.24	20419
863.372	19879
863.504	19967
863.636	19845
863.768	19860
863.9	19898
864.032	19772
864.164	19906
864.296	19940
864.428	19967
864.559	20001
864.691	19951
864.823	19925
864.954	19826
865.086	19879
865.217	19818
865.349	19693
865.48	19795
865.612	19799
865.743	19944
865.875	19818
866.006	19784
866.137	19822
866.269	19780
866.4	19791
866.531	19647
866.662	19723
866.793	19693
866.924	19674
867.055	19750
867.186	19750
867.317	19693
867.448	19647
867.579	19719
867.71	19613
867.841	19715
867.972	19666
868.103	19738
868.233	19719
868.364	19738
868.495	19780
868.625	19978
868.756	20054
868.886	19833
869.017	19993
869.147	20180
869.278	20149
869.408	19890
869.539	19890
869.669	20134
869.799	19989
869.929	20275
870.06	20115
870.19	20301
870.32	20259
870.45	20377
870.58	20446
870.71	20530
870.84	20499
870.97	20434
871.1	20385
871.23	20541
871.36	20518
871.489	20511
871.619	20522
871.749	20617
871.879	20640
872.008	20754
872.138	20495
872.267	20667
872.397	20469
872.526	20495
872.656	20408
872.785	20446
872.915	20602
873.044	20659
873.173	20522
873.303	20609
873.432	20712
873.561	20708
873.69	20621
873.819	20549
873.948	20727
874.077	20632
874.206	20511
874.335	20674
874.464	20769
874.593	20887
874.722	20758
874.851	20944
874.979	20872
875.108	20758
875.237	20807
875.365	20785
875.494	20864
875.623	20845
875.751	20739
875.88	20906
876.008	20982
876.136	20933
876.265	21272
876.393	21439
876.521	21283
876.65	21378
876.778	21214
876.906	21252
877.034	21161
877.162	21188
877.29	21127
877.418	21096
877.546	21294
877.674	21150
877.802	21207
877.93	21287
878.058	21233
878.185	21222
878.313	21131
878.441	21161
878.568	20990
878.696	21062
878.824	21256
878.951	21370
879.079	21408
879.206	21473
879.333	21519
879.461	21256
879.588	21302
879.715	21268
879.842	21660
879.97	21291
880.097	21028
880.224	21001
880.351	20944
880.478	21131
880.605	21077
880.732	20979
880.859	21329
880.986	21154
881.112	21188
881.239	20994
881.366	20823
881.493	20762
881.619	20530
881.746	20640
881.872	20511
881.999	20587
882.125	20564
882.252	20693
882.378	20621
882.505	20670
882.631	20400
882.757	20336
882.883	20518
883.01	20332
883.136	20389
883.262	20195
883.388	20115
883.514	20389
883.64	20404
883.766	20294
883.892	20180
884.018	20180
884.143	20256
884.269	20374
884.395	19997
884.52	19909
884.646	20084
884.772	19826
884.897	19830
885.023	20138
885.148	20122
885.274	20183
885.399	20134
885.524	20065
885.65	19947
885.775	20088
885.9	19932
886.025	20043
886.15	20039
886.275	19967
886.4	19860
886.525	19940
886.65	19811
886.775	19917
886.9	20168
887.025	20233
887.149	19993
887.274	19769
887.399	19731
887.523	19803
887.648	19712
887.773	19605
887.897	19833
888.021	19864
888.146	19746
888.27	19890
888.395	19928
888.519	19791
888.643	19856
888.767	19826
888.891	19666
889.015	19594
889.139	19647
889.263	19544
889.387	19693
889.511	19841
889.635	19799
889.759	19533
889.883	19556
890.006	19582
890.13	19738
890.254	19613
890.377	19537
890.501	19354
890.624	19403
890.748	19362
890.871	19244
890.995	19263
891.118	19137
891.241	19183
891.364	19301
891.488	19301
891.611	19118
891.734	19194
891.857	19255
891.98	19346
892.103	19069
892.226	19198
892.349	19160
892.471	18947
892.594	19107
892.717	19133
892.839	19129
892.962	19126
893.085	19088
893.207	19137
893.33	18947
893.452	19099
893.575	19110
893.697	19053
893.819	19316
893.941	19297
894.064	19244
894.186	19027
894.308	19042
894.43	19156
894.552	19168
894.674	19259
894.796	19000
894.918	19057
895.04	19057
895.161	19118
895.283	19274
895.405	19088
895.526	19023
895.648	19137
895.769	19236
895.891	19217
896.012	19232
896.134	19137
896.255	19194
896.376	19091
896.498	19141
896.619	19289
896.74	19129
896.861	19247
896.982	19514
897.103	19647
897.224	19320
897.345	19381
897.466	19289
897.587	19396
897.708	19590
897.828	19415
897.949	19301
898.07	19240
898.19	19324
898.311	19506
898.431	19320
898.552	19426
898.672	19457
898.792	19415
898.913	19460
899.033	19168
899.153	19152
899.273	19042
899.393	19027
899.513	19198
899.633	19168
899.753	19190
899.873	19266
899.993	19084
900.113	18943
900.232	19202
900.352	19103
900.472	18973
900.591	18939
900.711	18958
900.83	18947
900.95	19050
901.069	19034
901.189	18867
901.308	18566
901.427	18506
901.546	18452
901.665	18627
901.784	18604
901.904	18464
902.023	18315
902.141	18129
902.26	18114
902.379	18232
902.498	18060
902.617	17965
902.735	18030
902.854	18038
902.973	18007
903.091	17790
903.21	17722
903.328	17802
903.446	17615
903.565	17589
903.683	17535
903.801	17459
903.919	17528
904.038	17478
904.156	17353
904.274	17440
904.392	17315
904.51	17315
904.627	17288
904.745	17433
904.863	17395
904.981	17178
905.098	16984
905.216	17067
905.334	17064
905.451	17033
905.569	16911
905.686	17143
905.803	16965
905.921	16790
906.038	16873
906.155	16740
906.272	16653
906.389	16805
906.506	16603
906.623	16607
906.74	16466
906.857	16379
906.974	16481
907.091	16588
907.208	16778
907.324	16565
907.441	16470
907.557	16344
907.674	16310
907.79	16329
907.907	16257
908.023	16219
908.139	16303
908.256	16242
908.372	16284
908.488	16044
908.604	16067
908.72	15861
908.836	15922
908.952	15972
909.068	16097
909.184	16166
909.3	16048
909.415	15960
909.531	16002
909.647	15800
909.762	15622
909.878	15717
909.993	15663
910.108	15641
910.224	15614
910.339	15686
910.454	15618
910.57	15526
910.685	15496
910.8	15690
910.915	15633
911.03	15633
911.145	15332
911.259	15344
911.374	15310
911.489	15233
911.604	15211
911.718	15055
911.833	15070
911.947	14960
912.062	14880
912.176	15055
912.291	15180
912.405	15142
912.519	15332
912.633	15176
912.748	15100
912.862	15047
912.976	14845
913.09	14804
913.204	14857
913.318	14823
913.431	14933
913.545	14887
913.659	14975
913.772	14762
913.886	14758
914	14625
914.113	14811
914.226	14849
914.34	14788
914.453	14579
914.566	14674
914.68	14590
914.793	14594
914.906	14381
915.019	14332
915.132	14229
915.245	14324
915.358	14415
915.47	14309
915.583	14385
915.696	14339
915.809	14461
915.921	14434
916.034	14278
916.146	14332
916.259	14214
916.371	14237
916.483	14305
916.595	14065
916.708	14206
916.82	14123
916.932	14081
917.044	14103
917.156	14111
917.268	14012
917.38	14069
917.491	13963
917.603	14050
917.715	14035
917.826	14100
917.938	13890
918.049	13871
918.161	13963
918.272	14168
918.384	14046
918.495	13947
918.606	13799
918.717	13655
918.828	13803
918.939	13875
919.05	13750
919.161	13750
919.272	13681
919.383	13651
919.494	13830
919.604	13909
919.715	13731
919.826	13616
919.936	13750
920.047	13868
920.157	13738
920.267	13940
920.378	13750
920.488	13715
920.598	13944
920.708	14115
920.818	13898
920.928	13928
921.038	14145
921.148	14020
921.258	13746
921.368	13609
921.477	13571
921.587	13552
921.697	13460
921.806	13582
921.916	13415
922.025	13285
922.134	13228
922.244	13206
922.353	13255
922.462	13053
922.571	13019
922.68	12878
922.789	12719
922.898	12787
923.007	12825
923.116	12833
923.224	12852
923.333	12825
923.442	12768
923.55	12654
923.659	12707
923.767	12787
923.876	12540
923.984	12734
924.092	12574
924.201	12563
924.309	12612
924.417	12620
924.525	12486
924.633	12570
924.741	13343
924.849	12289
924.956	12483
925.064	12247
925.172	12243
925.279	12289
925.387	12285
925.494	12315
925.602	12357
925.709	12323
925.816	12205
925.924	12304
926.031	12323
926.138	12224
926.245	12254
926.352	12152
926.459	12270
926.566	12357
926.673	12136
926.779	12045
926.886	12098
926.993	11927
927.099	11912
927.206	11874
927.312	11843
927.419	11885
927.525	11897
927.631	11859
927.737	11760
927.843	11718
927.95	11585
928.056	11688
928.162	11726
928.267	11779
928.373	12399
928.479	11920
928.585	11520
928.69	11710
928.796	11767
928.901	11615
929.007	11474
929.112	11604
929.218	11478
929.323	11372
929.428	11467
929.533	11581
929.638	11387
929.743	11452
929.848	11436
929.953	11391
930.058	11368
930.163	11220
930.267	11212
930.372	11330
930.477	11201
930.581	11360
930.685	11193
930.79	11003
930.894	11105
930.998	11048
931.103	11231
931.207	10850
931.311	10752
931.415	10721
931.519	10424
931.623	10398
