Data from test_V78500241_2088.txt Node
Date: Fri Mar 25 15:56:15 CST 2022
User: usil
Spectrometer: V785-0024
Trigger mode: 0
Integration Time (sec): 4.000000E-1
Scans to average: 1
Nonlinearity correction enabled: false
Boxcar width: 0
Storing dark spectrum: false
XAxis mode: Wavelengths
Number of Pixels in Spectrum: 1024
>>>>>Begin Spectral Data<<<<<
801.071	28782
801.214	28866
801.356	28557
801.499	28573
801.641	28344
801.783	28401
801.926	28211
802.068	28565
802.211	28405
802.353	28344
802.496	28230
802.638	27972
802.78	28036
802.923	28063
803.065	27895
803.208	28067
803.35	28013
803.492	28147
803.635	28363
803.777	28204
803.919	28382
804.061	28645
804.204	28405
804.346	28325
804.488	28325
804.63	28322
804.773	28200
804.915	28382
805.057	28470
805.199	28447
805.341	28234
805.483	28516
805.626	28436
805.768	28424
805.91	28527
806.052	28440
806.194	28459
806.336	28641
806.478	28421
806.62	28478
806.762	28584
806.904	28729
807.046	29018
807.188	28904
807.33	28949
807.472	29105
807.614	28930
807.756	28858
807.898	28805
808.04	28702
808.182	28702
808.324	28869
808.465	28957
808.607	29090
808.749	29155
808.891	29216
809.033	29433
809.174	29368
809.316	29143
809.458	29322
809.6	29048
809.741	29258
809.883	29356
810.025	29482
810.166	29463
810.308	29535
810.45	29516
810.591	29452
810.733	29265
810.875	29189
811.016	29147
811.158	29033
811.299	29364
811.441	29353
811.582	29383
811.724	29121
811.865	29261
812.007	29113
812.148	29296
812.29	29284
812.431	29463
812.573	29531
812.714	29623
812.855	29676
812.997	29836
813.138	29980
813.279	29904
813.421	29775
813.562	29657
813.703	29577
813.845	29372
813.986	29185
814.127	29105
814.268	28763
814.41	28995
814.551	28816
814.692	28980
814.833	28881
814.974	28869
815.115	28915
815.256	28854
815.397	28892
815.539	28752
815.68	28691
815.821	28778
815.962	28694
816.103	28573
816.244	28668
816.385	28512
816.526	28630
816.666	28284
816.807	28090
816.948	28379
817.089	28371
817.23	28188
817.371	28166
817.512	28215
817.653	28246
817.793	28211
817.934	28139
818.075	28219
818.216	28306
818.356	28063
818.497	28128
818.638	27972
818.778	27953
818.919	28017
819.06	28036
819.2	28067
819.341	28192
819.481	28090
819.622	28443
819.762	28668
819.903	28447
820.043	28508
820.184	28325
820.324	28272
820.465	28478
820.605	28371
820.746	28367
820.886	28265
821.026	28398
821.167	28318
821.307	28470
821.447	28413
821.588	28329
821.728	28048
821.868	27823
822.008	27819
822.149	27698
822.289	27739
822.429	27416
822.569	27401
822.709	27431
822.849	27188
822.99	27237
823.13	27256
823.27	27302
823.41	27096
823.55	26948
823.69	27104
823.83	27096
823.97	27104
824.11	26758
824.25	26826
824.389	26963
824.529	26914
824.669	26902
824.809	26994
824.949	26986
825.089	26910
825.228	26933
825.368	26762
825.508	26697
825.648	26815
825.787	26857
825.927	26773
826.067	26602
826.206	26819
826.346	26754
826.485	26758
826.625	26716
826.765	26819
826.904	26758
827.044	26484
827.183	26629
827.323	26408
827.462	26602
827.601	26507
827.741	26396
827.88	26461
828.02	26412
828.159	26518
828.298	26492
828.437	26545
828.577	26434
828.716	26507
828.855	26320
828.994	26149
829.134	26206
829.273	26214
829.412	26172
829.551	26149
829.69	26157
829.829	26298
829.968	26366
830.107	26111
830.246	26130
830.385	26084
830.524	26103
830.663	25944
830.802	25826
830.941	25826
831.08	25639
831.219	25837
831.357	25849
831.496	26062
831.635	25742
831.774	25609
831.913	25624
832.051	25559
832.19	25502
832.329	25514
832.467	25392
832.606	25331
832.744	25331
832.883	25445
833.022	25324
833.16	25460
833.299	25521
833.437	25430
833.576	25468
833.714	25438
833.852	25559
833.991	25613
834.129	25525
834.267	25597
834.406	25483
834.544	25575
834.682	25335
834.821	25578
834.959	25655
835.097	25502
835.235	25552
835.373	25476
835.511	25563
835.65	25350
835.788	25419
835.926	25381
836.064	25148
836.202	25027
836.34	25232
836.478	25392
836.615	25312
836.753	25354
836.891	25320
837.029	25308
837.167	25312
837.305	25190
837.443	25137
837.58	25244
837.718	25164
837.856	25217
837.993	25129
838.131	24989
838.269	24989
838.406	25084
838.544	24943
838.681	24852
838.819	24837
838.956	24673
839.094	24677
839.231	24791
839.369	24768
839.506	24928
839.643	24783
839.781	24623
839.918	24597
840.055	24658
840.193	24578
840.33	24578
840.467	24566
840.604	24612
840.742	24760
840.879	24407
841.016	24433
841.153	24494
841.29	24639
841.427	24593
841.564	24483
841.701	24582
841.838	24464
841.975	24391
842.112	24407
842.249	24330
842.385	24254
842.522	24502
842.659	24270
842.796	24266
842.933	24247
843.069	24266
843.206	24159
843.343	24216
843.479	24216
843.616	24216
843.752	24049
843.889	24098
844.025	24079
844.162	23992
844.298	24174
844.435	24072
844.571	24034
844.708	24205
844.844	24079
844.98	24102
845.117	24095
845.253	24015
845.389	23691
845.525	24076
845.661	23961
845.798	23733
845.934	23752
846.07	23748
846.206	23931
846.342	23866
846.478	23821
846.614	23646
846.75	23421
846.886	23448
847.022	23600
847.158	23543
847.294	23490
847.429	23589
847.565	23463
847.701	23851
847.837	23284
847.972	23178
848.108	23417
848.244	23360
848.379	23113
848.515	23037
848.65	23022
848.786	23132
848.921	23098
849.057	23193
849.192	23181
849.328	23170
849.463	23132
849.598	23006
849.734	23006
849.869	22995
850.004	22839
850.14	22839
850.275	22839
850.41	22767
850.545	22710
850.68	22664
850.815	22900
850.95	23010
851.085	22984
851.22	22953
851.355	23010
851.49	22713
851.625	22881
851.76	22778
851.895	22748
852.03	22694
852.165	22889
852.299	22839
852.434	22911
852.569	22771
852.703	22839
852.838	22889
852.973	22946
853.107	22953
853.242	22748
853.376	22706
853.511	22653
853.645	22675
853.78	22615
853.914	22809
854.048	22607
854.183	22630
854.317	22687
854.451	22881
854.585	22660
854.72	22622
854.854	22698
854.988	22569
855.122	22675
855.256	22523
855.39	22660
855.524	22740
855.658	22618
855.792	22550
855.926	22668
856.06	22831
856.194	22782
856.327	22653
856.461	22546
856.595	22516
856.729	22763
856.862	22763
856.996	22683
857.13	22755
857.263	22748
857.397	22771
857.53	22816
857.664	22630
857.797	22649
857.931	22755
858.064	22672
858.197	22854
858.331	22710
858.464	22645
858.597	22497
858.731	22588
858.864	22729
858.997	22596
859.13	22618
859.263	22672
859.396	22755
859.529	22668
859.662	22557
859.795	22569
859.928	22702
860.061	22786
860.194	22805
860.327	22744
860.46	22679
860.592	22831
860.725	22816
860.858	22698
860.99	22691
861.123	22664
861.256	22561
861.388	22706
861.521	23459
861.653	22493
861.786	22382
861.918	22466
862.05	22565
862.183	22599
862.315	22622
862.447	22637
862.58	22618
862.712	22371
862.844	22318
862.976	22443
863.108	22508
863.24	22824
863.372	22329
863.504	22363
863.636	22421
863.768	22382
863.9	22417
864.032	22306
864.164	22325
864.296	22322
864.428	22538
864.559	22440
864.691	22447
864.823	22375
864.954	22421
865.086	22451
865.217	22230
865.349	22070
865.48	22036
865.612	22329
865.743	22394
865.875	22371
866.006	22131
866.137	22246
866.269	22162
866.4	22265
866.531	22173
866.662	22200
866.793	22242
866.924	22246
867.055	22204
867.186	22166
867.317	22162
867.448	22082
867.579	22185
867.71	21998
867.841	21972
867.972	22154
868.103	22173
868.233	22067
868.364	22139
868.495	22329
868.625	22394
868.756	22474
868.886	22455
869.017	22375
869.147	22428
869.278	22497
869.408	22531
869.539	22390
869.669	22424
869.799	22531
869.929	22504
870.06	22588
870.19	22767
870.32	22672
870.45	22759
870.58	22793
870.71	22911
870.84	22858
870.97	22611
871.1	22847
871.23	23064
871.36	22949
871.489	22816
871.619	23022
871.749	23018
871.879	23090
872.008	23090
872.138	23025
872.267	22980
872.397	22892
872.526	22801
872.656	22831
872.785	22866
872.915	23105
873.044	23102
873.173	23071
873.303	23212
873.432	23033
873.561	23109
873.69	23071
873.819	22987
873.948	23102
874.077	23037
874.206	22908
874.335	23094
874.464	23098
874.593	23258
874.722	23155
874.851	23258
874.979	23303
875.108	23273
875.237	23189
875.365	23273
875.494	23098
875.623	23391
875.751	23261
875.88	23246
876.008	23330
876.136	23459
876.265	23596
876.393	23608
876.521	23783
876.65	23642
876.778	23589
876.906	23543
877.034	23649
877.162	23611
877.29	23455
877.418	23634
877.546	23573
877.674	23657
877.802	23604
877.93	23554
878.058	23417
878.185	23463
878.313	23573
878.441	23417
878.568	23318
878.696	23554
878.824	23611
878.951	23611
879.079	23855
879.206	24041
879.333	23718
879.461	23562
879.588	23539
879.715	23866
879.842	23870
879.97	23573
880.097	23444
880.224	23345
880.351	23364
880.478	23292
880.605	23463
880.732	23398
880.859	23551
880.986	23398
881.112	23436
881.239	23410
881.366	23098
881.493	23128
881.619	22961
881.746	22938
881.872	22942
881.999	22968
882.125	22877
882.252	22904
882.378	22854
882.505	23086
882.631	22721
882.757	22668
882.883	22656
883.01	22561
883.136	22554
883.262	22485
883.388	22478
883.514	22584
883.64	22645
883.766	22596
883.892	22280
884.018	22382
884.143	22493
884.269	22622
884.395	22287
884.52	22291
884.646	22276
884.772	22158
884.897	22128
885.023	22276
885.148	22375
885.274	22405
885.399	22352
885.524	22295
885.65	22314
885.775	22230
885.9	22086
886.025	22405
886.15	22421
886.275	22188
886.4	22078
886.525	22230
886.65	22272
886.775	22162
886.9	22379
887.025	22428
887.149	22192
887.274	22067
887.399	22086
887.523	21945
887.648	21937
887.773	21895
887.897	21945
888.021	21968
888.146	22025
888.27	22074
888.395	21918
888.519	22173
888.643	22006
888.767	21895
888.891	21907
889.015	21903
889.139	21835
889.263	21800
889.387	21873
889.511	22090
889.635	21808
889.759	21698
889.883	21713
890.006	21827
890.13	21876
890.254	21709
890.377	21732
890.501	21553
890.624	21485
890.748	21572
890.871	21473
890.995	21340
891.118	21359
891.241	21435
891.364	21348
891.488	21534
891.611	21500
891.734	21313
891.857	21344
891.98	21268
892.103	21344
892.226	21260
892.349	21252
892.471	21150
892.594	21252
892.717	21291
892.839	21211
892.962	21260
893.085	21169
893.207	21218
893.33	21249
893.452	21188
893.575	21317
893.697	21211
893.819	21329
893.941	21454
894.064	21340
894.186	21222
894.308	21085
894.43	21233
894.552	21367
894.674	21298
894.796	21043
894.918	21233
895.04	21237
895.161	21214
895.283	21207
895.405	21176
895.526	21180
895.648	21218
895.769	21275
895.891	21222
896.012	21374
896.134	21211
896.255	21173
896.376	21093
896.498	21154
896.619	21218
896.74	21165
896.861	21192
896.982	21583
897.103	21660
897.224	21462
897.345	21393
897.466	21351
897.587	21397
897.708	21492
897.828	21462
897.949	21466
898.07	21199
898.19	21363
898.311	21469
898.431	21298
898.552	21359
898.672	21401
898.792	21348
898.913	21279
899.033	21287
899.153	21237
899.273	21192
899.393	21058
899.513	21131
899.633	21195
899.753	21131
899.873	21055
899.993	21161
900.113	21108
900.232	21070
900.352	21005
900.472	21009
900.591	20830
900.711	20849
900.83	20788
900.95	20982
901.069	21013
901.189	20773
901.308	20613
901.427	20488
901.546	20473
901.665	20495
901.784	20507
901.904	20412
902.023	20119
902.141	19978
902.26	20016
902.379	20096
902.498	19921
902.617	20081
902.735	19936
902.854	19944
902.973	19799
903.091	19586
903.21	19658
903.328	19670
903.446	19533
903.565	19480
903.683	19476
903.801	19350
903.919	19377
904.038	19289
904.156	19244
904.274	19377
904.392	19042
904.51	19019
904.627	19198
904.745	19168
904.863	19274
904.981	18939
905.098	18886
905.216	18924
905.334	18779
905.451	18776
905.569	18791
905.686	18932
905.803	18779
905.921	18635
906.038	18646
906.155	18616
906.272	18490
906.389	18570
906.506	18372
906.623	18365
906.74	18258
906.857	18315
906.974	18327
907.091	18289
907.208	18471
907.324	18357
907.441	18243
907.557	18087
907.674	18053
907.79	18072
907.907	17954
908.023	18026
908.139	18091
908.256	18015
908.372	17897
908.488	17904
908.604	17882
908.72	17813
908.836	17767
908.952	17741
909.068	17748
909.184	17889
909.3	17828
909.415	17737
909.531	17775
909.647	17509
909.762	17410
909.878	17402
909.993	17547
910.108	17505
910.224	17467
910.339	17482
910.454	17246
910.57	17326
910.685	17242
910.8	17528
910.915	17448
911.03	17250
911.145	17014
911.259	17197
911.374	17079
911.489	17056
911.604	16904
911.718	16797
911.833	16782
911.947	16713
912.062	16618
912.176	16866
912.291	16771
912.405	16767
912.519	16885
912.633	16911
912.748	16847
912.862	16790
912.976	16588
913.09	16550
913.204	16554
913.318	16641
913.431	16725
913.545	16702
913.659	16767
913.772	16504
913.886	16489
914	16341
914.113	16356
914.226	16531
914.34	16440
914.453	16257
914.566	16497
914.68	16223
914.793	16276
914.906	16071
915.019	15941
915.132	15884
915.245	15991
915.358	16055
915.47	15823
915.583	15964
915.696	15915
915.809	15987
915.921	16032
916.034	15960
916.146	15880
916.259	15774
916.371	15861
916.483	15766
916.595	15816
916.708	15766
916.82	15819
916.932	15743
917.044	15698
917.156	15751
917.268	15629
917.38	15637
917.491	15637
917.603	15629
917.715	15701
917.826	15682
917.938	15450
918.049	15424
918.161	15545
918.272	15572
918.384	15599
918.495	15530
918.606	15359
918.717	15283
918.828	15405
918.939	15397
919.05	15211
919.161	15332
919.272	15108
919.383	15226
919.494	15378
919.604	15504
919.715	15268
919.826	15233
919.936	15291
920.047	15389
920.157	15306
920.267	15466
920.378	15317
920.488	15279
920.598	15412
920.708	15652
920.818	15408
920.928	15412
921.038	15568
921.148	15530
921.258	15222
921.368	15066
921.477	14963
921.587	15009
921.697	14853
921.806	15009
921.916	14826
922.025	14697
922.134	14644
922.244	14568
922.353	14636
922.462	14530
922.571	14465
922.68	14343
922.789	14313
922.898	14343
923.007	14225
923.116	14351
923.224	14256
923.333	14267
923.442	14081
923.55	14088
923.659	14050
923.767	14115
923.876	13986
923.984	14043
924.092	13970
924.201	14031
924.309	13986
924.417	14001
924.525	13887
924.633	13890
924.741	14834
924.849	13727
924.956	13822
925.064	13719
925.172	13571
925.279	13624
925.387	13616
925.494	13628
925.602	13685
925.709	13674
925.816	13510
925.924	13510
926.031	13582
926.138	13575
926.245	13605
926.352	13480
926.459	13628
926.566	13636
926.673	13472
926.779	13415
926.886	13362
926.993	13263
927.099	13202
927.206	13080
927.312	13145
927.419	13156
927.525	13190
927.631	13217
927.737	13065
927.843	13076
927.95	12890
928.056	12977
928.162	13046
928.267	13027
928.373	13597
928.479	13076
928.585	12897
928.69	12966
928.796	13008
928.901	12852
929.007	12730
929.112	12821
929.218	12833
929.323	12787
929.428	12700
929.533	12859
929.638	12646
929.743	12669
929.848	12711
929.953	12593
930.058	12555
930.163	12323
930.267	12422
930.372	12506
930.477	12330
930.581	12570
930.685	12426
930.79	12270
930.894	12296
930.998	12266
931.103	12323
931.207	11939
931.311	11916
931.415	11836
931.519	11611
931.623	11611
