Data from test_V78500241_2734.txt Node
Date: Fri Mar 25 16:00:44 CST 2022
User: usil
Spectrometer: V785-0024
Trigger mode: 0
Integration Time (sec): 4.000000E-1
Scans to average: 1
Nonlinearity correction enabled: false
Boxcar width: 0
Storing dark spectrum: false
XAxis mode: Wavelengths
Number of Pixels in Spectrum: 1024
>>>>>Begin Spectral Data<<<<<
801.071	28927
801.214	28847
801.356	28546
801.499	28538
801.641	28588
801.783	28352
801.926	28455
802.068	28462
802.211	28375
802.353	28341
802.496	28158
802.638	28070
802.78	28306
802.923	28143
803.065	28093
803.208	28124
803.35	28341
803.492	28310
803.635	28459
803.777	28284
803.919	28428
804.061	28713
804.204	28546
804.346	28261
804.488	28276
804.63	28649
804.773	28428
804.915	28497
805.057	28664
805.199	28409
805.341	28500
805.483	28702
805.626	28580
805.768	28443
805.91	28546
806.052	28733
806.194	28603
806.336	28744
806.478	28755
806.62	28649
806.762	28698
806.904	29010
807.046	29193
807.188	29044
807.33	29132
807.472	29227
807.614	29079
807.756	29170
807.898	28900
808.04	28717
808.182	28927
808.324	28873
808.465	29044
808.607	29223
808.749	29280
808.891	29372
809.033	29425
809.174	29277
809.316	29345
809.458	29387
809.6	29398
809.741	29334
809.883	29395
810.025	29558
810.166	29596
810.308	29596
810.45	29467
810.591	29509
810.733	29425
810.875	29444
811.016	29414
811.158	29136
811.299	29417
811.441	29570
811.582	29444
811.724	29303
811.865	29353
812.007	29334
812.148	29398
812.29	29452
812.431	29459
812.573	29726
812.714	29855
812.855	29939
812.997	29931
813.138	29984
813.279	30060
813.421	29923
813.562	29817
813.703	29596
813.845	29703
813.986	29375
814.127	29117
814.268	29067
814.41	29109
814.551	28991
814.692	29162
814.833	28953
814.974	29067
815.115	29086
815.256	28892
815.397	28892
815.539	28980
815.68	28793
815.821	28805
815.962	29037
816.103	28858
816.244	28698
816.385	28660
816.526	28588
816.666	28451
816.807	28265
816.948	28462
817.089	28470
817.23	28337
817.371	28584
817.512	28318
817.653	28344
817.793	28409
817.934	28417
818.075	28466
818.216	28329
818.356	28280
818.497	28333
818.638	28177
818.778	28032
818.919	28105
819.06	28257
819.2	28265
819.341	28542
819.481	28398
819.622	28759
819.762	28729
819.903	28607
820.043	28596
820.184	28462
820.324	28535
820.465	28569
820.605	28561
820.746	28497
820.886	28451
821.026	28493
821.167	28421
821.307	28466
821.447	28299
821.588	28367
821.728	28318
821.868	27918
822.008	27888
822.149	27888
822.289	27827
822.429	27637
822.569	27564
822.709	27568
822.849	27401
822.99	27378
823.13	27412
823.27	27317
823.41	27416
823.55	27146
823.69	27032
823.83	27237
823.97	27104
824.11	27005
824.25	27043
824.389	27104
824.529	27294
824.669	27051
824.809	27119
824.949	27039
825.089	27085
825.228	27154
825.368	26956
825.508	26842
825.648	26876
825.787	26826
825.927	26971
826.067	26800
826.206	26921
826.346	27051
826.485	26899
826.625	26868
826.765	27188
826.904	26933
827.044	26648
827.183	26842
827.323	26579
827.462	26678
827.601	26640
827.741	26651
827.88	26705
828.02	26499
828.159	26530
828.298	26823
828.437	26587
828.577	26469
828.716	26594
828.855	26667
828.994	26385
829.134	26298
829.273	26533
829.412	26351
829.551	26233
829.69	26347
829.829	26347
829.968	26404
830.107	26412
830.246	26290
830.385	26233
830.524	26206
830.663	26199
830.802	26119
830.941	25947
831.08	25890
831.219	26005
831.357	25993
831.496	26164
831.635	25776
831.774	25864
831.913	25849
832.051	25791
832.19	25590
832.329	25826
832.467	25693
832.606	25552
832.744	25495
832.883	25559
833.022	25567
833.16	25597
833.299	25674
833.437	25662
833.576	25632
833.714	25685
833.852	25742
833.991	25715
834.129	25826
834.267	25658
834.406	25670
834.544	25811
834.682	25685
834.821	25525
834.959	25780
835.097	25624
835.235	25750
835.373	25597
835.511	25708
835.65	25559
835.788	25495
835.926	25301
836.064	25266
836.202	25228
836.34	25297
836.478	25647
836.615	25506
836.753	25559
836.891	25605
837.029	25479
837.167	25472
837.305	25343
837.443	25339
837.58	25381
837.718	25354
837.856	25365
837.993	25304
838.131	25183
838.269	25213
838.406	25312
838.544	25240
838.681	24977
838.819	24932
838.956	24844
839.094	24825
839.231	24886
839.369	24970
839.506	25232
839.643	25065
839.781	24848
839.918	24745
840.055	24707
840.193	24677
840.33	24677
840.467	24738
840.604	24806
840.742	25114
840.879	24578
841.016	24707
841.153	24566
841.29	24798
841.427	24635
841.564	24631
841.701	24711
841.838	24608
841.975	24479
842.112	24544
842.249	24490
842.385	24426
842.522	24601
842.659	24494
842.796	24536
842.933	24399
843.069	24494
843.206	24334
843.343	24502
843.479	24479
843.616	24369
843.752	24327
843.889	24243
844.025	24327
844.162	24228
844.298	24323
844.435	24125
844.571	24213
844.708	24258
844.844	24403
844.98	24353
845.117	24186
845.253	24060
845.389	23931
845.525	24159
845.661	24079
845.798	23859
845.934	23977
846.07	24091
846.206	24018
846.342	24068
846.478	23843
846.614	23737
846.75	23611
846.886	23615
847.022	23874
847.158	23703
847.294	23577
847.429	23668
847.565	23699
847.701	23821
847.837	23307
847.972	23334
848.108	23459
848.244	23364
848.379	23288
848.515	23307
848.65	23178
848.786	23227
848.921	23242
849.057	23292
849.192	23414
849.328	23292
849.463	23181
849.598	23299
849.734	23132
849.869	23037
850.004	22858
850.14	22984
850.275	22999
850.41	22911
850.545	22953
850.68	23025
850.815	23010
850.95	22999
851.085	23231
851.22	23109
851.355	23052
851.49	23029
851.625	23018
851.76	23003
851.895	22873
852.03	22778
852.165	22972
852.299	23155
852.434	23124
852.569	22946
852.703	23056
852.838	23079
852.973	23060
853.107	23056
853.242	22995
853.376	22763
853.511	22675
853.645	22774
853.78	22961
853.914	22904
854.048	22748
854.183	22748
854.317	22889
854.451	22999
854.585	22923
854.72	22797
854.854	22972
854.988	22702
855.122	22839
855.256	22679
855.39	22858
855.524	22915
855.658	22953
855.792	22889
855.926	22919
856.06	22801
856.194	22881
856.327	22793
856.461	22664
856.595	22847
856.729	22691
856.862	22980
856.996	22824
857.13	22858
857.263	22976
857.397	23025
857.53	22831
857.664	22896
857.797	22809
857.931	22934
858.064	22835
858.197	22904
858.331	22831
858.464	22774
858.597	22759
858.731	22717
858.864	22835
858.997	22744
859.13	22908
859.263	22805
859.396	22831
859.529	22748
859.662	22850
859.795	22847
859.928	22824
860.061	23067
860.194	22980
860.327	22843
860.46	22820
860.592	22995
860.725	22816
860.858	22976
860.99	22892
861.123	22843
861.256	22744
861.388	22816
861.521	23501
861.653	22713
861.786	22626
861.918	22573
862.05	22702
862.183	22622
862.315	22752
862.447	22881
862.58	22774
862.712	22500
862.844	22462
862.976	22531
863.108	22523
863.24	23086
863.372	22565
863.504	22607
863.636	22462
863.768	22565
863.9	22500
864.032	22504
864.164	22474
864.296	22538
864.428	22489
864.559	22622
864.691	22603
864.823	22615
864.954	22531
865.086	22546
865.217	22504
865.349	22276
865.48	22341
865.612	22344
865.743	22546
865.875	22538
866.006	22402
866.137	22386
866.269	22371
866.4	22379
866.531	22508
866.662	22219
866.793	22333
866.924	22405
867.055	22367
867.186	22386
867.317	22268
867.448	22268
867.579	22249
867.71	22280
867.841	22246
867.972	22318
868.103	22405
868.233	22306
868.364	22314
868.495	22398
868.625	22516
868.756	22637
868.886	22485
869.017	22455
869.147	22626
869.278	22763
869.408	22565
869.539	22550
869.669	22622
869.799	22622
869.929	22565
870.06	22744
870.19	22843
870.32	22873
870.45	23037
870.58	22999
870.71	23128
870.84	23212
870.97	22877
871.1	22938
871.23	23155
871.36	23109
871.489	23060
871.619	23216
871.749	23181
871.879	23216
872.008	23292
872.138	23303
872.267	23185
872.397	23166
872.526	22995
872.656	22991
872.785	22980
872.915	23193
873.044	23425
873.173	23330
873.303	23288
873.432	23174
873.561	23341
873.69	23311
873.819	23155
873.948	23296
874.077	23269
874.206	23075
874.335	23113
874.464	23318
874.593	23429
874.722	23334
874.851	23444
874.979	23429
875.108	23539
875.237	23356
875.365	23200
875.494	23239
875.623	23520
875.751	23448
875.88	23322
876.008	23414
876.136	23463
876.265	23866
876.393	23859
876.521	23870
876.65	23783
876.778	23851
876.906	23634
877.034	23775
877.162	23779
877.29	23691
877.418	23718
877.546	23824
877.674	23745
877.802	23767
877.93	23729
878.058	23737
878.185	23585
878.313	23767
878.441	23722
878.568	23551
878.696	23592
878.824	23817
878.951	23832
879.079	23904
879.206	24121
879.333	23908
879.461	23920
879.588	23874
879.715	23908
879.842	24083
879.97	23760
880.097	23467
880.224	23619
880.351	23672
880.478	23558
880.605	23463
880.732	23570
880.859	23794
880.986	23634
881.112	23531
881.239	23490
881.366	23239
881.493	23246
881.619	23170
881.746	23261
881.872	23151
881.999	23025
882.125	22938
882.252	23060
882.378	22942
882.505	23181
882.631	22858
882.757	22831
882.883	22881
883.01	22786
883.136	22710
883.262	22698
883.388	22630
883.514	22694
883.64	22812
883.766	22694
883.892	22531
884.018	22523
884.143	22710
884.269	22713
884.395	22508
884.52	22459
884.646	22424
884.772	22272
884.897	22379
885.023	22405
885.148	22493
885.274	22584
885.399	22474
885.524	22497
885.65	22398
885.775	22382
885.9	22379
886.025	22493
886.15	22531
886.275	22291
886.4	22299
886.525	22382
886.65	22284
886.775	22409
886.9	22508
887.025	22573
887.149	22398
887.274	22310
887.399	22074
887.523	22124
887.648	22109
887.773	22044
887.897	22242
888.021	22242
888.146	22051
888.27	22192
888.395	22287
888.519	22211
888.643	22200
888.767	22265
888.891	22070
889.015	21941
889.139	22040
889.263	22025
889.387	22109
889.511	22135
889.635	22051
889.759	21949
889.883	21987
890.006	21895
890.13	21972
890.254	21785
890.377	21968
890.501	21675
890.624	21637
890.748	21587
890.871	21622
890.995	21496
891.118	21454
891.241	21519
891.364	21507
891.488	21637
891.611	21481
891.734	21538
891.857	21549
891.98	21583
892.103	21412
892.226	21367
892.349	21553
892.471	21272
892.594	21378
892.717	21359
892.839	21378
892.962	21462
893.085	21321
893.207	21466
893.33	21230
893.452	21249
893.575	21458
893.697	21287
893.819	21485
893.941	21530
894.064	21485
894.186	21378
894.308	21310
894.43	21473
894.552	21473
894.674	21351
894.796	21310
894.918	21431
895.04	21348
895.161	21374
895.283	21485
895.405	21313
895.526	21454
895.648	21367
895.769	21344
895.891	21416
896.012	21355
896.134	21378
896.255	21340
896.376	21283
896.498	21363
896.619	21370
896.74	21256
896.861	21317
896.982	21618
897.103	21804
897.224	21637
897.345	21492
897.466	21599
897.587	21564
897.708	21682
897.828	21629
897.949	21576
898.07	21310
898.19	21431
898.311	21599
898.431	21538
898.552	21420
898.672	21469
898.792	21599
898.913	21564
899.033	21363
899.153	21393
899.273	21237
899.393	21188
899.513	21431
899.633	21268
899.753	21416
899.873	21260
899.993	21203
900.113	21233
900.232	21203
900.352	21112
900.472	21108
900.591	21058
900.711	21017
900.83	21028
900.95	21245
901.069	21036
901.189	20937
901.308	20663
901.427	20701
901.546	20602
901.665	20488
901.784	20598
901.904	20522
902.023	20351
902.141	20259
902.26	20187
902.379	20218
902.498	20172
902.617	20005
902.735	20069
902.854	20050
902.973	20046
903.091	19761
903.21	19757
903.328	19791
903.446	19693
903.565	19719
903.683	19533
903.801	19426
903.919	19468
904.038	19571
904.156	19285
904.274	19369
904.392	19198
904.51	19278
904.627	19358
904.745	19312
904.863	19350
904.981	19034
905.098	19004
905.216	18947
905.334	19008
905.451	18958
905.569	18951
905.686	18962
905.803	18920
905.921	18787
906.038	18897
906.155	18681
906.272	18681
906.389	18616
906.506	18559
906.623	18578
906.74	18547
906.857	18426
906.974	18376
907.091	18604
907.208	18494
907.324	18604
907.441	18350
907.557	18262
907.674	18281
907.79	18232
907.907	18182
908.023	18235
908.139	18266
908.256	18098
908.372	18079
908.488	18015
908.604	17920
908.72	17870
908.836	17950
908.952	17931
909.068	17870
909.184	18133
909.3	17866
909.415	17965
909.531	17813
909.647	17665
909.762	17573
909.878	17528
909.993	17570
910.108	17497
910.224	17433
910.339	17615
910.454	17486
910.57	17379
910.685	17315
910.8	17611
910.915	17512
911.03	17448
911.145	17223
911.259	17090
911.374	17109
911.489	17010
911.604	16965
911.718	16938
911.833	16854
911.947	16873
912.062	16774
912.176	16915
912.291	17022
912.405	16858
912.519	17041
912.633	17136
912.748	16908
912.862	16835
912.976	16717
913.09	16599
913.204	16615
913.318	16588
913.431	16866
913.545	16767
913.659	16782
913.772	16603
913.886	16634
914	16550
914.113	16653
914.226	16577
914.34	16436
914.453	16360
914.566	16462
914.68	16234
914.793	16382
914.906	16215
915.019	16192
915.132	16010
915.245	16055
915.358	16128
915.47	16082
915.583	16051
915.696	16048
915.809	16257
915.921	16268
916.034	16048
916.146	16006
916.259	15895
916.371	16051
916.483	16010
916.595	15846
916.708	15960
916.82	15918
916.932	15846
917.044	15819
917.156	15781
917.268	15698
917.38	15785
917.491	15698
917.603	15675
917.715	15747
917.826	15755
917.938	15603
918.049	15587
918.161	15652
918.272	15759
918.384	15728
918.495	15561
918.606	15473
918.717	15367
918.828	15443
918.939	15515
919.05	15363
919.161	15397
919.272	15173
919.383	15302
919.494	15466
919.604	15606
919.715	15370
919.826	15256
919.936	15348
920.047	15397
920.157	15454
920.267	15564
920.378	15481
920.488	15310
920.598	15458
920.708	15656
920.818	15454
920.928	15477
921.038	15637
921.148	15580
921.258	15405
921.368	15192
921.477	15028
921.587	15051
921.697	15005
921.806	15058
921.916	15009
922.025	14785
922.134	14864
922.244	14712
922.353	14800
922.462	14564
922.571	14545
922.68	14408
922.789	14374
922.898	14438
923.007	14328
923.116	14412
923.224	14374
923.333	14271
923.442	14157
923.55	14233
923.659	14240
923.767	14252
923.876	14092
923.984	14149
924.092	14096
924.201	14225
924.309	14199
924.417	14130
924.525	14035
924.633	14058
924.741	15051
924.849	13845
924.956	13955
925.064	13856
925.172	13761
925.279	13742
925.387	13845
925.494	13753
925.602	13890
925.709	13742
925.816	13586
925.924	13708
926.031	13727
926.138	13757
926.245	13826
926.352	13658
926.459	13658
926.566	13849
926.673	13609
926.779	13499
926.886	13460
926.993	13285
927.099	13335
927.206	13263
927.312	13274
927.419	13377
927.525	13255
927.631	13339
927.737	13133
927.843	13076
927.95	13114
928.056	13129
928.162	13088
928.267	13091
928.373	13704
928.479	13225
928.585	12867
928.69	13069
928.796	13107
928.901	12989
929.007	12920
929.112	12966
929.218	12970
929.323	12920
929.428	12783
929.533	12973
929.638	12787
929.743	12738
929.848	12802
929.953	12810
930.058	12673
930.163	12486
930.267	12509
930.372	12673
930.477	12441
930.581	12700
930.685	12536
930.79	12395
930.894	12323
930.998	12353
931.103	12452
931.207	12144
931.311	12110
931.415	11908
931.519	11710
931.623	11718
