Data from test_V78500241_839.txt Node
Date: Fri Mar 25 15:47:36 CST 2022
User: usil
Spectrometer: V785-0024
Trigger mode: 0
Integration Time (sec): 4.000000E-1
Scans to average: 1
Nonlinearity correction enabled: false
Boxcar width: 0
Storing dark spectrum: false
XAxis mode: Wavelengths
Number of Pixels in Spectrum: 1024
>>>>>Begin Spectral Data<<<<<
801.071	27660
801.214	27591
801.356	27378
801.499	27313
801.641	27062
801.783	27077
801.926	27161
802.068	27138
802.211	27112
802.353	26948
802.496	26819
802.638	26830
802.78	26621
802.923	26705
803.065	26602
803.208	26670
803.35	26914
803.492	26891
803.635	26914
803.777	26986
803.919	26925
804.061	27214
804.204	26967
804.346	26902
804.488	26857
804.63	26857
804.773	26956
804.915	26902
805.057	27104
805.199	27032
805.341	27093
805.483	27032
805.626	27039
805.768	27093
805.91	27150
806.052	26990
806.194	27028
806.336	27268
806.478	27055
806.62	27093
806.762	27241
806.904	27298
807.046	27572
807.188	27397
807.33	27481
807.472	27496
807.614	27416
807.756	27534
807.898	27317
808.04	27283
808.182	27169
808.324	27367
808.465	27393
808.607	27572
808.749	27755
808.891	27880
809.033	27827
809.174	27793
809.316	27774
809.458	27656
809.6	27682
809.741	27835
809.883	28013
810.025	27960
810.166	27956
810.308	27953
810.45	27850
810.591	27793
810.733	27675
810.875	27739
811.016	27641
811.158	27599
811.299	27937
811.441	27861
811.582	27930
811.724	27770
811.865	27713
812.007	27819
812.148	27618
812.29	27789
812.431	27998
812.573	28120
812.714	28044
812.855	28223
812.997	28318
813.138	28451
813.279	28337
813.421	28291
813.562	28147
813.703	28143
813.845	28055
813.986	27644
814.127	27340
814.268	27408
814.41	27481
814.551	27416
814.692	27553
814.833	27447
814.974	27291
815.115	27313
815.256	27252
815.397	27184
815.539	27211
815.68	27154
815.821	27154
815.962	27249
816.103	27180
816.244	27085
816.385	26994
816.526	26986
816.666	26872
816.807	26602
816.948	26910
817.089	26743
817.23	26632
817.371	26689
817.512	26682
817.653	26632
817.793	26758
817.934	26765
818.075	26670
818.216	26644
818.356	26606
818.497	26522
818.638	26427
818.778	26514
818.919	26309
819.06	26488
819.2	26765
819.341	26724
819.481	26659
819.622	26811
819.762	26880
819.903	26914
820.043	26800
820.184	26746
820.324	26838
820.465	26826
820.605	26773
820.746	26804
820.886	26613
821.026	26754
821.167	26762
821.307	26918
821.447	26648
821.588	26632
821.728	26526
821.868	26240
822.008	26252
822.149	26210
822.289	26191
822.429	25917
822.569	25780
822.709	25830
822.849	25639
822.99	25811
823.13	25765
823.27	25620
823.41	25381
823.55	25373
823.69	25506
823.83	25430
823.97	25472
824.11	25388
824.25	25202
824.389	25312
824.529	25400
824.669	25263
824.809	25464
824.949	25346
825.089	25460
825.228	25350
825.368	25095
825.508	25122
825.648	25244
825.787	25114
825.927	25266
826.067	25065
826.206	25160
826.346	25202
826.485	25171
826.625	25088
826.765	25255
826.904	25312
827.044	24871
827.183	24970
827.323	24814
827.462	24886
827.601	24989
827.741	24764
827.88	24897
828.02	24730
828.159	24848
828.298	24954
828.437	24837
828.577	24814
828.716	24882
828.855	24871
828.994	24688
829.134	24623
829.273	24688
829.412	24578
829.551	24498
829.69	24547
829.829	24604
829.968	24677
830.107	24673
830.246	24646
830.385	24433
830.524	24429
830.663	24418
830.802	24300
830.941	24190
831.08	24117
831.219	24323
831.357	24414
831.496	24486
831.635	24114
831.774	24079
831.913	24026
832.051	24102
832.19	23965
832.329	23923
832.467	23923
832.606	23805
832.744	23847
832.883	23851
833.022	23946
833.16	23882
833.299	23927
833.437	23893
833.576	23904
833.714	23893
833.852	23866
833.991	23996
834.129	23988
834.267	23794
834.406	23935
834.544	24038
834.682	24018
834.821	23847
834.959	24159
835.097	23984
835.235	24064
835.373	23859
835.511	23908
835.65	23851
835.788	23847
835.926	23608
836.064	23478
836.202	23558
836.34	23748
836.478	23821
836.615	23627
836.753	23718
836.891	23851
837.029	23691
837.167	23687
837.305	23733
837.443	23707
837.58	23657
837.718	23665
837.856	23600
837.993	23554
838.131	23592
838.269	23543
838.406	23566
838.544	23326
838.681	23170
838.819	23147
838.956	23037
839.094	23094
839.231	23174
839.369	23193
839.506	23417
839.643	23379
839.781	23132
839.918	23052
840.055	23067
840.193	23067
840.33	22965
840.467	23102
840.604	22999
840.742	23250
840.879	22881
841.016	23033
841.153	22850
841.29	23041
841.427	22946
841.564	22976
841.701	22961
841.838	22877
841.975	22839
842.112	22968
842.249	22801
842.385	22793
842.522	23052
842.659	22843
842.796	22721
842.933	22733
843.069	22592
843.206	22736
843.343	22786
843.479	22611
843.616	22835
843.752	22466
843.889	22542
844.025	22702
844.162	22466
844.298	22504
844.435	22481
844.571	22478
844.708	22603
844.844	22466
844.98	22713
845.117	22729
845.253	22432
845.389	22413
845.525	22493
845.661	22443
845.798	22223
845.934	22303
846.07	22078
846.206	22287
846.342	22261
846.478	22242
846.614	22105
846.75	21888
846.886	21964
847.022	22090
847.158	22238
847.294	21956
847.429	21895
847.565	21941
847.701	22291
847.837	21770
847.972	21622
848.108	21842
848.244	21800
848.379	21580
848.515	21705
848.65	21431
848.786	21610
848.921	21686
849.057	21561
849.192	21633
849.328	21774
849.463	21572
849.598	21553
849.734	21511
849.869	21473
850.004	21420
850.14	21439
850.275	21332
850.41	21279
850.545	21207
850.68	21344
850.815	21298
850.95	21348
851.085	21492
851.22	21511
851.355	21393
851.49	21344
851.625	21332
851.76	21291
851.895	21211
852.03	21367
852.165	21184
852.299	21291
852.434	21424
852.569	21492
852.703	21363
852.838	21443
852.973	21511
853.107	21519
853.242	21237
853.376	21184
853.511	21028
853.645	21157
853.78	21169
853.914	21096
854.048	21123
854.183	21207
854.317	21138
854.451	21313
854.585	21176
854.72	21066
854.854	21249
854.988	21192
855.122	21294
855.256	20967
855.39	21119
855.524	21313
855.658	21211
855.792	21260
855.926	21249
856.06	21184
856.194	21272
856.327	21077
856.461	21135
856.595	21135
856.729	21123
856.862	21287
856.996	21142
857.13	21313
857.263	21214
857.397	21291
857.53	21203
857.664	21218
857.797	21199
857.931	21211
858.064	21203
858.197	21287
858.331	21089
858.464	21154
858.597	21055
858.731	21108
858.864	21207
858.997	21264
859.13	21313
859.263	21127
859.396	21256
859.529	21180
859.662	21142
859.795	21138
859.928	21062
860.061	21275
860.194	21462
860.327	21256
860.46	21176
860.592	21237
860.725	21325
860.858	21340
860.99	21119
861.123	21131
861.256	21161
861.388	21195
861.521	21732
861.653	21142
861.786	21085
861.918	20990
862.05	21195
862.183	21074
862.315	21020
862.447	21036
862.58	21089
862.712	20952
862.844	20853
862.976	20975
863.108	20864
863.24	21344
863.372	20845
863.504	20918
863.636	20823
863.768	20883
863.9	20864
864.032	20720
864.164	20697
864.296	20906
864.428	20914
864.559	21009
864.691	20982
864.823	20918
864.954	20952
865.086	20830
865.217	20788
865.349	20754
865.48	20731
865.612	20667
865.743	20895
865.875	20785
866.006	20720
866.137	20758
866.269	20769
866.4	20758
866.531	20769
866.662	20705
866.793	20663
866.924	20701
867.055	20720
867.186	20727
867.317	20750
867.448	20556
867.579	20746
867.71	20674
867.841	20708
867.972	20682
868.103	20632
868.233	20811
868.364	20667
868.495	20800
868.625	20971
868.756	20830
868.886	20815
869.017	21001
869.147	21058
869.278	21116
869.408	20937
869.539	21058
869.669	20956
869.799	21001
869.929	21188
870.06	21055
870.19	21264
870.32	21268
870.45	21287
870.58	21279
870.71	21382
870.84	21477
870.97	21310
871.1	21397
871.23	21561
871.36	21568
871.489	21332
871.619	21477
871.749	21500
871.879	21625
872.008	21641
872.138	21572
872.267	21629
872.397	21477
872.526	21424
872.656	21393
872.785	21222
872.915	21599
873.044	21625
873.173	21622
873.303	21679
873.432	21637
873.561	21618
873.69	21614
873.819	21542
873.948	21549
874.077	21549
874.206	21591
874.335	21595
874.464	21717
874.593	21907
874.722	21781
874.851	21797
874.979	21964
875.108	21812
875.237	21675
875.365	21766
875.494	21705
875.623	21937
875.751	21781
875.88	21774
876.008	21956
876.136	21884
876.265	22188
876.393	22295
876.521	22352
876.65	22207
876.778	22059
876.906	22143
877.034	22143
877.162	22181
877.29	22093
877.418	22188
877.546	22162
877.674	22196
877.802	22219
877.93	22196
878.058	22040
878.185	22029
878.313	22051
878.441	22051
878.568	21956
878.696	22059
878.824	22150
878.951	22284
879.079	22485
879.206	22284
879.333	22352
879.461	22196
879.588	22284
879.715	22211
879.842	22447
879.97	22207
880.097	22021
880.224	22013
880.351	21975
880.478	21888
880.605	21888
880.732	21899
880.859	22139
880.986	21983
881.112	22006
881.239	21831
881.366	21690
881.493	21652
881.619	21401
881.746	21644
881.872	21576
881.999	21473
882.125	21561
882.252	21557
882.378	21686
882.505	21614
882.631	21382
882.757	21313
882.883	21211
883.01	21154
883.136	21195
883.262	21230
883.388	21089
883.514	21268
883.64	21298
883.766	21245
883.892	20971
884.018	21055
884.143	21184
884.269	21340
884.395	20895
884.52	20762
884.646	20979
884.772	20815
884.897	20731
885.023	20781
885.148	21062
885.274	20990
885.399	20960
885.524	20910
885.65	20910
885.775	20857
885.9	20956
886.025	21005
886.15	21047
886.275	20918
886.4	20781
886.525	20933
886.65	20735
886.775	20807
886.9	20986
887.025	20979
887.149	20777
887.274	20667
887.399	20644
887.523	20640
887.648	20667
887.773	20522
887.897	20773
888.021	20842
888.146	20689
888.27	20785
888.395	20834
888.519	20697
888.643	20739
888.767	20720
888.891	20587
889.015	20480
889.139	20632
889.263	20419
889.387	20587
889.511	20617
889.635	20606
889.759	20511
889.883	20514
890.006	20499
890.13	20621
890.254	20450
890.377	20461
890.501	20221
890.624	20164
890.748	20343
890.871	20142
890.995	20096
891.118	20046
891.241	20043
891.364	20142
891.488	20275
891.611	20202
891.734	20065
891.857	20130
891.98	20100
892.103	20084
892.226	20035
892.349	20043
892.471	19909
892.594	20016
892.717	20031
892.839	19989
892.962	19955
893.085	20020
893.207	20020
893.33	19868
893.452	19852
893.575	20122
893.697	19913
893.819	20119
893.941	20115
894.064	20062
894.186	19875
894.308	19791
894.43	20008
894.552	20088
894.674	20096
894.796	19772
894.918	19909
895.04	19947
895.161	20069
895.283	20046
895.405	19849
895.526	20035
895.648	19925
895.769	20050
895.891	20046
896.012	19982
896.134	20050
896.255	19978
896.376	19947
896.498	19978
896.619	19986
896.74	19967
896.861	20039
896.982	20271
897.103	20408
897.224	20214
897.345	20298
897.466	20202
897.587	20275
897.708	20324
897.828	20298
897.949	20218
898.07	20050
898.19	20199
898.311	20419
898.431	20218
898.552	20164
898.672	20278
898.792	20271
898.913	20199
899.033	20214
899.153	19993
899.273	19906
899.393	19986
899.513	19906
899.633	19928
899.753	20077
899.873	19868
899.993	20062
900.113	19928
900.232	19833
900.352	19909
900.472	19845
900.591	19704
900.711	19727
900.83	19616
900.95	19906
901.069	19852
901.189	19693
901.308	19495
901.427	19373
901.546	19468
901.665	19419
901.784	19441
901.904	19228
902.023	19088
902.141	18954
902.26	18890
902.379	18973
902.498	18833
902.617	18852
902.735	18882
902.854	18741
902.973	18779
903.091	18563
903.21	18540
903.328	18418
903.446	18467
903.565	18365
903.683	18315
903.801	18144
903.919	18292
904.038	18311
904.156	18110
904.274	18228
904.392	18007
904.51	18110
904.627	18060
904.745	18155
904.863	18155
904.981	17916
905.098	17680
905.216	17676
905.334	17752
905.451	17752
905.569	17813
905.686	17840
905.803	17802
905.921	17512
906.038	17745
906.155	17573
906.272	17532
906.389	17482
906.506	17429
906.623	17296
906.74	17288
906.857	17227
906.974	17181
907.091	17303
907.208	17448
907.324	17311
907.441	17181
907.557	17045
907.674	17079
907.79	17003
907.907	17056
908.023	17029
908.139	17079
908.256	16976
908.372	16987
908.488	16862
908.604	16729
908.72	16717
908.836	16828
908.952	16698
909.068	16755
909.184	16896
909.3	16679
909.415	16755
909.531	16679
909.647	16504
909.762	16417
909.878	16413
909.993	16436
910.108	16421
910.224	16413
910.339	16375
910.454	16348
910.57	16284
910.685	16230
910.8	16413
910.915	16360
911.03	16242
911.145	16105
911.259	15987
911.374	16051
911.489	15926
911.604	15918
911.718	15816
911.833	15800
911.947	15759
912.062	15606
912.176	15785
912.291	15850
912.405	15827
912.519	16032
912.633	15953
912.748	15800
912.862	15720
912.976	15584
913.09	15450
913.204	15564
913.318	15633
913.431	15728
913.545	15660
913.659	15720
913.772	15488
913.886	15382
914	15260
914.113	15462
914.226	15500
914.34	15458
914.453	15329
914.566	15428
914.68	15370
914.793	15272
914.906	15127
915.019	14948
915.132	14960
915.245	15001
915.358	15055
915.47	15051
915.583	15020
915.696	15020
915.809	15188
915.921	15192
916.034	14944
916.146	14849
916.259	14872
916.371	15058
916.483	15013
916.595	14800
916.708	14937
916.82	14902
916.932	14792
917.044	14845
917.156	14735
917.268	14708
917.38	14735
917.491	14632
917.603	14659
917.715	14785
917.826	14663
917.938	14598
918.049	14568
918.161	14716
918.272	14773
918.384	14743
918.495	14594
918.606	14469
918.717	14374
918.828	14549
918.939	14545
919.05	14328
919.161	14469
919.272	14237
919.383	14336
919.494	14480
919.604	14575
919.715	14427
919.826	14290
919.936	14393
920.047	14473
920.157	14503
920.267	14571
920.378	14457
920.488	14343
920.598	14492
920.708	14716
920.818	14583
920.928	14473
921.038	14739
921.148	14625
921.258	14313
921.368	14328
921.477	14123
921.587	14187
921.697	14084
921.806	14092
921.916	13967
922.025	13959
922.134	13788
922.244	13791
922.353	13826
922.462	13693
922.571	13567
922.68	13476
922.789	13449
922.898	13415
923.007	13369
923.116	13407
923.224	13358
923.333	13396
923.442	13335
923.55	13308
923.659	13316
923.767	13285
923.876	13152
923.984	13392
924.092	13270
924.201	13175
924.309	13183
924.417	13190
924.525	13012
924.633	13095
924.741	14065
924.849	12909
924.956	13084
925.064	12951
925.172	12795
925.279	12840
925.387	12817
925.494	12863
925.602	13015
925.709	12878
925.816	12814
925.924	12738
926.031	12871
926.138	12791
926.245	12871
926.352	12677
926.459	12913
926.566	12924
926.673	12753
926.779	12646
926.886	12544
926.993	12429
927.099	12422
927.206	12418
927.312	12376
927.419	12376
927.525	12388
927.631	12407
927.737	12296
927.843	12296
927.95	12171
928.056	12323
928.162	12262
928.267	12327
928.373	12859
928.479	12262
928.585	12152
928.69	12300
928.796	12292
928.901	12140
929.007	12053
929.112	12129
929.218	12129
929.323	12045
929.428	11999
929.533	12197
929.638	11863
929.743	12045
929.848	11927
929.953	11961
930.058	11901
930.163	11668
930.267	11676
930.372	11863
930.477	11649
930.581	11847
930.685	11733
930.79	11589
930.894	11680
930.998	11573
931.103	11726
931.207	11356
931.311	11250
931.415	11136
931.519	10904
931.623	10984
