Data from test_V78500241_2492.txt Node
Date: Fri Mar 25 15:59:03 CST 2022
User: usil
Spectrometer: V785-0024
Trigger mode: 0
Integration Time (sec): 4.000000E-1
Scans to average: 1
Nonlinearity correction enabled: false
Boxcar width: 0
Storing dark spectrum: false
XAxis mode: Wavelengths
Number of Pixels in Spectrum: 1024
>>>>>Begin Spectral Data<<<<<
801.071	28622
801.214	28451
801.356	28257
801.499	28272
801.641	28173
801.783	28196
801.926	28158
802.068	28074
802.211	27945
802.353	27888
802.496	27838
802.638	27743
802.78	27876
802.923	27766
803.065	27842
803.208	27682
803.35	27926
803.492	27941
803.635	28040
803.777	27994
803.919	27934
804.061	28405
804.204	28067
804.346	28093
804.488	27842
804.63	28093
804.773	27823
804.915	28093
805.057	28116
805.199	27953
805.341	28105
805.483	28101
805.626	28097
805.768	27903
805.91	28059
806.052	28287
806.194	28051
806.336	28215
806.478	28200
806.62	28177
806.762	28371
806.904	28398
807.046	28626
807.188	28641
807.33	28573
807.472	28615
807.614	28668
807.756	28603
807.898	28379
808.04	28344
808.182	28382
808.324	28489
808.465	28443
808.607	28683
808.749	28801
808.891	28927
809.033	29052
809.174	28866
809.316	28877
809.458	28812
809.6	28862
809.741	28984
809.883	29052
810.025	29250
810.166	29136
810.308	29159
810.45	29105
810.591	29033
810.733	28942
810.875	28778
811.016	28797
811.158	28668
811.299	28896
811.441	29060
811.582	29037
811.724	28923
811.865	28892
812.007	28885
812.148	28778
812.29	28873
812.431	28919
812.573	29246
812.714	29223
812.855	29414
812.997	29562
813.138	29630
813.279	29512
813.421	29147
813.562	29254
813.703	29178
813.845	29124
813.986	28752
814.127	28725
814.268	28516
814.41	28668
814.551	28451
814.692	28577
814.833	28455
814.974	28512
815.115	28584
815.256	28375
815.397	28329
815.539	28337
815.68	28462
815.821	28352
815.962	28379
816.103	28341
816.244	28253
816.385	28177
816.526	28070
816.666	27956
816.807	27888
816.948	27922
817.089	27854
817.23	27876
817.371	27808
817.512	27861
817.653	27701
817.793	27880
817.934	27956
818.075	27873
818.216	27854
818.356	27778
818.497	27705
818.638	27511
818.778	27633
818.919	27572
819.06	27538
819.2	27610
819.341	27876
819.481	27907
819.622	27888
819.762	28166
819.903	28082
820.043	28101
820.184	28002
820.324	27964
820.465	27968
820.605	28036
820.746	27991
820.886	27918
821.026	28032
821.167	27934
821.307	28082
821.447	27926
821.588	27736
821.728	27751
821.868	27568
822.008	27477
822.149	27397
822.289	27389
822.429	27062
822.569	26933
822.709	27066
822.849	26834
822.99	26944
823.13	26864
823.27	26777
823.41	26765
823.55	26617
823.69	26651
823.83	26731
823.97	26514
824.11	26419
824.25	26393
824.389	26583
824.529	26655
824.669	26499
824.809	26815
824.949	26644
825.089	26644
825.228	26629
825.368	26328
825.508	26347
825.648	26355
825.787	26305
825.927	26423
826.067	26412
826.206	26290
826.346	26484
826.485	26393
826.625	26533
826.765	26621
826.904	26484
827.044	26126
827.183	26183
827.323	26149
827.462	26130
827.601	26062
827.741	26077
827.88	26134
828.02	26069
828.159	26016
828.298	26298
828.437	26305
828.577	25936
828.716	26161
828.855	26058
828.994	25849
829.134	25704
829.273	25936
829.412	25655
829.551	25719
829.69	25712
829.829	25814
829.968	25913
830.107	25932
830.246	25890
830.385	25814
830.524	25632
830.663	25719
830.802	25658
830.941	25502
831.08	25400
831.219	25434
831.357	25457
831.496	25628
831.635	25491
831.774	25358
831.913	25247
832.051	25091
832.19	25148
832.329	25255
832.467	25072
832.606	24977
832.744	24966
832.883	25088
833.022	25103
833.16	25122
833.299	25148
833.437	25076
833.576	25099
833.714	25232
833.852	25133
833.991	25171
834.129	25110
834.267	25133
834.406	25266
834.544	25175
834.682	25179
834.821	25072
834.959	25274
835.097	25103
835.235	25145
835.373	25038
835.511	25065
835.65	25000
835.788	24943
835.926	24791
836.064	24844
836.202	24700
836.34	24958
836.478	24970
836.615	24897
836.753	24932
836.891	24977
837.029	24943
837.167	24882
837.305	24939
837.443	24848
837.58	24734
837.718	24833
837.856	24753
837.993	24802
838.131	24909
838.269	24593
838.406	24593
838.544	24639
838.681	24479
838.819	24414
838.956	24304
839.094	24213
839.231	24338
839.369	24391
839.506	24646
839.643	24403
839.781	24216
839.918	24095
840.055	24243
840.193	24285
840.33	24121
840.467	24270
840.604	24220
840.742	24426
840.879	23954
841.016	24053
841.153	24026
841.29	24266
841.427	24072
841.564	24018
841.701	24072
841.838	24114
841.975	24026
842.112	24144
842.249	23923
842.385	23939
842.522	24292
842.659	24034
842.796	23821
842.933	23999
843.069	23813
843.206	23805
843.343	23897
843.479	23939
843.616	23988
843.752	23733
843.889	23745
844.025	23703
844.162	23585
844.298	23760
844.435	23707
844.571	23691
844.708	23630
844.844	23786
844.98	23760
845.117	23691
845.253	23566
845.389	23516
845.525	23440
845.661	23581
845.798	23410
845.934	23535
846.07	23322
846.206	23402
846.342	23490
846.478	23326
846.614	23242
846.75	22976
846.886	23117
847.022	23296
847.158	23083
847.294	23060
847.429	23273
847.565	23014
847.701	23364
847.837	22938
847.972	22759
848.108	22946
848.244	22942
848.379	22755
848.515	22824
848.65	22649
848.786	22653
848.921	22733
849.057	22869
849.192	22862
849.328	22847
849.463	22668
849.598	22691
849.734	22683
849.869	22421
850.004	22523
850.14	22497
850.275	22405
850.41	22462
850.545	22512
850.68	22557
850.815	22512
850.95	22474
851.085	22656
851.22	22565
851.355	22504
851.49	22512
851.625	22466
851.76	22409
851.895	22367
852.03	22333
852.165	22592
852.299	22497
852.434	22580
852.569	22580
852.703	22493
852.838	22584
852.973	22618
853.107	22637
853.242	22299
853.376	22360
853.511	22291
853.645	22169
853.78	22451
853.914	22413
854.048	22257
854.183	22230
854.317	22402
854.451	22466
854.585	22303
854.72	22455
854.854	22322
854.988	22303
855.122	22413
855.256	22272
855.39	22154
855.524	22314
855.658	22436
855.792	22329
855.926	22356
856.06	22363
856.194	22310
856.327	22284
856.461	22299
856.595	22226
856.729	22306
856.862	22390
856.996	22261
857.13	22390
857.263	22337
857.397	22230
857.53	22382
857.664	22337
857.797	22432
857.931	22436
858.064	22306
858.197	22443
858.331	22303
858.464	22223
858.597	22238
858.731	22287
858.864	22390
858.997	22226
859.13	22249
859.263	22295
859.396	22398
859.529	22280
859.662	22230
859.795	22207
859.928	22402
860.061	22440
860.194	22531
860.327	22428
860.46	22246
860.592	22481
860.725	22455
860.858	22466
860.99	22337
861.123	22139
861.256	22211
861.388	22295
861.521	23048
861.653	22196
861.786	22135
861.918	22169
862.05	22162
862.183	22200
862.315	22257
862.447	22158
862.58	22169
862.712	22029
862.844	22063
862.976	22128
863.108	22070
863.24	22443
863.372	21876
863.504	21956
863.636	22124
863.768	22139
863.9	22006
864.032	21964
864.164	21865
864.296	22090
864.428	22154
864.559	22139
864.691	22147
864.823	21953
864.954	22139
865.086	22013
865.217	21937
865.349	21934
865.48	21941
865.612	21835
865.743	21949
865.875	21812
866.006	21888
866.137	21888
866.269	21854
866.4	21793
866.531	21857
866.662	21918
866.793	21743
866.924	21888
867.055	21865
867.186	21808
867.317	21800
867.448	21785
867.579	21785
867.71	21743
867.841	21781
867.972	21930
868.103	21819
868.233	21819
868.364	21804
868.495	21854
868.625	22036
868.756	22272
868.886	21994
869.017	22013
869.147	22219
869.278	22268
869.408	22109
869.539	22048
869.669	22265
869.799	22120
869.929	22238
870.06	22181
870.19	22367
870.32	22314
870.45	22478
870.58	22474
870.71	22580
870.84	22447
870.97	22516
871.1	22379
871.23	22561
871.36	22577
871.489	22573
871.619	22637
871.749	22668
871.879	22736
872.008	22748
872.138	22702
872.267	22649
872.397	22573
872.526	22398
872.656	22519
872.785	22489
872.915	22759
873.044	22733
873.173	22656
873.303	22755
873.432	22771
873.561	22835
873.69	22740
873.819	22664
873.948	22713
874.077	22675
874.206	22683
874.335	22649
874.464	22774
874.593	22976
874.722	22881
874.851	23029
874.979	23025
875.108	23003
875.237	22774
875.365	22786
875.494	22961
875.623	23128
875.751	22911
875.88	22892
876.008	22984
876.136	23022
876.265	23292
876.393	23383
876.521	23440
876.65	23360
876.778	23353
876.906	23246
877.034	23178
877.162	23193
877.29	23174
877.418	23322
877.546	23155
877.674	23273
877.802	23299
877.93	23223
878.058	23181
878.185	23159
878.313	23250
878.441	23360
878.568	23075
878.696	23109
878.824	23250
878.951	23311
879.079	23493
879.206	23512
879.333	23391
879.461	23197
879.588	23318
879.715	23414
879.842	23493
879.97	23288
880.097	23079
880.224	23048
880.351	23170
880.478	23136
880.605	23102
880.732	23102
880.859	23296
880.986	23014
881.112	23128
881.239	22942
881.366	22748
881.493	22721
881.619	22596
881.746	22607
881.872	22725
881.999	22542
882.125	22672
882.252	22645
882.378	22660
882.505	22691
882.631	22459
882.757	22325
882.883	22382
883.01	22329
883.136	22306
883.262	22101
883.388	22158
883.514	22314
883.64	22337
883.766	22116
883.892	21979
884.018	22097
884.143	22196
884.269	22348
884.395	22036
884.52	21998
884.646	21873
884.772	21964
884.897	21846
885.023	21998
885.148	22048
885.274	22124
885.399	22109
885.524	22025
885.65	21994
885.775	22017
885.9	21922
886.025	21884
886.15	22002
886.275	21873
886.4	21915
886.525	21930
886.65	21846
886.775	21823
886.9	22112
887.025	22006
887.149	21915
887.274	21892
887.399	21633
887.523	21762
887.648	21663
887.773	21656
887.897	21698
888.021	21652
888.146	21561
888.27	21789
888.395	21888
888.519	21724
888.643	21648
888.767	21705
888.891	21603
889.015	21488
889.139	21447
889.263	21481
889.387	21469
889.511	21705
889.635	21545
889.759	21397
889.883	21492
890.006	21466
890.13	21500
890.254	21348
890.377	21370
890.501	21302
890.624	21268
890.748	21317
890.871	21131
890.995	21036
891.118	20948
891.241	21017
891.364	21043
891.488	21199
891.611	21074
891.734	21032
891.857	21028
891.98	20944
892.103	21192
892.226	21043
892.349	21047
892.471	20823
892.594	20975
892.717	21039
892.839	20925
892.962	20902
893.085	20994
893.207	21017
893.33	20826
893.452	20861
893.575	20971
893.697	20876
893.819	21093
893.941	21039
894.064	21001
894.186	20982
894.308	20883
894.43	20990
894.552	21142
894.674	20986
894.796	20792
894.918	20944
895.04	20921
895.161	21127
895.283	20895
895.405	20826
895.526	20906
895.648	20982
895.769	20925
895.891	20990
896.012	20963
896.134	21039
896.255	20941
896.376	20967
896.498	20887
896.619	20918
896.74	20800
896.861	21036
896.982	21275
897.103	21374
897.224	21226
897.345	21074
897.466	21142
897.587	21119
897.708	21207
897.828	21192
897.949	21199
898.07	20929
898.19	21085
898.311	21142
898.431	21028
898.552	21127
898.672	21268
898.792	21081
898.913	21077
899.033	20956
899.153	20880
899.273	20705
899.393	20914
899.513	20918
899.633	20883
899.753	20910
899.873	20727
899.993	20842
900.113	20746
900.232	20845
900.352	20743
900.472	20682
900.591	20587
900.711	20648
900.83	20663
900.95	20750
901.069	20720
901.189	20404
901.308	20248
901.427	20229
901.546	20157
901.665	20336
901.784	20130
901.904	19997
902.023	19989
902.141	19761
902.26	19696
902.379	19784
902.498	19635
902.617	19765
902.735	19712
902.854	19624
902.973	19552
903.091	19373
903.21	19312
903.328	19350
903.446	19240
903.565	19110
903.683	19152
903.801	19122
903.919	19126
904.038	19004
904.156	19027
904.274	18989
904.392	18856
904.51	18939
904.627	18920
904.745	18947
904.863	18894
904.981	18711
905.098	18589
905.216	18612
905.334	18654
905.451	18620
905.569	18502
905.686	18601
905.803	18525
905.921	18395
906.038	18582
906.155	18407
906.272	18319
906.389	18357
906.506	18060
906.623	18144
906.74	18148
906.857	18038
906.974	18041
907.091	18121
907.208	18235
907.324	18235
907.441	18083
907.557	17882
907.674	17878
907.79	17851
907.907	17726
908.023	17859
908.139	17908
908.256	17699
908.372	17729
908.488	17657
908.604	17710
908.72	17581
908.836	17566
908.952	17463
909.068	17493
909.184	17608
909.3	17573
909.415	17520
909.531	17501
909.647	17334
909.762	17307
909.878	17193
909.993	17242
910.108	17189
910.224	17098
910.339	17231
910.454	17037
910.57	17056
910.685	16946
910.8	17193
910.915	17250
911.03	16965
911.145	16858
911.259	16828
911.374	16717
911.489	16717
911.604	16687
911.718	16542
911.833	16740
911.947	16508
912.062	16402
912.176	16637
912.291	16622
912.405	16573
912.519	16729
912.633	16698
912.748	16649
912.862	16447
912.976	16421
913.09	16192
913.204	16299
913.318	16303
913.431	16443
913.545	16481
913.659	16478
913.772	16382
913.886	16226
914	16162
914.113	16268
914.226	16272
914.34	16356
914.453	15994
914.566	16173
914.68	16040
914.793	15994
914.906	15880
915.019	15743
915.132	15663
915.245	15686
915.358	15755
915.47	15804
915.583	15728
915.696	15690
915.809	15835
915.921	15816
916.034	15682
916.146	15648
916.259	15671
916.371	15804
916.483	15705
916.595	15564
916.708	15519
916.82	15538
916.932	15504
917.044	15526
917.156	15526
917.268	15397
917.38	15477
917.491	15363
917.603	15321
917.715	15564
917.826	15477
917.938	15367
918.049	15192
918.161	15298
918.272	15462
918.384	15439
918.495	15306
918.606	15100
918.717	15001
918.828	15161
918.939	15138
919.05	15085
919.161	15123
919.272	15013
919.383	15074
919.494	15173
919.604	15329
919.715	15077
919.826	15020
919.936	15100
920.047	15161
920.157	15017
920.267	15173
920.378	15176
920.488	15104
920.598	15203
920.708	15344
920.818	15226
920.928	15245
921.038	15443
921.148	15336
921.258	14956
921.368	14918
921.477	14762
921.587	14762
921.697	14731
921.806	14838
921.916	14689
922.025	14461
922.134	14385
922.244	14366
922.353	14461
922.462	14324
922.571	14252
922.68	14046
922.789	14077
922.898	14077
923.007	14065
923.116	13978
923.224	14138
923.333	14001
923.442	13925
923.55	13928
923.659	13860
923.767	13852
923.876	13833
923.984	13909
924.092	13666
924.201	13837
924.309	13837
924.417	13776
924.525	13662
924.633	13765
924.741	14473
924.849	13491
924.956	13609
925.064	13521
925.172	13384
925.279	13445
925.387	13453
925.494	13434
925.602	13571
925.709	13533
925.816	13422
925.924	13381
926.031	13487
926.138	13396
926.245	13453
926.352	13335
926.459	13422
926.566	13483
926.673	13324
926.779	13225
926.886	13228
926.993	13008
927.099	13038
927.206	13012
927.312	12947
927.419	13034
927.525	12939
927.631	13008
927.737	12859
927.843	12859
927.95	12703
928.056	12798
928.162	12810
928.267	12882
928.373	13537
928.479	12871
928.585	12608
928.69	12749
928.796	12829
928.901	12612
929.007	12448
929.112	12669
929.218	12563
929.323	12608
929.428	12479
929.533	12665
929.638	12380
929.743	12490
929.848	12479
929.953	12426
930.058	12361
930.163	12197
930.267	12155
930.372	12384
930.477	12194
930.581	12380
930.685	12258
930.79	12026
930.894	12106
930.998	12106
931.103	12159
931.207	11882
931.311	11737
931.415	11554
931.519	11410
931.623	11421
