Data from test_V78500241_1380.txt Node
Date: Fri Mar 25 15:51:21 CST 2022
User: usil
Spectrometer: V785-0024
Trigger mode: 0
Integration Time (sec): 4.000000E-1
Scans to average: 1
Nonlinearity correction enabled: false
Boxcar width: 0
Storing dark spectrum: false
XAxis mode: Wavelengths
Number of Pixels in Spectrum: 1024
>>>>>Begin Spectral Data<<<<<
801.071	27450
801.214	27393
801.356	27161
801.499	27127
801.641	26986
801.783	27150
801.926	27131
802.068	27093
802.211	26937
802.353	26826
802.496	26800
802.638	26708
802.78	26648
802.923	26568
803.065	26594
803.208	26651
803.35	26663
803.492	26876
803.635	26842
803.777	26838
803.919	26804
804.061	27192
804.204	26883
804.346	26823
804.488	26834
804.63	26868
804.773	26785
804.915	26914
805.057	26998
805.199	26872
805.341	26952
805.483	26834
805.626	27081
805.768	26895
805.91	26929
806.052	27085
806.194	26952
806.336	27252
806.478	27085
806.62	27146
806.762	27051
806.904	27233
807.046	27466
807.188	27351
807.33	27401
807.472	27332
807.614	27454
807.756	27420
807.898	27302
808.04	27275
808.182	27256
808.324	27272
808.465	27279
808.607	27526
808.749	27576
808.891	27781
809.033	27869
809.174	27736
809.316	27530
809.458	27561
809.6	27576
809.741	27686
809.883	27709
810.025	27884
810.166	27934
810.308	27983
810.45	27968
810.591	27850
810.733	27751
810.875	27534
811.016	27629
811.158	27431
811.299	27724
811.441	27778
811.582	27854
811.724	27633
811.865	27717
812.007	27447
812.148	27656
812.29	27603
812.431	27797
812.573	27953
812.714	27914
812.855	28090
812.997	28200
813.138	28310
813.279	28135
813.421	28048
813.562	28017
813.703	27850
813.845	27854
813.986	27568
814.127	27424
814.268	27252
814.41	27515
814.551	27256
814.692	27344
814.833	27321
814.974	27321
815.115	27218
815.256	27207
815.397	27176
815.539	27233
815.68	27024
815.821	27081
815.962	26990
816.103	27013
816.244	26967
816.385	26880
816.526	26826
816.666	26708
816.807	26602
816.948	26579
817.089	26655
817.23	26598
817.371	26507
817.512	26526
817.653	26655
817.793	26552
817.934	26549
818.075	26621
818.216	26473
818.356	26465
818.497	26518
818.638	26252
818.778	26191
818.919	26313
819.06	26317
819.2	26324
819.341	26484
819.481	26404
819.622	26636
819.762	26895
819.903	26739
820.043	26632
820.184	26678
820.324	26636
820.465	26689
820.605	26579
820.746	26682
820.886	26492
821.026	26651
821.167	26655
821.307	26518
821.447	26537
821.588	26415
821.728	26446
821.868	26263
822.008	26058
822.149	26043
822.289	26073
822.429	25772
822.569	25727
822.709	25742
822.849	25666
822.99	25567
823.13	25479
823.27	25476
823.41	25438
823.55	25289
823.69	25487
823.83	25320
823.97	25301
824.11	25046
824.25	25194
824.389	25228
824.529	25183
824.669	25213
824.809	25251
824.949	25194
825.089	25225
825.228	25183
825.368	24992
825.508	25023
825.648	25034
825.787	25042
825.927	25164
826.067	24958
826.206	25148
826.346	25103
826.485	25122
826.625	25057
826.765	25179
826.904	25057
827.044	24707
827.183	24654
827.323	24764
827.462	24814
827.601	24707
827.741	24631
827.88	24700
828.02	24635
828.159	24639
828.298	24692
828.437	24795
828.577	24779
828.716	24920
828.855	24635
828.994	24460
829.134	24490
829.273	24441
829.412	24486
829.551	24414
829.69	24433
829.829	24494
829.968	24395
830.107	24494
830.246	24422
830.385	24372
830.524	24270
830.663	24311
830.802	24072
830.941	23935
831.08	24068
831.219	24106
831.357	24121
831.496	24266
831.635	23996
831.774	24015
831.913	23999
832.051	23946
832.19	23783
832.329	23916
832.467	23878
832.606	23726
832.744	23630
832.883	23687
833.022	23684
833.16	23512
833.299	23695
833.437	23790
833.576	23798
833.714	23817
833.852	23786
833.991	23714
834.129	23870
834.267	23703
834.406	23836
834.544	23809
834.682	23855
834.821	23714
834.959	23878
835.097	23722
835.235	23980
835.373	23809
835.511	23733
835.65	23547
835.788	23638
835.926	23486
836.064	23478
836.202	23406
836.34	23615
836.478	23691
836.615	23642
836.753	23710
836.891	23672
837.029	23585
837.167	23531
837.305	23417
837.443	23501
837.58	23566
837.718	23474
837.856	23501
837.993	23421
838.131	23356
838.269	23330
838.406	23326
838.544	23162
838.681	23170
838.819	23029
838.956	22953
839.094	22915
839.231	22923
839.369	23037
839.506	23322
839.643	23071
839.781	22942
839.918	22786
840.055	22908
840.193	22820
840.33	22721
840.467	22877
840.604	22847
840.742	23105
840.879	22740
841.016	22778
841.153	22645
841.29	22908
841.427	22809
841.564	22968
841.701	22850
841.838	22752
841.975	22653
842.112	22793
842.249	22706
842.385	22607
842.522	22946
842.659	22664
842.796	22440
842.933	22634
843.069	22489
843.206	22557
843.343	22668
843.479	22527
843.616	22618
843.752	22386
843.889	22356
844.025	22451
844.162	22341
844.298	22318
844.435	22478
844.571	22268
844.708	22474
844.844	22485
844.98	22436
845.117	22413
845.253	22333
845.389	22177
845.525	22341
845.661	22238
845.798	22078
845.934	22154
846.07	22051
846.206	22105
846.342	22394
846.478	22105
846.614	21857
846.75	21766
846.886	21793
847.022	21857
847.158	21991
847.294	21880
847.429	21842
847.565	21850
847.701	21987
847.837	21583
847.972	21603
848.108	21656
848.244	21538
848.379	21511
848.515	21424
848.65	21545
848.786	21439
848.921	21351
849.057	21538
849.192	21644
849.328	21526
849.463	21359
849.598	21359
849.734	21332
849.869	21260
850.004	21260
850.14	21173
850.275	21359
850.41	21131
850.545	21077
850.68	20994
850.815	21272
850.95	21180
851.085	21272
851.22	21283
851.355	21184
851.49	21264
851.625	21142
851.76	21036
851.895	21214
852.03	21013
852.165	21268
852.299	21135
852.434	21294
852.569	21077
852.703	21230
852.838	21405
852.973	21252
853.107	21260
853.242	21165
853.376	21047
853.511	20868
853.645	20948
853.78	20990
853.914	21017
854.048	20921
854.183	20944
854.317	21013
854.451	21165
854.585	20929
854.72	20990
854.854	21032
854.988	20994
855.122	20891
855.256	20887
855.39	21036
855.524	21009
855.658	21096
855.792	21165
855.926	21036
856.06	21108
856.194	21131
856.327	21051
856.461	21066
856.595	20880
856.729	20948
856.862	21237
856.996	21051
857.13	21108
857.263	21093
857.397	21096
857.53	21020
857.664	21104
857.797	21096
857.931	21066
858.064	21119
858.197	21070
858.331	21157
858.464	20899
858.597	20902
858.731	20998
858.864	20956
858.997	20979
859.13	21005
859.263	21112
859.396	21100
859.529	21032
859.662	20990
859.795	20921
859.928	21024
860.061	21142
860.194	21237
860.327	21093
860.46	21009
860.592	21138
860.725	21146
860.858	21165
860.99	21070
861.123	20990
861.256	21009
861.388	21112
861.521	21595
861.653	20845
861.786	20921
861.918	20842
862.05	20887
862.183	21024
862.315	20941
862.447	21089
862.58	20941
862.712	20731
862.844	20678
862.976	20750
863.108	20811
863.24	21233
863.372	20625
863.504	20769
863.636	20731
863.768	20735
863.9	20678
864.032	20682
864.164	20594
864.296	20724
864.428	20845
864.559	20804
864.691	20644
864.823	20697
864.954	20834
865.086	20689
865.217	20640
865.349	20549
865.48	20602
865.612	20594
865.743	20625
865.875	20606
866.006	20476
866.137	20651
866.269	20640
866.4	20712
866.531	20590
866.662	20689
866.793	20606
866.924	20556
867.055	20629
867.186	20644
867.317	20533
867.448	20396
867.579	20655
867.71	20492
867.841	20450
867.972	20454
868.103	20549
868.233	20511
868.364	20594
868.495	20587
868.625	20883
868.756	20899
868.886	20678
869.017	20883
869.147	20880
869.278	20891
869.408	20861
869.539	20872
869.669	20811
869.799	20876
869.929	20990
870.06	20941
870.19	21032
870.32	21096
870.45	21146
870.58	21283
870.71	21336
870.84	21325
870.97	21230
871.1	21237
871.23	21325
871.36	21389
871.489	21272
871.619	21378
871.749	21466
871.879	21389
872.008	21523
872.138	21492
872.267	21378
872.397	21401
872.526	21188
872.656	21214
872.785	21241
872.915	21454
873.044	21477
873.173	21500
873.303	21370
873.432	21515
873.561	21534
873.69	21424
873.819	21378
873.948	21610
874.077	21359
874.206	21507
874.335	21412
874.464	21496
874.593	21641
874.722	21637
874.851	21682
874.979	21690
875.108	21713
875.237	21743
875.365	21515
875.494	21599
875.623	21732
875.751	21526
875.88	21724
876.008	21831
876.136	21823
876.265	21968
876.393	22230
876.521	22070
876.65	22109
876.778	22059
876.906	22032
877.034	21968
877.162	21892
877.29	21991
877.418	22181
877.546	21998
877.674	21998
877.802	21968
877.93	22017
878.058	21880
878.185	21994
878.313	21960
878.441	21972
878.568	21842
878.696	22048
878.824	22150
878.951	22048
879.079	22253
879.206	22337
879.333	22181
879.461	22010
879.588	22166
879.715	22211
879.842	22230
879.97	22059
880.097	21865
880.224	21991
880.351	21915
880.478	21842
880.605	21720
880.732	21884
880.859	22128
880.986	21915
881.112	21979
881.239	21705
881.366	21545
881.493	21378
881.619	21405
881.746	21526
881.872	21469
881.999	21306
882.125	21264
882.252	21473
882.378	21283
882.505	21405
882.631	21310
882.757	21176
882.883	21207
883.01	21066
883.136	20994
883.262	20891
883.388	21024
883.514	21241
883.64	21135
883.766	20986
883.892	20883
884.018	20872
884.143	20963
884.269	21211
884.395	20826
884.52	20895
884.646	20804
884.772	20804
884.897	20750
885.023	20815
885.148	20807
885.274	20906
885.399	20842
885.524	20651
885.65	20735
885.775	20754
885.9	20705
886.025	20864
886.15	20777
886.275	20754
886.4	20716
886.525	20629
886.65	20697
886.775	20629
886.9	20849
887.025	20887
887.149	20697
887.274	20659
887.399	20511
887.523	20602
887.648	20438
887.773	20476
887.897	20594
888.021	20705
888.146	20526
888.27	20602
888.395	20583
888.519	20518
888.643	20629
888.767	20522
888.891	20480
889.015	20339
889.139	20347
889.263	20332
889.387	20385
889.511	20670
889.635	20419
889.759	20267
889.883	20301
890.006	20339
890.13	20438
890.254	20309
890.377	20244
890.501	20275
890.624	20096
890.748	20092
890.871	19986
890.995	19967
891.118	19982
891.241	19951
891.364	19849
891.488	20031
891.611	19963
891.734	19959
891.857	20035
891.98	19883
892.103	20005
892.226	19917
892.349	19936
892.471	19791
892.594	19871
892.717	19928
892.839	19757
892.962	19830
893.085	19898
893.207	19902
893.33	19791
893.452	19830
893.575	19909
893.697	19738
893.819	19989
893.941	20050
894.064	19909
894.186	19807
894.308	19784
894.43	19883
894.552	19887
894.674	19769
894.796	19712
894.918	19860
895.04	19795
895.161	19902
895.283	19803
895.405	19906
895.526	19868
895.648	19906
895.769	19791
895.891	19932
896.012	19887
896.134	19788
896.255	19902
896.376	19738
896.498	19898
896.619	19894
896.74	19811
896.861	19944
896.982	20168
897.103	20256
897.224	20122
897.345	20088
897.466	19974
897.587	20065
897.708	20145
897.828	20050
897.949	20001
898.07	19932
898.19	20100
898.311	20077
898.431	20062
898.552	20031
898.672	20126
898.792	20195
898.913	20126
899.033	20027
899.153	19833
899.273	19856
899.393	19826
899.513	19849
899.633	19879
899.753	19883
899.873	19776
899.993	19837
900.113	19795
900.232	19803
900.352	19685
900.472	19578
900.591	19556
900.711	19578
900.83	19548
900.95	19643
901.069	19613
901.189	19586
901.308	19308
901.427	19206
901.546	19133
901.665	19133
901.784	19247
901.904	19145
902.023	18970
902.141	18703
902.26	18741
902.379	18795
902.498	18707
902.617	18578
902.735	18741
902.854	18677
902.973	18673
903.091	18471
903.21	18296
903.328	18426
903.446	18323
903.565	18197
903.683	18319
903.801	18167
903.919	18098
904.038	18110
904.156	17901
904.274	17946
904.392	17923
904.51	17996
904.627	17931
904.745	17946
904.863	18098
904.981	17722
905.098	17619
905.216	17615
905.334	17710
905.451	17630
905.569	17600
905.686	17676
905.803	17623
905.921	17440
906.038	17505
906.155	17429
906.272	17334
906.389	17318
906.506	17166
906.623	17223
906.74	17181
906.857	16999
906.974	17083
907.091	17223
907.208	17220
907.324	17250
907.441	17045
907.557	16923
907.674	16839
907.79	16835
907.907	16869
908.023	16816
908.139	16877
908.256	16771
908.372	16694
908.488	16679
908.604	16752
908.72	16577
908.836	16675
908.952	16653
909.068	16653
909.184	16710
909.3	16675
909.415	16599
909.531	16493
909.647	16398
909.762	16257
909.878	16276
909.993	16207
910.108	16276
910.224	16394
910.339	16265
910.454	16154
910.57	16048
910.685	16055
910.8	16295
910.915	16246
911.03	16162
911.145	15975
911.259	15949
911.374	15884
911.489	15793
911.604	15720
911.718	15705
911.833	15739
911.947	15545
912.062	15496
912.176	15751
912.291	15747
912.405	15732
912.519	15781
912.633	15755
912.748	15751
912.862	15656
912.976	15408
913.09	15340
913.204	15424
913.318	15549
913.431	15576
913.545	15504
913.659	15504
913.772	15321
913.886	15458
914	15344
914.113	15329
914.226	15408
914.34	15420
914.453	15211
914.566	15294
914.68	15233
914.793	15127
914.906	15001
915.019	14929
915.132	14880
915.245	14857
915.358	14971
915.47	14902
915.583	14811
915.696	14830
915.809	15036
915.921	14929
916.034	14842
916.146	14804
916.259	14731
916.371	14929
916.483	14819
916.595	14716
916.708	14781
916.82	14731
916.932	14678
917.044	14758
917.156	14682
917.268	14533
917.38	14617
917.491	14522
917.603	14530
917.715	14590
917.826	14613
917.938	14450
918.049	14438
918.161	14522
918.272	14667
918.384	14613
918.495	14442
918.606	14389
918.717	14237
918.828	14385
918.939	14461
919.05	14256
919.161	14214
919.272	14161
919.383	14161
919.494	14370
919.604	14526
919.715	14374
919.826	14263
919.936	14267
920.047	14339
920.157	14358
920.267	14393
920.378	14256
920.488	14282
920.598	14476
920.708	14503
920.818	14419
920.928	14385
921.038	14568
921.148	14648
921.258	14248
921.368	13986
921.477	13997
921.587	14039
921.697	13928
921.806	14031
921.916	13967
922.025	13696
922.134	13731
922.244	13628
922.353	13689
922.462	13624
922.571	13426
922.68	13350
922.789	13293
922.898	13335
923.007	13225
923.116	13411
923.224	13293
923.333	13297
923.442	13209
923.55	13088
923.659	13103
923.767	13213
923.876	13145
923.984	13152
924.092	13042
924.201	13088
924.309	13107
924.417	13015
924.525	12920
924.633	13015
924.741	13902
924.849	12840
924.956	12943
925.064	12806
925.172	12597
925.279	12677
925.387	12768
925.494	12787
925.602	12886
925.709	12730
925.816	12688
925.924	12783
926.031	12863
926.138	12684
926.245	12753
926.352	12646
926.459	12677
926.566	12673
926.673	12585
926.779	12521
926.886	12483
926.993	12376
927.099	12372
927.206	12315
927.312	12285
927.419	12403
927.525	12311
927.631	12334
927.737	12205
927.843	12175
927.95	12098
928.056	12102
928.162	12197
928.267	12228
928.373	12844
928.479	12235
928.585	11950
928.69	12087
928.796	12053
928.901	12076
929.007	11882
929.112	11931
929.218	11984
929.323	11954
929.428	11980
929.533	11992
929.638	11767
929.743	11794
929.848	11954
929.953	11897
930.058	11771
930.163	11573
930.267	11649
930.372	11722
930.477	11493
930.581	11790
930.685	11642
930.79	11455
930.894	11524
930.998	11467
931.103	11520
931.207	11212
931.311	11185
931.415	11105
931.519	10908
931.623	10812
