Data from test_V78500241_2112.txt Node
Date: Fri Mar 25 15:56:25 CST 2022
User: usil
Spectrometer: V785-0024
Trigger mode: 0
Integration Time (sec): 4.000000E-1
Scans to average: 1
Nonlinearity correction enabled: false
Boxcar width: 0
Storing dark spectrum: false
XAxis mode: Wavelengths
Number of Pixels in Spectrum: 1024
>>>>>Begin Spectral Data<<<<<
801.071	28599
801.214	28896
801.356	28344
801.499	28462
801.641	28318
801.783	28424
801.926	28413
802.068	28234
802.211	28234
802.353	28234
802.496	28139
802.638	27960
802.78	28044
802.923	27960
803.065	27857
803.208	27914
803.35	28059
803.492	28158
803.635	28185
803.777	28139
803.919	28173
804.061	28611
804.204	28325
804.346	28143
804.488	28185
804.63	28265
804.773	28253
804.915	28284
805.057	28257
805.199	28371
805.341	28204
805.483	28451
805.626	28295
805.768	28249
805.91	28603
806.052	28405
806.194	28314
806.336	28596
806.478	28451
806.62	28363
806.762	28599
806.904	28603
807.046	28790
807.188	28930
807.33	28847
807.472	28908
807.614	28793
807.756	28805
807.898	28736
808.04	28565
808.182	28763
808.324	28839
808.465	28812
808.607	28927
808.749	29018
808.891	29250
809.033	29265
809.174	29117
809.316	28987
809.458	29121
809.6	28934
809.741	29254
809.883	29151
810.025	29444
810.166	29421
810.308	29425
810.45	29337
810.591	29375
810.733	29060
810.875	29197
811.016	28866
811.158	29075
811.299	29174
811.441	29250
811.582	29227
811.724	29151
811.865	29060
812.007	29079
812.148	29121
812.29	29261
812.431	29303
812.573	29341
812.714	29520
812.855	29767
812.997	29707
813.138	29878
813.279	29714
813.421	29535
813.562	29589
813.703	29509
813.845	29322
813.986	29147
814.127	28873
814.268	28744
814.41	28843
814.551	28675
814.692	28904
814.833	28721
814.974	28778
815.115	28733
815.256	28645
815.397	28618
815.539	28656
815.68	28535
815.821	28641
815.962	28679
816.103	28729
816.244	28592
816.385	28417
816.526	28481
816.666	28246
816.807	28002
816.948	28261
817.089	28162
817.23	28192
817.371	28105
817.512	28090
817.653	28211
817.793	28116
817.934	28074
818.075	28063
818.216	28261
818.356	28109
818.497	28051
818.638	27781
818.778	27956
818.919	27838
819.06	28017
819.2	28086
819.341	28150
819.481	28276
819.622	28265
819.762	28462
819.903	28398
820.043	28462
820.184	28462
820.324	28310
820.465	28421
820.605	28303
820.746	28120
820.886	28112
821.026	28268
821.167	28261
821.307	28318
821.447	28093
821.588	28181
821.728	27964
821.868	27869
822.008	27614
822.149	27610
822.289	27572
822.429	27397
822.569	27359
822.709	27340
822.849	27260
822.99	27237
823.13	27161
823.27	27055
823.41	26910
823.55	26929
823.69	27039
823.83	27036
823.97	26906
824.11	26735
824.25	26895
824.389	26826
824.529	26918
824.669	26918
824.809	26796
824.949	26781
825.089	26895
825.228	26769
825.368	26762
825.508	26644
825.648	26785
825.787	26807
825.927	26746
826.067	26727
826.206	26648
826.346	26720
826.485	26746
826.625	26598
826.765	26758
826.904	26716
827.044	26431
827.183	26480
827.323	26324
827.462	26442
827.601	26431
827.741	26446
827.88	26533
828.02	26336
828.159	26351
828.298	26434
828.437	26332
828.577	26317
828.716	26419
828.855	26218
828.994	26199
829.134	26054
829.273	26111
829.412	25959
829.551	26008
829.69	26107
829.829	26142
829.968	26259
830.107	26142
830.246	26122
830.385	26092
830.524	25925
830.663	25940
830.802	25803
830.941	25788
831.08	25594
831.219	25898
831.357	25841
831.496	25818
831.635	25597
831.774	25723
831.913	25552
832.051	25518
832.19	25479
832.329	25590
832.467	25434
832.606	25274
832.744	25217
832.883	25331
833.022	25343
833.16	25327
833.299	25506
833.437	25384
833.576	25316
833.714	25537
833.852	25365
833.991	25479
834.129	25662
834.267	25529
834.406	25362
834.544	25381
834.682	25438
834.821	25381
834.959	25540
835.097	25297
835.235	25540
835.373	25491
835.511	25407
835.65	25392
835.788	25297
835.926	25057
836.064	25183
836.202	25175
836.34	25171
836.478	25434
836.615	25190
836.753	25274
836.891	25236
837.029	25126
837.167	25152
837.305	25183
837.443	25145
837.58	25080
837.718	25133
837.856	25034
837.993	25129
838.131	25148
838.269	24920
838.406	25038
838.544	24913
838.681	24768
838.819	24696
838.956	24540
839.094	24448
839.231	24555
839.369	24696
839.506	24890
839.643	24665
839.781	24532
839.918	24536
840.055	24475
840.193	24490
840.33	24460
840.467	24532
840.604	24426
840.742	24738
840.879	24213
841.016	24448
841.153	24292
841.29	24505
841.427	24445
841.564	24525
841.701	24441
841.838	24437
841.975	24372
842.112	24342
842.249	24232
842.385	24235
842.522	24308
842.659	24342
842.796	24197
842.933	24239
843.069	24072
843.206	24011
843.343	24190
843.479	24140
843.616	24091
843.752	24060
843.889	24064
844.025	24102
844.162	23908
844.298	23935
844.435	23931
844.571	23855
844.708	24026
844.844	24098
844.98	24152
845.117	23912
845.253	23836
845.389	23916
845.525	23901
845.661	23836
845.798	23813
845.934	23805
846.07	23695
846.206	23665
846.342	23680
846.478	23710
846.614	23448
846.75	23387
846.886	23410
847.022	23474
847.158	23368
847.294	23493
847.429	23566
847.565	23345
847.701	23668
847.837	23246
847.972	23121
848.108	23254
848.244	23288
848.379	23075
848.515	23022
848.65	22961
848.786	23079
848.921	22987
849.057	23079
849.192	22946
849.328	23014
849.463	23037
849.598	22797
849.734	22949
849.869	22797
850.004	22755
850.14	22706
850.275	22847
850.41	22694
850.545	22771
850.68	22653
850.815	22904
850.95	22721
851.085	22904
851.22	22790
851.355	22850
851.49	22706
851.625	22725
851.76	22782
851.895	22713
852.03	22687
852.165	22885
852.299	22889
852.434	22733
852.569	22881
852.703	22702
852.838	22843
852.973	22877
853.107	22908
853.242	22596
853.376	22497
853.511	22466
853.645	22512
853.78	22615
853.914	22557
854.048	22481
854.183	22626
854.317	22557
854.451	22889
854.585	22550
854.72	22504
854.854	22672
854.988	22607
855.122	22634
855.256	22478
855.39	22474
855.524	22596
855.658	22592
855.792	22588
855.926	22538
856.06	22634
856.194	22679
856.327	22645
856.461	22478
856.595	22508
856.729	22580
856.862	22698
856.996	22641
857.13	22615
857.263	22702
857.397	22717
857.53	22523
857.664	22508
857.797	22596
857.931	22626
858.064	22596
858.197	22607
858.331	22542
858.464	22440
858.597	22474
858.731	22615
858.864	22424
858.997	22550
859.13	22580
859.263	22626
859.396	22653
859.529	22565
859.662	22500
859.795	22474
859.928	22717
860.061	22786
860.194	22828
860.327	22717
860.46	22637
860.592	22691
860.725	22710
860.858	22706
860.99	22645
861.123	22504
861.256	22508
861.388	22470
861.521	23288
861.653	22436
861.786	22398
861.918	22455
862.05	22474
862.183	22516
862.315	22500
862.447	22436
862.58	22405
862.712	22443
862.844	22230
862.976	22470
863.108	22337
863.24	22649
863.372	22196
863.504	22185
863.636	22341
863.768	22322
863.9	22219
864.032	22219
864.164	22173
864.296	22348
864.428	22466
864.559	22268
864.691	22405
864.823	22230
864.954	22287
865.086	22143
865.217	22139
865.349	22177
865.48	22128
865.612	22204
865.743	22314
865.875	22204
866.006	22181
866.137	22158
866.269	22112
866.4	22109
866.531	22017
866.662	21968
866.793	22040
866.924	22055
867.055	22021
867.186	21911
867.317	22086
867.448	21968
867.579	22017
867.71	22036
867.841	22067
867.972	22051
868.103	22101
868.233	22120
868.364	21998
868.495	22318
868.625	22280
868.756	22344
868.886	22242
869.017	22299
869.147	22413
869.278	22417
869.408	22261
869.539	22405
869.669	22470
869.799	22382
869.929	22508
870.06	22489
870.19	22653
870.32	22550
870.45	22710
870.58	22725
870.71	22896
870.84	22763
870.97	22683
871.1	22759
871.23	22843
871.36	22968
871.489	22877
871.619	22927
871.749	22919
871.879	22934
872.008	23010
872.138	23014
872.267	22892
872.397	22869
872.526	22736
872.656	22824
872.785	22733
872.915	22972
873.044	22892
873.173	22862
873.303	22984
873.432	23003
873.561	23136
873.69	23022
873.819	22873
873.948	22904
874.077	22953
874.206	22953
874.335	22763
874.464	23010
874.593	23193
874.722	23083
874.851	23189
874.979	23250
875.108	23181
875.237	23208
875.365	22980
875.494	23212
875.623	23246
875.751	23052
875.88	23166
876.008	23299
876.136	23273
876.265	23501
876.393	23638
876.521	23611
876.65	23684
876.778	23505
876.906	23467
877.034	23596
877.162	23455
877.29	23391
877.418	23562
877.546	23490
877.674	23558
877.802	23467
877.93	23611
878.058	23406
878.185	23315
878.313	23471
878.441	23471
878.568	23292
878.696	23501
878.824	23440
878.951	23581
879.079	23699
879.206	23767
879.333	23509
879.461	23509
879.588	23535
879.715	23741
879.842	23756
879.97	23566
880.097	23391
880.224	23258
880.351	23440
880.478	23235
880.605	23075
880.732	23406
880.859	23642
880.986	23345
881.112	23273
881.239	23178
881.366	23052
881.493	23010
881.619	22862
881.746	22816
881.872	22698
881.999	22854
882.125	22755
882.252	22927
882.378	22706
882.505	22843
882.631	22721
882.757	22561
882.883	22660
883.01	22580
883.136	22432
883.262	22310
883.388	22462
883.514	22550
883.64	22565
883.766	22478
883.892	22200
884.018	22344
884.143	22443
884.269	22588
884.395	22257
884.52	22101
884.646	22268
884.772	22074
884.897	22196
885.023	22226
885.148	22158
885.274	22333
885.399	22226
885.524	22166
885.65	22238
885.775	22177
885.9	22082
886.025	22344
886.15	22207
886.275	21903
886.4	22025
886.525	22162
886.65	22074
886.775	22036
886.9	22261
887.025	22295
887.149	22128
887.274	21895
887.399	21873
887.523	21892
887.648	21781
887.773	21972
887.897	22090
888.021	21926
888.146	21766
888.27	22017
888.395	22032
888.519	21930
888.643	21835
888.767	21895
888.891	21804
889.015	21698
889.139	21732
889.263	21732
889.387	21732
889.511	21907
889.635	21743
889.759	21698
889.883	21663
890.006	21759
890.13	21713
890.254	21663
890.377	21557
890.501	21557
890.624	21389
890.748	21496
890.871	21340
890.995	21252
891.118	21214
891.241	21443
891.364	21348
891.488	21401
891.611	21249
891.734	21329
891.857	21268
891.98	21195
892.103	21199
892.226	21222
892.349	21211
892.471	21138
892.594	21226
892.717	21093
892.839	21165
892.962	21188
893.085	21154
893.207	21039
893.33	21013
893.452	20982
893.575	21157
893.697	21062
893.819	21195
893.941	21291
894.064	21287
894.186	21093
894.308	21089
894.43	21207
894.552	21275
894.674	21146
894.796	21123
894.918	21116
895.04	21077
895.161	21214
895.283	21104
895.405	21104
895.526	21096
895.648	21081
895.769	21093
895.891	21176
896.012	21146
896.134	21150
896.255	21001
896.376	21055
896.498	21176
896.619	21161
896.74	21112
896.861	21142
896.982	21393
897.103	21629
897.224	21435
897.345	21340
897.466	21287
897.587	21237
897.708	21424
897.828	21363
897.949	21211
898.07	21192
898.19	21302
898.311	21462
898.431	21207
898.552	21252
898.672	21367
898.792	21275
898.913	21165
899.033	21100
899.153	21104
899.273	21043
899.393	21165
899.513	21055
899.633	21017
899.753	21081
899.873	20952
899.993	21074
900.113	21032
900.232	21024
900.352	21005
900.472	20845
900.591	20739
900.711	20880
900.83	20921
900.95	21005
901.069	20883
901.189	20697
901.308	20514
901.427	20305
901.546	20396
901.665	20324
901.784	20415
901.904	20271
902.023	20107
902.141	19932
902.26	19883
902.379	19913
902.498	20008
902.617	19799
902.735	19887
902.854	19849
902.973	19864
903.091	19594
903.21	19506
903.328	19537
903.446	19468
903.565	19316
903.683	19373
903.801	19213
903.919	19266
904.038	19282
904.156	19145
904.274	19209
904.392	19145
904.51	19175
904.627	19069
904.745	19061
904.863	19118
904.981	18966
905.098	18867
905.216	18783
905.334	18779
905.451	18833
905.569	18757
905.686	18764
905.803	18779
905.921	18555
906.038	18726
906.155	18582
906.272	18502
906.389	18479
906.506	18422
906.623	18353
906.74	18243
906.857	18114
906.974	18304
907.091	18327
907.208	18372
907.324	18369
907.441	18220
907.557	18034
907.674	18030
907.79	17973
907.907	17988
908.023	18045
908.139	18011
908.256	17939
908.372	17901
908.488	17817
908.604	17722
908.72	17668
908.836	17771
908.952	17630
909.068	17798
909.184	17767
909.3	17722
909.415	17714
909.531	17714
909.647	17474
909.762	17417
909.878	17353
909.993	17391
910.108	17467
910.224	17356
910.339	17356
910.454	17334
910.57	17269
910.685	17052
910.8	17417
910.915	17406
911.03	17273
911.145	16991
911.259	16984
911.374	16999
911.489	16881
911.604	16889
911.718	16607
911.833	16774
911.947	16740
912.062	16630
912.176	16729
912.291	16793
912.405	16748
912.519	16881
912.633	16801
912.748	16740
912.862	16694
912.976	16497
913.09	16390
913.204	16462
913.318	16497
913.431	16691
913.545	16622
913.659	16630
913.772	16363
913.886	16417
914	16394
914.113	16333
914.226	16284
914.34	16371
914.453	16246
914.566	16314
914.68	16268
914.793	16192
914.906	15949
915.019	15854
915.132	15899
915.245	15884
915.358	15903
915.47	15979
915.583	15888
915.696	15781
915.809	16032
915.921	16036
916.034	15751
916.146	15797
916.259	15747
916.371	15876
916.483	15869
916.595	15682
916.708	15713
916.82	15759
916.932	15694
917.044	15682
917.156	15637
917.268	15568
917.38	15477
917.491	15507
917.603	15466
917.715	15557
917.826	15625
917.938	15374
918.049	15401
918.161	15481
918.272	15549
918.384	15504
918.495	15382
918.606	15332
918.717	15218
918.828	15233
918.939	15363
919.05	15272
919.161	15176
919.272	15074
919.383	15116
919.494	15249
919.604	15412
919.715	15089
919.826	15070
919.936	15157
920.047	15317
920.157	15169
920.267	15401
920.378	15165
920.488	15138
920.598	15386
920.708	15458
920.818	15359
920.928	15321
921.038	15469
921.148	15443
921.258	15093
921.368	15119
921.477	14937
921.587	14979
921.697	14819
921.806	14914
921.916	14746
922.025	14735
922.134	14602
922.244	14541
922.353	14640
922.462	14415
922.571	14454
922.68	14199
922.789	14157
922.898	14225
923.007	14202
923.116	14317
923.224	14206
923.333	14157
923.442	14062
923.55	14046
923.659	14043
923.767	14134
923.876	14050
923.984	14035
924.092	13868
924.201	14054
924.309	13936
924.417	13852
924.525	13837
924.633	13868
924.741	14686
924.849	13674
924.956	13746
925.064	13658
925.172	13613
925.279	13544
925.387	13575
925.494	13540
925.602	13750
925.709	13689
925.816	13499
925.924	13381
926.031	13677
926.138	13544
926.245	13605
926.352	13480
926.459	13578
926.566	13495
926.673	13403
926.779	13358
926.886	13221
926.993	13156
927.099	13133
927.206	13137
927.312	13072
927.419	13091
927.525	13175
927.631	13183
927.737	12993
927.843	12966
927.95	12947
928.056	12951
928.162	12894
928.267	13053
928.373	13571
928.479	13012
928.585	12703
928.69	12890
928.796	12875
928.901	12776
929.007	12639
929.112	12825
929.218	12753
929.323	12658
929.428	12658
929.533	12741
929.638	12635
929.743	12585
929.848	12597
929.953	12616
930.058	12456
930.163	12273
930.267	12445
930.372	12437
930.477	12410
930.581	12479
930.685	12403
930.79	12201
930.894	12182
930.998	12213
931.103	12254
931.207	11935
931.311	11916
931.415	11733
931.519	11577
931.623	11570
