Data from test_V78500241_1716.txt Node
Date: Fri Mar 25 15:53:41 CST 2022
User: usil
Spectrometer: V785-0024
Trigger mode: 0
Integration Time (sec): 4.000000E-1
Scans to average: 1
Nonlinearity correction enabled: false
Boxcar width: 0
Storing dark spectrum: false
XAxis mode: Wavelengths
Number of Pixels in Spectrum: 1024
>>>>>Begin Spectral Data<<<<<
801.071	28124
801.214	28154
801.356	28006
801.499	27907
801.641	27827
801.783	27785
801.926	27850
802.068	27880
802.211	27675
802.353	27561
802.496	27435
802.638	27530
802.78	27336
802.923	27431
803.065	27435
803.208	27420
803.35	27485
803.492	27694
803.635	27705
803.777	27606
803.919	27759
804.061	28070
804.204	27679
804.346	27637
804.488	27682
804.63	27747
804.773	27694
804.915	27774
805.057	27876
805.199	27610
805.341	27770
805.483	27831
805.626	27953
805.768	27835
805.91	27808
806.052	27865
806.194	27747
806.336	27987
806.478	27812
806.62	27831
806.762	27895
806.904	28101
807.046	28405
807.188	28253
807.33	28322
807.472	28284
807.614	28246
807.756	28211
807.898	28036
808.04	28044
808.182	28101
808.324	28166
808.465	28128
808.607	28535
808.749	28519
808.891	28664
809.033	28694
809.174	28455
809.316	28447
809.458	28554
809.6	28481
809.741	28603
809.883	28626
810.025	28736
810.166	28736
810.308	28710
810.45	28797
810.591	28702
810.733	28512
810.875	28478
811.016	28379
811.158	28390
811.299	28577
811.441	28729
811.582	28774
811.724	28577
811.865	28367
812.007	28557
812.148	28538
812.29	28447
812.431	28664
812.573	28816
812.714	28881
812.855	29044
812.997	29102
813.138	29140
813.279	29239
813.421	29079
813.562	29029
813.703	28740
813.845	28683
813.986	28436
814.127	28325
814.268	28204
814.41	28246
814.551	28116
814.692	28238
814.833	28173
814.974	28207
815.115	28219
815.256	27964
815.397	27998
815.539	28017
815.68	27987
815.821	27899
815.962	27838
816.103	27937
816.244	27934
816.385	27804
816.526	27842
816.666	27572
816.807	27473
816.948	27587
817.089	27557
817.23	27576
817.371	27515
817.512	27507
817.653	27504
817.793	27401
817.934	27485
818.075	27386
818.216	27454
818.356	27477
818.497	27378
818.638	27245
818.778	27184
818.919	27230
819.06	27329
819.2	27378
819.341	27462
819.481	27530
819.622	27667
819.762	27914
819.903	27770
820.043	27564
820.184	27606
820.324	27663
820.465	27641
820.605	27614
820.746	27679
820.886	27496
821.026	27545
821.167	27435
821.307	27671
821.447	27641
821.588	27397
821.728	27298
821.868	27028
822.008	27001
822.149	26925
822.289	26971
822.429	26609
822.569	26590
822.709	26495
822.849	26492
822.99	26434
823.13	26408
823.27	26488
823.41	26252
823.55	26122
823.69	26298
823.83	26278
823.97	26419
824.11	26157
824.25	26157
824.389	26145
824.529	26259
824.669	26088
824.809	26313
824.949	26149
825.089	26050
825.228	26164
825.368	25940
825.508	25978
825.648	25902
825.787	26050
825.927	26062
826.067	25921
826.206	26001
826.346	25989
826.485	26054
826.625	25997
826.765	25993
826.904	26077
827.044	25925
827.183	25788
827.323	25753
827.462	25559
827.601	25609
827.741	25651
827.88	25655
828.02	25624
828.159	25559
828.298	25609
828.437	25780
828.577	25575
828.716	25772
828.855	25571
828.994	25419
829.134	25400
829.273	25518
829.412	25369
829.551	25308
829.69	25384
829.829	25472
829.968	25407
830.107	25472
830.246	25354
830.385	25278
830.524	25346
830.663	25198
830.802	25164
830.941	25004
831.08	25004
831.219	25080
831.357	25038
831.496	25221
831.635	24909
831.774	24951
831.913	24787
832.051	24795
832.19	24776
832.329	24814
832.467	24642
832.606	24654
832.744	24715
832.883	24677
833.022	24589
833.16	24646
833.299	24783
833.437	24688
833.576	24707
833.714	24654
833.852	24852
833.991	24738
834.129	24867
834.267	24783
834.406	24787
834.544	24608
834.682	24768
834.821	24692
834.959	24867
835.097	24711
835.235	24741
835.373	24703
835.511	24764
835.65	24593
835.788	24654
835.926	24467
836.064	24513
836.202	24350
836.34	24555
836.478	24563
836.615	24669
836.753	24551
836.891	24547
837.029	24593
837.167	24448
837.305	24410
837.443	24460
837.58	24464
837.718	24566
837.856	24448
837.993	24353
838.131	24251
838.269	24197
838.406	24216
838.544	24243
838.681	23980
838.819	23935
838.956	23802
839.094	23939
839.231	23855
839.369	23973
839.506	24292
839.643	24087
839.781	23840
839.918	23703
840.055	23836
840.193	23764
840.33	23771
840.467	23847
840.604	23783
840.742	24053
840.879	23581
841.016	23710
841.153	23604
841.29	23859
841.427	23646
841.564	23828
841.701	23676
841.838	23764
841.975	23566
842.112	23668
842.249	23634
842.385	23535
842.522	23726
842.659	23684
842.796	23467
842.933	23455
843.069	23414
843.206	23520
843.343	23558
843.479	23512
843.616	23642
843.752	23307
843.889	23349
844.025	23478
844.162	23220
844.298	23387
844.435	23334
844.571	23204
844.708	23360
844.844	23486
844.98	23368
845.117	23292
845.253	23200
845.389	23117
845.525	23200
845.661	23041
845.798	22987
845.934	23098
846.07	22942
846.206	23151
846.342	23246
846.478	22934
846.614	22835
846.75	22702
846.886	22721
847.022	22843
847.158	22668
847.294	22866
847.429	22869
847.565	22653
847.701	22930
847.837	22538
847.972	22325
848.108	22523
848.244	22577
848.379	22459
848.515	22352
848.65	22200
848.786	22295
848.921	22268
849.057	22386
849.192	22466
849.328	22379
849.463	22367
849.598	22367
849.734	22131
849.869	22333
850.004	22131
850.14	22154
850.275	22124
850.41	21960
850.545	21972
850.68	22055
850.815	22048
850.95	22025
851.085	22284
851.22	22204
851.355	22074
851.49	22059
851.625	22059
851.76	22097
851.895	22067
852.03	22067
852.165	22135
852.299	22226
852.434	22169
852.569	22109
852.703	22120
852.838	22078
852.973	22261
853.107	22318
853.242	22074
853.376	22032
853.511	21812
853.645	21888
853.78	22059
853.914	21994
854.048	21918
854.183	21835
854.317	21979
854.451	22131
854.585	21911
854.72	21918
854.854	21873
854.988	22006
855.122	21903
855.256	21812
855.39	21827
855.524	22010
855.658	21960
855.792	21968
855.926	21907
856.06	22093
856.194	21899
856.327	21956
856.461	21945
856.595	21857
856.729	21888
856.862	22017
856.996	21888
857.13	22017
857.263	22090
857.397	22017
857.53	22006
857.664	21975
857.797	21975
857.931	21949
858.064	22017
858.197	22063
858.331	21998
858.464	21850
858.597	21926
858.731	21846
858.864	21907
858.997	21819
859.13	21937
859.263	21831
859.396	22055
859.529	21895
859.662	21766
859.795	21854
859.928	21960
860.061	22166
860.194	22226
860.327	22017
860.46	21854
860.592	22101
860.725	22158
860.858	21945
860.99	22036
861.123	21800
861.256	21812
861.388	21937
861.521	22538
861.653	21838
861.786	21831
861.918	21724
862.05	21846
862.183	21880
862.315	21915
862.447	21926
862.58	21869
862.712	21698
862.844	21648
862.976	21774
863.108	21705
863.24	22021
863.372	21675
863.504	21595
863.636	21667
863.768	21644
863.9	21629
864.032	21610
864.164	21705
864.296	21587
864.428	21797
864.559	21690
864.691	21519
864.823	21610
864.954	21652
865.086	21595
865.217	21526
865.349	21485
865.48	21580
865.612	21424
865.743	21606
865.875	21496
866.006	21435
866.137	21447
866.269	21435
866.4	21561
866.531	21488
866.662	21363
866.793	21405
866.924	21492
867.055	21557
867.186	21515
867.317	21492
867.448	21291
867.579	21382
867.71	21488
867.841	21291
867.972	21504
868.103	21431
868.233	21488
868.364	21447
868.495	21663
868.625	21781
868.756	21793
868.886	21534
869.017	21724
869.147	21755
869.278	21778
869.408	21633
869.539	21667
869.669	21781
869.799	21679
869.929	21800
870.06	21705
870.19	22070
870.32	21937
870.45	22025
870.58	22105
870.71	22207
870.84	22067
870.97	22109
871.1	22177
871.23	22166
871.36	22166
871.489	22059
871.619	22363
871.749	22249
871.879	22261
872.008	22390
872.138	22322
872.267	22299
872.397	22139
872.526	22067
872.656	22082
872.785	22147
872.915	22295
873.044	22390
873.173	22382
873.303	22333
873.432	22360
873.561	22386
873.69	22211
873.819	22181
873.948	22386
874.077	22341
874.206	22173
874.335	22356
874.464	22417
874.593	22618
874.722	22489
874.851	22618
874.979	22656
875.108	22607
875.237	22443
875.365	22542
875.494	22474
875.623	22683
875.751	22512
875.88	22500
876.008	22649
876.136	22782
876.265	22847
876.393	23128
876.521	22965
876.65	23014
876.778	22961
876.906	22824
877.034	22809
877.162	22896
877.29	22793
877.418	22889
877.546	22987
877.674	22892
877.802	22767
877.93	22919
878.058	22805
878.185	22706
878.313	22809
878.441	22949
878.568	22752
878.696	22740
878.824	22930
878.951	22877
879.079	22999
879.206	23022
879.333	23235
879.461	22900
879.588	22946
879.715	23044
879.842	23185
879.97	23079
880.097	22615
880.224	22733
880.351	22744
880.478	22755
880.605	22706
880.732	22561
880.859	22862
880.986	22801
881.112	22717
881.239	22622
881.366	22470
881.493	22382
881.619	22196
881.746	22344
881.872	22348
881.999	22185
882.125	22280
882.252	22234
882.378	22200
882.505	22280
882.631	22150
882.757	22010
882.883	22059
883.01	22055
883.136	21880
883.262	21873
883.388	21739
883.514	21869
883.64	22010
883.766	21835
883.892	21644
884.018	21698
884.143	21991
884.269	22048
884.395	21698
884.52	21492
884.646	21671
884.772	21481
884.897	21526
885.023	21629
885.148	21682
885.274	21732
885.399	21587
885.524	21534
885.65	21530
885.775	21507
885.9	21519
886.025	21656
886.15	21648
886.275	21568
886.4	21408
886.525	21583
886.65	21580
886.775	21428
886.9	21724
887.025	21732
887.149	21549
887.274	21473
887.399	21458
887.523	21348
887.648	21279
887.773	21245
887.897	21466
888.021	21245
888.146	21348
888.27	21420
888.395	21507
888.519	21393
888.643	21382
888.767	21443
888.891	21241
889.015	21256
889.139	21279
889.263	21138
889.387	21256
889.511	21218
889.635	21252
889.759	21138
889.883	21058
890.006	21165
890.13	21154
890.254	20982
890.377	21135
890.501	20899
890.624	20849
890.748	20880
890.871	20880
890.995	20727
891.118	20765
891.241	20708
891.364	20727
891.488	20952
891.611	20765
891.734	20735
891.857	20758
891.98	20773
892.103	20731
892.226	20625
892.349	20689
892.471	20492
892.594	20560
892.717	20609
892.839	20594
892.962	20640
893.085	20674
893.207	20473
893.33	20556
893.452	20473
893.575	20625
893.697	20575
893.819	20746
893.941	20823
894.064	20705
894.186	20488
894.308	20587
894.43	20651
894.552	20621
894.674	20800
894.796	20522
894.918	20511
895.04	20560
895.161	20674
895.283	20579
895.405	20537
895.526	20644
895.648	20495
895.769	20568
895.891	20697
896.012	20617
896.134	20617
896.255	20686
896.376	20450
896.498	20621
896.619	20686
896.74	20571
896.861	20651
896.982	20979
897.103	21077
897.224	20796
897.345	20883
897.466	20830
897.587	20819
897.708	20853
897.828	20796
897.949	20765
898.07	20659
898.19	20682
898.311	20868
898.431	20758
898.552	20830
898.672	20891
898.792	20845
898.913	20864
899.033	20667
899.153	20670
899.273	20400
899.393	20598
899.513	20499
899.633	20526
899.753	20594
899.873	20476
899.993	20518
900.113	20393
900.232	20503
900.352	20488
900.472	20431
900.591	20309
900.711	20339
900.83	20305
900.95	20488
901.069	20336
901.189	20240
901.308	20039
901.427	19791
901.546	19875
901.665	19902
901.784	19951
901.904	19811
902.023	19738
902.141	19472
902.26	19434
902.379	19525
902.498	19487
902.617	19350
902.735	19449
902.854	19350
902.973	19354
903.091	19053
903.21	19095
903.328	19114
903.446	18977
903.565	18943
903.683	18722
903.801	18715
903.919	18753
904.038	18772
904.156	18563
904.274	18814
904.392	18563
904.51	18509
904.627	18627
904.745	18612
904.863	18749
904.981	18403
905.098	18232
905.216	18300
905.334	18330
905.451	18319
905.569	18201
905.686	18308
905.803	18311
905.921	18022
906.038	18091
906.155	18201
906.272	18030
906.389	17980
906.506	17897
906.623	17802
906.74	17866
906.857	17687
906.974	17684
907.091	17935
907.208	17980
907.324	17870
907.441	17733
907.557	17512
907.674	17528
907.79	17391
907.907	17615
908.023	17570
908.139	17471
908.256	17505
908.372	17417
908.488	17414
908.604	17227
908.72	17197
908.836	17246
908.952	17220
909.068	17239
909.184	17364
909.3	17242
909.415	17246
909.531	17200
909.647	16934
909.762	16957
909.878	16889
909.993	16942
910.108	16850
910.224	16877
910.339	16896
910.454	16824
910.57	16729
910.685	16675
910.8	16942
910.915	16968
911.03	16778
911.145	16531
911.259	16580
911.374	16577
911.489	16474
911.604	16344
911.718	16314
911.833	16394
911.947	16223
912.062	16078
912.176	16360
912.291	16284
912.405	16249
912.519	16424
912.633	16402
912.748	16306
912.862	16318
912.976	16131
913.09	16078
913.204	16086
913.318	16044
913.431	16242
913.545	16135
913.659	16105
913.772	16013
913.886	15880
914	15812
914.113	15930
914.226	15968
914.34	16017
914.453	15663
914.566	15899
914.68	15728
914.793	15656
914.906	15572
915.019	15557
915.132	15416
915.245	15469
915.358	15557
915.47	15519
915.583	15481
915.696	15439
915.809	15625
915.921	15618
916.034	15367
916.146	15374
916.259	15340
916.371	15447
916.483	15462
916.595	15401
916.708	15382
916.82	15306
916.932	15226
917.044	15260
917.156	15249
917.268	15104
917.38	15116
917.491	15192
917.603	15097
917.715	15203
917.826	15321
917.938	14975
918.049	14944
918.161	15047
918.272	15256
918.384	15165
918.495	15112
918.606	14872
918.717	14849
918.828	14887
918.939	14853
919.05	14765
919.161	14895
919.272	14754
919.383	14724
919.494	14918
919.604	15009
919.715	14880
919.826	14762
919.936	14807
920.047	14952
920.157	14849
920.267	15020
920.378	14773
920.488	14918
920.598	14880
920.708	15199
920.818	14956
920.928	14906
921.038	15093
921.148	15097
921.258	14773
921.368	14754
921.477	14625
921.587	14598
921.697	14351
921.806	14644
921.916	14400
922.025	14347
922.134	14233
922.244	14138
922.353	14263
922.462	14092
922.571	13993
922.68	13845
922.789	13811
922.898	13818
923.007	13731
923.116	13970
923.224	13750
923.333	13856
923.442	13677
923.55	13715
923.659	13696
923.767	13765
923.876	13666
923.984	13616
924.092	13514
924.201	13586
924.309	13655
924.417	13685
924.525	13476
924.633	13491
924.741	14263
924.849	13335
924.956	13495
925.064	13259
925.172	13259
925.279	13247
925.387	13247
925.494	13240
925.602	13377
925.709	13301
925.816	13164
925.924	13118
926.031	13263
926.138	13164
926.245	13141
926.352	13091
926.459	13206
926.566	13339
926.673	13149
926.779	12996
926.886	12970
926.993	12795
927.099	12829
927.206	12757
927.312	12764
927.419	12768
927.525	12829
927.631	12852
927.737	12700
927.843	12677
927.95	12585
928.056	12578
928.162	12608
928.267	12669
928.373	13232
928.479	12597
928.585	12513
928.69	12566
928.796	12589
928.901	12475
929.007	12372
929.112	12521
929.218	12452
929.323	12365
929.428	12327
929.533	12467
929.638	12251
929.743	12254
929.848	12365
929.953	12330
930.058	12205
930.163	11908
930.267	11980
930.372	12148
930.477	11950
930.581	12186
930.685	11992
930.79	11935
930.894	12015
930.998	11889
931.103	11977
931.207	11668
931.311	11604
931.415	11478
931.519	11296
931.623	11189
