Data from test_V78500241_1603.txt Node
Date: Fri Mar 25 15:52:54 CST 2022
User: usil
Spectrometer: V785-0024
Trigger mode: 0
Integration Time (sec): 4.000000E-1
Scans to average: 1
Nonlinearity correction enabled: false
Boxcar width: 0
Storing dark spectrum: false
XAxis mode: Wavelengths
Number of Pixels in Spectrum: 1024
>>>>>Begin Spectral Data<<<<<
801.071	27755
801.214	27808
801.356	27557
801.499	27507
801.641	27336
801.783	27389
801.926	27382
802.068	27367
802.211	27313
802.353	27268
802.496	27077
802.638	27081
802.78	27070
802.923	27013
803.065	26940
803.208	26975
803.35	26940
803.492	27207
803.635	27241
803.777	27138
803.919	27378
804.061	27614
804.204	27382
804.346	27264
804.488	27150
804.63	27211
804.773	27252
804.915	27249
805.057	27351
805.199	27233
805.341	27302
805.483	27431
805.626	27500
805.768	27264
805.91	27443
806.052	27519
806.194	27348
806.336	27549
806.478	27496
806.62	27382
806.762	27412
806.904	27519
807.046	27956
807.188	27694
807.33	27907
807.472	27911
807.614	27660
807.756	27717
807.898	27781
808.04	27736
808.182	27603
808.324	27857
808.465	27804
808.607	27930
808.749	28010
808.891	28109
809.033	28211
809.174	28006
809.316	27880
809.458	27991
809.6	27911
809.741	28200
809.883	28177
810.025	28268
810.166	28341
810.308	28394
810.45	28253
810.591	28249
810.733	27979
810.875	28109
811.016	27861
811.158	27895
811.299	28074
811.441	28131
811.582	28223
811.724	27964
811.865	28006
812.007	27827
812.148	28120
812.29	28040
812.431	28219
812.573	28299
812.714	28485
812.855	28531
812.997	28504
813.138	28733
813.279	28622
813.421	28527
813.562	28485
813.703	28329
813.845	28196
813.986	28093
814.127	27819
814.268	27903
814.41	27800
814.551	27705
814.692	27717
814.833	27709
814.974	27728
815.115	27587
815.256	27561
815.397	27439
815.539	27576
815.68	27534
815.821	27275
815.962	27466
816.103	27306
816.244	27355
816.385	27359
816.526	27268
816.666	27256
816.807	26929
816.948	27005
817.089	27157
817.23	27032
817.371	26933
817.512	26960
817.653	26883
817.793	26929
817.934	26891
818.075	26929
818.216	27089
818.356	26940
818.497	26910
818.638	26804
818.778	26815
818.919	26781
819.06	26674
819.2	26880
819.341	27005
819.481	26979
819.622	27085
819.762	27291
819.903	27359
820.043	27203
820.184	27055
820.324	27017
820.465	27135
820.605	27104
820.746	27047
820.886	26716
821.026	27211
821.167	26990
821.307	27085
821.447	27051
821.588	26876
821.728	26796
821.868	26708
822.008	26583
822.149	26488
822.289	26499
822.429	26225
822.569	26073
822.709	26221
822.849	25841
822.99	26084
823.13	25928
823.27	25902
823.41	25715
823.55	25712
823.69	25913
823.83	25761
823.97	25757
824.11	25727
824.25	25590
824.389	25616
824.529	25727
824.669	25689
824.809	25666
824.949	25715
825.089	25784
825.228	25624
825.368	25506
825.508	25613
825.648	25468
825.787	25540
825.927	25476
826.067	25476
826.206	25441
826.346	25339
826.485	25491
826.625	25396
826.765	25628
826.904	25449
827.044	25198
827.183	25228
827.323	25278
827.462	25240
827.601	25129
827.741	25179
827.88	25076
828.02	25225
828.159	25114
828.298	25152
828.437	25270
828.577	25072
828.716	25278
828.855	24939
828.994	24996
829.134	24859
829.273	24886
829.412	24916
829.551	24821
829.69	24852
829.829	24939
829.968	25004
830.107	24943
830.246	24954
830.385	24913
830.524	24863
830.663	24642
830.802	24677
830.941	24540
831.08	24563
831.219	24582
831.357	24578
831.496	24882
831.635	24525
831.774	24464
831.913	24308
832.051	24311
832.19	24251
832.329	24380
832.467	24353
832.606	24155
832.744	24224
832.883	24129
833.022	24072
833.16	24117
833.299	24270
833.437	24201
833.576	24281
833.714	24228
833.852	24315
833.991	24304
834.129	24315
834.267	24239
834.406	24243
834.544	24205
834.682	24273
834.821	24087
834.959	24429
835.097	24174
835.235	24296
835.373	24194
835.511	24140
835.65	24171
835.788	24076
835.926	23969
836.064	23969
836.202	23866
836.34	24022
836.478	24239
836.615	24060
836.753	24087
836.891	24110
837.029	24121
837.167	24003
837.305	23908
837.443	23973
837.58	23950
837.718	24034
837.856	23897
837.993	23824
838.131	23859
838.269	23817
838.406	23939
838.544	23585
838.681	23634
838.819	23509
838.956	23360
839.094	23353
839.231	23459
839.369	23493
839.506	23832
839.643	23676
839.781	23326
839.918	23360
840.055	23254
840.193	23318
840.33	23299
840.467	23376
840.604	23269
840.742	23619
840.879	23212
841.016	23235
841.153	23067
841.29	23318
841.427	23166
841.564	23337
841.701	23239
841.838	23315
841.975	23098
842.112	23121
842.249	23075
842.385	22987
842.522	23311
842.659	23090
842.796	23033
842.933	23178
843.069	23090
843.206	23022
843.343	23102
843.479	23025
843.616	22919
843.752	22820
843.889	22904
844.025	23006
844.162	22763
844.298	22892
844.435	22896
844.571	22816
844.708	22866
844.844	22987
844.98	22953
845.117	22938
845.253	22786
845.389	22782
845.525	22694
845.661	22649
845.798	22478
845.934	22512
846.07	22512
846.206	22523
846.342	22748
846.478	22565
846.614	22409
846.75	22272
846.886	22230
847.022	22363
847.158	22333
847.294	22090
847.429	22284
847.565	22219
847.701	22504
847.837	22017
847.972	21998
848.108	22090
848.244	22055
848.379	21972
848.515	21888
848.65	21831
848.786	21850
848.921	21808
849.057	22017
849.192	21964
849.328	21778
849.463	21816
849.598	21842
849.734	21781
849.869	21587
850.004	21819
850.14	21633
850.275	21656
850.41	21614
850.545	21603
850.68	21618
850.815	21500
850.95	21644
851.085	21766
851.22	21717
851.355	21656
851.49	21595
851.625	21553
851.76	21717
851.895	21580
852.03	21545
852.165	21603
852.299	21682
852.434	21690
852.569	21671
852.703	21713
852.838	21736
852.973	21838
853.107	21656
853.242	21572
853.376	21454
853.511	21363
853.645	21477
853.78	21428
853.914	21439
854.048	21496
854.183	21431
854.317	21580
854.451	21557
854.585	21466
854.72	21538
854.854	21428
854.988	21420
855.122	21469
855.256	21279
855.39	21439
855.524	21568
855.658	21500
855.792	21485
855.926	21523
856.06	21462
856.194	21504
856.327	21545
856.461	21447
856.595	21412
856.729	21447
856.862	21580
856.996	21496
857.13	21557
857.263	21545
857.397	21530
857.53	21458
857.664	21473
857.797	21595
857.931	21530
858.064	21408
858.197	21488
858.331	21500
858.464	21382
858.597	21329
858.731	21397
858.864	21496
858.997	21378
859.13	21370
859.263	21389
859.396	21443
859.529	21504
859.662	21401
859.795	21443
859.928	21526
860.061	21663
860.194	21641
860.327	21424
860.46	21469
860.592	21679
860.725	21637
860.858	21545
860.99	21397
861.123	21557
861.256	21382
861.388	21439
861.521	22074
861.653	21241
861.786	21222
861.918	21222
862.05	21302
862.183	21374
862.315	21287
862.447	21473
862.58	21408
862.712	21146
862.844	21173
862.976	21249
863.108	21252
863.24	21534
863.372	21096
863.504	21256
863.636	21116
863.768	21256
863.9	21066
864.032	21150
864.164	21154
864.296	21161
864.428	21157
864.559	21230
864.691	21169
864.823	21249
864.954	21222
865.086	21104
865.217	21039
865.349	20914
865.48	21032
865.612	21138
865.743	21169
865.875	21001
866.006	20967
866.137	21119
866.269	20994
866.4	21142
866.531	20887
866.662	20944
866.793	20982
866.924	20929
867.055	20948
867.186	21047
867.317	21005
867.448	20883
867.579	21001
867.71	20785
867.841	20895
867.972	20971
868.103	20857
868.233	20994
868.364	21074
868.495	21116
868.625	21260
868.756	21302
868.886	21211
869.017	21192
869.147	21230
869.278	21359
869.408	21256
869.539	21298
869.669	21268
869.799	21275
869.929	21351
870.06	21340
870.19	21542
870.32	21496
870.45	21743
870.58	21595
870.71	21690
870.84	21660
870.97	21637
871.1	21599
871.23	21816
871.36	21800
871.489	21755
871.619	21835
871.749	21751
871.879	21762
872.008	21956
872.138	21800
872.267	21827
872.397	21785
872.526	21682
872.656	21717
872.785	21728
872.915	21915
873.044	21850
873.173	21766
873.303	21854
873.432	21903
873.561	22025
873.69	21797
873.819	21873
873.948	21857
874.077	21934
874.206	21831
874.335	21873
874.464	21956
874.593	22169
874.722	21983
874.851	22059
874.979	22044
875.108	22139
875.237	22048
875.365	21968
875.494	22010
875.623	22215
875.751	22082
875.88	22192
876.008	22211
876.136	22379
876.265	22512
876.393	22516
876.521	22538
876.65	22542
876.778	22421
876.906	22470
877.034	22386
877.162	22489
877.29	22474
877.418	22546
877.546	22462
877.674	22519
877.802	22455
877.93	22306
878.058	22287
878.185	22390
878.313	22432
878.441	22356
878.568	22276
878.696	22348
878.824	22447
878.951	22455
879.079	22497
879.206	22736
879.333	22550
879.461	22333
879.588	22485
879.715	22672
879.842	22683
879.97	22519
880.097	22291
880.224	22166
880.351	22291
880.478	22196
880.605	22017
880.732	22196
880.859	22481
880.986	22356
881.112	22310
881.239	22116
881.366	21979
881.493	21842
881.619	21804
881.746	21857
881.872	21778
881.999	21774
882.125	21629
882.252	21797
882.378	21785
882.505	21850
882.631	21713
882.757	21481
882.883	21481
883.01	21561
883.136	21496
883.262	21344
883.388	21294
883.514	21500
883.64	21603
883.766	21488
883.892	21291
884.018	21256
884.143	21370
884.269	21492
884.395	21245
884.52	21127
884.646	21180
884.772	21161
884.897	21043
885.023	21173
885.148	21260
885.274	21127
885.399	21260
885.524	21192
885.65	21195
885.775	21203
885.9	21169
886.025	21222
886.15	21138
886.275	20960
886.4	20952
886.525	21036
886.65	21127
886.775	21127
886.9	21207
887.025	21401
887.149	21081
887.274	20982
887.399	20925
887.523	20868
887.648	20895
887.773	20754
887.897	20967
888.021	21024
888.146	20883
888.27	21055
888.395	20982
888.519	20899
888.643	21020
888.767	20876
888.891	20765
889.015	20750
889.139	20842
889.263	20720
889.387	20773
889.511	20906
889.635	20815
889.759	20568
889.883	20785
890.006	20629
890.13	20739
890.254	20735
890.377	20609
890.501	20465
890.624	20492
890.748	20431
890.871	20412
890.995	20237
891.118	20206
891.241	20263
891.364	20393
891.488	20507
891.611	20229
891.734	20263
891.857	20366
891.98	20366
892.103	20202
892.226	20301
892.349	20324
892.471	20065
892.594	20248
892.717	20362
892.839	20233
892.962	20206
893.085	20290
893.207	20195
893.33	20138
893.452	20084
893.575	20107
893.697	20225
893.819	20381
893.941	20415
894.064	20339
894.186	20225
894.308	20088
894.43	20218
894.552	20351
894.674	20187
894.796	20126
894.918	20244
895.04	20157
895.161	20415
895.283	20218
895.405	20180
895.526	20149
895.648	20046
895.769	20176
895.891	20320
896.012	20313
896.134	20210
896.255	20317
896.376	20210
896.498	20092
896.619	20263
896.74	20263
896.861	20210
896.982	20454
897.103	20701
897.224	20450
897.345	20495
897.466	20358
897.587	20427
897.708	20575
897.828	20431
897.949	20389
898.07	20256
898.19	20278
898.311	20476
898.431	20355
898.552	20339
898.672	20511
898.792	20541
898.913	20396
899.033	20317
899.153	20119
899.273	20138
899.393	20092
899.513	20210
899.633	20157
899.753	20221
899.873	20111
899.993	20305
900.113	20084
900.232	20119
900.352	20069
900.472	20012
900.591	19906
900.711	20005
900.83	19951
900.95	20043
901.069	19986
901.189	19963
901.308	19772
901.427	19533
901.546	19540
901.665	19559
901.784	19594
901.904	19354
902.023	19266
902.141	19042
902.26	19019
902.379	19160
902.498	19080
902.617	18943
902.735	19110
902.854	19110
902.973	18878
903.091	18730
903.21	18726
903.328	18677
903.446	18559
903.565	18517
903.683	18616
903.801	18399
903.919	18521
904.038	18433
904.156	18281
904.274	18433
904.392	18148
904.51	18167
904.627	18254
904.745	18308
904.863	18410
904.981	18015
905.098	17863
905.216	17878
905.334	17840
905.451	17885
905.569	17927
905.686	18060
905.803	17939
905.921	17733
906.038	17748
906.155	17798
906.272	17691
906.389	17718
906.506	17482
906.623	17463
906.74	17406
906.857	17345
906.974	17410
907.091	17611
907.208	17615
907.324	17493
907.441	17345
907.557	17185
907.674	17109
907.79	17204
907.907	17151
908.023	17166
908.139	17208
908.256	17140
908.372	16984
908.488	16995
908.604	16927
908.72	16923
908.836	16938
908.952	16892
909.068	16904
909.184	17029
909.3	16847
909.415	16930
909.531	16869
909.647	16565
909.762	16656
909.878	16626
909.993	16592
910.108	16618
910.224	16546
910.339	16489
910.454	16451
910.57	16440
910.685	16310
910.8	16618
910.915	16580
911.03	16409
911.145	16287
911.259	16303
911.374	16109
911.489	16246
911.604	16067
911.718	16017
911.833	16025
911.947	15941
912.062	15781
912.176	15949
912.291	15941
912.405	15987
912.519	16169
912.633	16150
912.748	15930
912.862	15895
912.976	15759
913.09	15701
913.204	15812
913.318	15781
913.431	15899
913.545	15785
913.659	15903
913.772	15713
913.886	15637
914	15572
914.113	15614
914.226	15675
914.34	15622
914.453	15469
914.566	15633
914.68	15492
914.793	15477
914.906	15142
915.019	15123
915.132	15199
915.245	15195
915.358	15192
915.47	15195
915.583	15180
915.696	15188
915.809	15249
915.921	15329
916.034	15135
916.146	15097
916.259	15047
916.371	15150
916.483	15070
916.595	14918
916.708	15013
916.82	14975
916.932	14864
917.044	14986
917.156	15024
917.268	14800
917.38	14883
917.491	14792
917.603	14811
917.715	14861
917.826	14826
917.938	14792
918.049	14705
918.161	14788
918.272	14864
918.384	14967
918.495	14716
918.606	14598
918.717	14400
918.828	14644
918.939	14659
919.05	14495
919.161	14541
919.272	14473
919.383	14419
919.494	14632
919.604	14849
919.715	14564
919.826	14495
919.936	14454
920.047	14613
920.157	14556
920.267	14670
920.378	14556
920.488	14518
920.598	14617
920.708	14834
920.818	14617
920.928	14602
921.038	14834
921.148	14796
921.258	14461
921.368	14465
921.477	14237
921.587	14309
921.697	14180
921.806	14252
921.916	14206
922.025	13982
922.134	13852
922.244	13822
922.353	13925
922.462	13875
922.571	13761
922.68	13578
922.789	13597
922.898	13601
923.007	13582
923.116	13590
923.224	13548
923.333	13460
923.442	13445
923.55	13335
923.659	13358
923.767	13430
923.876	13358
923.984	13426
924.092	13301
924.201	13285
924.309	13331
924.417	13316
924.525	13198
924.633	13190
924.741	14180
924.849	13046
924.956	13110
925.064	13004
925.172	12924
925.279	12932
925.387	12993
925.494	12954
925.602	13118
925.709	13061
925.816	12913
925.924	12875
926.031	12958
926.138	12928
926.245	12993
926.352	12833
926.459	12985
926.566	12970
926.673	12829
926.779	12703
926.886	12703
926.993	12574
927.099	12544
927.206	12433
927.312	12559
927.419	12616
927.525	12532
927.631	12509
927.737	12395
927.843	12422
927.95	12308
928.056	12407
928.162	12479
928.267	12429
928.373	12966
928.479	12422
928.585	12232
928.69	12330
928.796	12357
928.901	12228
929.007	12106
929.112	12247
929.218	12167
929.323	12121
929.428	12057
929.533	12251
929.638	12049
929.743	12041
929.848	12091
929.953	12159
930.058	11988
930.163	11805
930.267	11824
930.372	11927
930.477	11748
930.581	11908
930.685	11779
930.79	11615
930.894	11699
930.998	11627
931.103	11764
931.207	11478
931.311	11318
931.415	11322
931.519	11083
931.623	11003
