Data from test_V78500241_2777.txt Node
Date: Fri Mar 25 16:01:02 CST 2022
User: usil
Spectrometer: V785-0024
Trigger mode: 0
Integration Time (sec): 4.000000E-1
Scans to average: 1
Nonlinearity correction enabled: false
Boxcar width: 0
Storing dark spectrum: false
XAxis mode: Wavelengths
Number of Pixels in Spectrum: 1024
>>>>>Begin Spectral Data<<<<<
801.071	29174
801.214	29185
801.356	28919
801.499	28847
801.641	28790
801.783	28653
801.926	28725
802.068	28759
802.211	28679
802.353	28683
802.496	28561
802.638	28523
802.78	28398
802.923	28440
803.065	28280
803.208	28455
803.35	28489
803.492	28660
803.635	28744
803.777	28542
803.919	28736
804.061	29140
804.204	28965
804.346	28710
804.488	28710
804.63	28820
804.773	28683
804.915	28744
805.057	28953
805.199	28656
805.341	28923
805.483	29064
805.626	28980
805.768	28923
805.91	28972
806.052	28968
806.194	28919
806.336	29060
806.478	29003
806.62	29044
806.762	29132
806.904	29250
807.046	29459
807.188	29360
807.33	29364
807.472	29433
807.614	29414
807.756	29448
807.898	29326
808.04	29178
808.182	29254
808.324	29349
808.465	29315
808.607	29406
808.749	29684
808.891	29748
809.033	29840
809.174	29745
809.316	29684
809.458	29760
809.6	29615
809.741	29665
809.883	29866
810.025	29901
810.166	29908
810.308	29889
810.45	29817
810.591	29790
810.733	29729
810.875	29657
811.016	29699
811.158	29661
811.299	29718
811.441	29912
811.582	29885
811.724	29741
811.865	29646
812.007	29726
812.148	29630
812.29	29703
812.431	29931
812.573	30030
812.714	30034
812.855	30186
812.997	30270
813.138	30441
813.279	30388
813.421	30174
813.562	30171
813.703	30007
813.845	29961
813.986	29695
814.127	29486
814.268	29448
814.41	29414
814.551	29364
814.692	29395
814.833	29410
814.974	29284
815.115	29356
815.256	29353
815.397	29220
815.539	29181
815.68	29132
815.821	29166
815.962	29265
816.103	29151
816.244	29113
816.385	29044
816.526	28862
816.666	28744
816.807	28793
816.948	28862
817.089	28820
817.23	28790
817.371	28675
817.512	28672
817.653	28683
817.793	28675
817.934	28710
818.075	28744
818.216	28653
818.356	28809
818.497	28535
818.638	28478
818.778	28531
818.919	28485
819.06	28557
819.2	28656
819.341	28733
819.481	28755
819.622	28915
819.762	29136
819.903	29041
820.043	28919
820.184	28930
820.324	28744
820.465	28896
820.605	29060
820.746	28934
820.886	28763
821.026	28812
821.167	28847
821.307	28923
821.447	28725
821.588	28649
821.728	28542
821.868	28428
822.008	28261
822.149	28371
822.289	28093
822.429	27861
822.569	27941
822.709	27956
822.849	27888
822.99	27812
823.13	27671
823.27	27835
823.41	27644
823.55	27443
823.69	27564
823.83	27549
823.97	27629
824.11	27332
824.25	27454
824.389	27401
824.529	27370
824.669	27420
824.809	27587
824.949	27431
825.089	27431
825.228	27511
825.368	27245
825.508	27230
825.648	27443
825.787	27431
825.927	27336
826.067	27230
826.206	27287
826.346	27351
826.485	27447
826.625	27294
826.765	27405
826.904	27249
827.044	27024
827.183	27100
827.323	26918
827.462	26944
827.601	26975
827.741	27058
827.88	26975
828.02	26986
828.159	27009
828.298	27127
828.437	27116
828.577	26872
828.716	27112
828.855	27001
828.994	26754
829.134	26648
829.273	26800
829.412	26697
829.551	26609
829.69	26708
829.829	26826
829.968	26754
830.107	26735
830.246	26769
830.385	26533
830.524	26609
830.663	26488
830.802	26438
830.941	26362
831.08	26339
831.219	26419
831.357	26480
831.496	26522
831.635	26202
831.774	26202
831.913	26084
832.051	26088
832.19	26081
832.329	26031
832.467	25951
832.606	25955
832.744	25944
832.883	25940
833.022	25978
833.16	25986
833.299	25970
833.437	26081
833.576	26062
833.714	26039
833.852	26065
833.991	26103
834.129	26058
834.267	26142
834.406	26180
834.544	26035
834.682	26069
834.821	25906
834.959	26328
835.097	25913
835.235	26107
835.373	26054
835.511	26005
835.65	25963
835.788	25890
835.926	25734
836.064	25822
836.202	25712
836.34	25845
836.478	25955
836.615	25898
836.753	25799
836.891	25925
837.029	25906
837.167	25795
837.305	25689
837.443	25826
837.58	25658
837.718	25811
837.856	25666
837.993	25635
838.131	25556
838.269	25495
838.406	25514
838.544	25559
838.681	25240
838.819	25232
838.956	25110
839.094	25225
839.231	25114
839.369	25236
839.506	25525
839.643	25457
839.781	25171
839.918	25099
840.055	25107
840.193	25152
840.33	24951
840.467	24992
840.604	25247
840.742	25308
840.879	24859
841.016	25023
841.153	25008
841.29	25050
841.427	25000
841.564	25091
841.701	25095
841.838	24954
841.975	24897
842.112	25053
842.249	24928
842.385	24840
842.522	25080
842.659	25008
842.796	24764
842.933	24787
843.069	24810
843.206	24764
843.343	24840
843.479	24791
843.616	24760
843.752	24528
843.889	24692
844.025	24703
844.162	24620
844.298	24745
844.435	24616
844.571	24502
844.708	24574
844.844	24703
844.98	24779
845.117	24635
845.253	24532
845.389	24464
845.525	24517
845.661	24479
845.798	24308
845.934	24365
846.07	24323
846.206	24361
846.342	24403
846.478	24247
846.614	24174
846.75	23859
846.886	24026
847.022	24106
847.158	24117
847.294	23984
847.429	24064
847.565	24068
847.701	24224
847.837	23608
847.972	23722
848.108	23843
848.244	23707
848.379	23627
848.515	23676
848.65	23573
848.786	23543
848.921	23608
849.057	23653
849.192	23653
849.328	23528
849.463	23630
849.598	23577
849.734	23524
849.869	23436
850.004	23315
850.14	23383
850.275	23303
850.41	23311
850.545	23379
850.68	23204
850.815	23391
850.95	23337
851.085	23634
851.22	23490
851.355	23471
851.49	23337
851.625	23288
851.76	23398
851.895	23265
852.03	23208
852.165	23303
852.299	23353
852.434	23417
852.569	23387
852.703	23356
852.838	23478
852.973	23486
853.107	23429
853.242	23395
853.376	23155
853.511	23033
853.645	23018
853.78	23261
853.914	23235
854.048	23071
854.183	23261
854.317	23235
854.451	23330
854.585	23151
854.72	23254
854.854	23299
854.988	23117
855.122	23284
855.256	23029
855.39	23200
855.524	23311
855.658	23242
855.792	23197
855.926	23273
856.06	23220
856.194	23265
856.327	23197
856.461	23216
856.595	23162
856.729	23067
856.862	23326
856.996	23250
857.13	23292
857.263	23311
857.397	23349
857.53	23193
857.664	23147
857.797	23391
857.931	23353
858.064	23292
858.197	23315
858.331	23273
858.464	23242
858.597	23025
858.731	23159
858.864	23197
858.997	23136
859.13	23296
859.263	23254
859.396	23288
859.529	23204
859.662	23132
859.795	23223
859.928	23185
860.061	23368
860.194	23330
860.327	23197
860.46	23216
860.592	23288
860.725	23444
860.858	23356
860.99	23307
861.123	23132
861.256	23159
861.388	23212
861.521	23946
861.653	23090
861.786	23014
861.918	22987
862.05	23102
862.183	23086
862.315	23128
862.447	23162
862.58	23136
862.712	23006
862.844	22850
862.976	23018
863.108	22953
863.24	23425
863.372	22896
863.504	22942
863.636	22850
863.768	22869
863.9	22957
864.032	22740
864.164	22831
864.296	22797
864.428	23025
864.559	23018
864.691	23056
864.823	22885
864.954	22873
865.086	22793
865.217	22885
865.349	22782
865.48	22885
865.612	22713
865.743	22881
865.875	22835
866.006	22786
866.137	22786
866.269	22641
866.4	22816
866.531	22698
866.662	22664
866.793	22721
866.924	22725
867.055	22675
867.186	22733
867.317	22698
867.448	22702
867.579	22748
867.71	22774
867.841	22634
867.972	22713
868.103	22675
868.233	22740
868.364	22653
868.495	22744
868.625	22927
868.756	23109
868.886	23014
869.017	22866
869.147	22927
869.278	22949
869.408	22980
869.539	22953
869.669	23048
869.799	22999
869.929	22968
870.06	23147
870.19	23235
870.32	23239
870.45	23269
870.58	23322
870.71	23440
870.84	23455
870.97	23280
871.1	23372
871.23	23490
871.36	23596
871.489	23501
871.619	23459
871.749	23452
871.879	23429
872.008	23649
872.138	23467
872.267	23642
872.397	23429
872.526	23425
872.656	23337
872.785	23330
872.915	23638
873.044	23630
873.173	23562
873.303	23680
873.432	23581
873.561	23684
873.69	23661
873.819	23627
873.948	23653
874.077	23653
874.206	23436
874.335	23528
874.464	23764
874.593	23794
874.722	23703
874.851	23786
874.979	23813
875.108	23828
875.237	23733
875.365	23707
875.494	23824
875.623	23802
875.751	23741
875.88	23779
876.008	23939
876.136	24026
876.265	24194
876.393	24155
876.521	24182
876.65	24338
876.778	24110
876.906	23969
877.034	23965
877.162	24091
877.29	24022
877.418	24110
877.546	24182
877.674	24106
877.802	24011
877.93	24148
878.058	24079
878.185	23954
878.313	23980
878.441	24114
878.568	23821
878.696	23935
878.824	24155
878.951	24197
879.079	24209
879.206	24365
879.333	24273
879.461	24235
879.588	24129
879.715	24292
879.842	24376
879.97	24308
880.097	23958
880.224	23775
880.351	23980
880.478	23927
880.605	23870
880.732	23984
880.859	24079
880.986	24003
881.112	23999
881.239	23885
881.366	23649
881.493	23566
881.619	23436
881.746	23455
881.872	23387
881.999	23334
882.125	23185
882.252	23444
882.378	23337
882.505	23402
882.631	23292
882.757	23208
882.883	23223
883.01	23136
883.136	23071
883.262	23022
883.388	23033
883.514	23189
883.64	23250
883.766	23003
883.892	22953
884.018	22885
884.143	23022
884.269	23094
884.395	22767
884.52	22675
884.646	22679
884.772	22755
884.897	22554
885.023	22744
885.148	22805
885.274	22881
885.399	22820
885.524	22850
885.65	22748
885.775	22694
885.9	22748
886.025	22866
886.15	22877
886.275	22698
886.4	22653
886.525	22675
886.65	22584
886.775	22672
886.9	22736
887.025	22908
887.149	22603
887.274	22481
887.399	22512
887.523	22394
887.648	22561
887.773	22371
887.897	22538
888.021	22493
888.146	22443
888.27	22615
888.395	22500
888.519	22443
888.643	22622
888.767	22599
888.891	22341
889.015	22405
889.139	22337
889.263	22303
889.387	22466
889.511	22440
889.635	22371
889.759	22276
889.883	22363
890.006	22303
890.13	22394
890.254	22147
890.377	22219
890.501	22082
890.624	21994
890.748	22059
890.871	21804
890.995	21869
891.118	21850
891.241	21778
891.364	21835
891.488	21838
891.611	21819
891.734	21793
891.857	21827
891.98	21850
892.103	21892
892.226	21873
892.349	21675
892.471	21564
892.594	21762
892.717	21755
892.839	21762
892.962	21774
893.085	21903
893.207	21728
893.33	21473
893.452	21591
893.575	21701
893.697	21736
893.819	21793
893.941	21831
894.064	21800
894.186	21637
894.308	21572
894.43	21747
894.552	21888
894.674	21724
894.796	21694
894.918	21648
895.04	21603
895.161	21724
895.283	21854
895.405	21595
895.526	21701
895.648	21724
895.769	21701
895.891	21690
896.012	21717
896.134	21625
896.255	21625
896.376	21667
896.498	21534
896.619	21549
896.74	21610
896.861	21675
896.982	21968
897.103	21998
897.224	21926
897.345	21797
897.466	21831
897.587	21907
897.708	21888
897.828	21869
897.949	21739
898.07	21789
898.19	21819
898.311	21880
898.431	21713
898.552	21854
898.672	21907
898.792	21880
898.913	21838
899.033	21701
899.153	21675
899.273	21587
899.393	21545
899.513	21717
899.633	21564
899.753	21534
899.873	21492
899.993	21622
900.113	21507
900.232	21439
900.352	21542
900.472	21485
900.591	21237
900.711	21302
900.83	21226
900.95	21424
901.069	21386
901.189	21154
901.308	21013
901.427	20895
901.546	20887
901.665	20914
901.784	20864
901.904	20830
902.023	20735
902.141	20476
902.26	20404
902.379	20465
902.498	20351
902.617	20263
902.735	20374
902.854	20400
902.973	20374
903.091	20012
903.21	20069
903.328	20092
903.446	19925
903.565	19871
903.683	19887
903.801	19776
903.919	19727
904.038	19761
904.156	19677
904.274	19677
904.392	19586
904.51	19559
904.627	19495
904.745	19685
904.863	19594
904.981	19396
905.098	19179
905.216	19301
905.334	19324
905.451	19297
905.569	19255
905.686	19278
905.803	19118
905.921	19095
906.038	19141
906.155	18993
906.272	18966
906.389	18943
906.506	18757
906.623	18776
906.74	18749
906.857	18612
906.974	18677
907.091	18848
907.208	18787
907.324	18715
907.441	18684
907.557	18403
907.674	18483
907.79	18323
907.907	18467
908.023	18471
908.139	18479
908.256	18460
908.372	18372
908.488	18380
908.604	18289
908.72	18083
908.836	18117
908.952	18300
909.068	18182
909.184	18311
909.3	18251
909.415	18136
909.531	18155
909.647	17942
909.762	17748
909.878	17840
909.993	17961
910.108	17836
910.224	17756
910.339	17790
910.454	17756
910.57	17703
910.685	17676
910.8	17942
910.915	17764
911.03	17771
911.145	17478
911.259	17417
911.374	17421
911.489	17414
911.604	17364
911.718	17170
911.833	17208
911.947	16999
912.062	17014
912.176	17132
912.291	17216
912.405	17269
912.519	17372
912.633	17326
912.748	17166
912.862	17212
912.976	16965
913.09	16908
913.204	16934
913.318	16991
913.431	17079
913.545	17075
913.659	17143
913.772	16927
913.886	16809
914	16816
914.113	16782
914.226	16927
914.34	16809
914.453	16519
914.566	16828
914.68	16656
914.793	16645
914.906	16413
915.019	16356
915.132	16211
915.245	16356
915.358	16428
915.47	16314
915.583	16295
915.696	16284
915.809	16371
915.921	16428
916.034	16204
916.146	16226
916.259	16177
916.371	16363
916.483	16238
916.595	16139
916.708	16147
916.82	16139
916.932	16109
917.044	16097
917.156	16078
917.268	15907
917.38	15918
917.491	15903
917.603	15979
917.715	16017
917.826	16006
917.938	15895
918.049	15682
918.161	15865
918.272	15949
918.384	15953
918.495	15903
918.606	15705
918.717	15534
918.828	15732
918.939	15660
919.05	15523
919.161	15694
919.272	15534
919.383	15492
919.494	15648
919.604	15800
919.715	15568
919.826	15492
919.936	15599
920.047	15736
920.157	15671
920.267	15823
920.378	15644
920.488	15595
920.598	15831
920.708	15892
920.818	15720
920.928	15736
921.038	15880
921.148	15903
921.258	15606
921.368	15439
921.477	15294
921.587	15260
921.697	15154
921.806	15313
921.916	15150
922.025	15055
922.134	15017
922.244	14918
922.353	15051
922.462	14830
922.571	14777
922.68	14537
922.789	14648
922.898	14678
923.007	14537
923.116	14587
923.224	14571
923.333	14518
923.442	14370
923.55	14347
923.659	14484
923.767	14415
923.876	14271
923.984	14454
924.092	14290
924.201	14400
924.309	14332
924.417	14259
924.525	14218
924.633	14248
924.741	15089
924.849	13959
924.956	14145
925.064	14035
925.172	13902
925.279	13868
925.387	13928
925.494	14020
925.602	14050
925.709	14043
925.816	13879
925.924	13894
926.031	13951
926.138	13799
926.245	13875
926.352	13761
926.459	13894
926.566	13967
926.673	13772
926.779	13723
926.886	13723
926.993	13487
927.099	13506
927.206	13487
927.312	13422
927.419	13483
927.525	13358
927.631	13514
927.737	13339
927.843	13407
927.95	13209
928.056	13312
928.162	13381
928.267	13339
928.373	13871
928.479	13354
928.585	13126
928.69	13190
928.796	13251
928.901	13168
929.007	12920
929.112	13050
929.218	13046
929.323	13008
929.428	12993
929.533	13152
929.638	12852
929.743	12966
929.848	13004
929.953	12829
930.058	12787
930.163	12612
930.267	12616
930.372	12787
930.477	12646
930.581	12772
930.685	12646
930.79	12490
930.894	12525
930.998	12437
931.103	12547
931.207	12281
931.311	12209
931.415	12053
931.519	11916
931.623	11882
