Data from test_V78500241_1249.txt Node
Date: Fri Mar 25 15:50:27 CST 2022
User: usil
Spectrometer: V785-0024
Trigger mode: 0
Integration Time (sec): 4.000000E-1
Scans to average: 1
Nonlinearity correction enabled: false
Boxcar width: 0
Storing dark spectrum: false
XAxis mode: Wavelengths
Number of Pixels in Spectrum: 1024
>>>>>Begin Spectral Data<<<<<
801.071	28816
801.214	28797
801.356	28413
801.499	28466
801.641	28337
801.783	28303
801.926	28409
802.068	28257
802.211	28424
802.353	28333
802.496	28067
802.638	28048
802.78	27911
802.923	28067
803.065	27926
803.208	28055
803.35	28074
803.492	28131
803.635	28177
803.777	28150
803.919	28185
804.061	28660
804.204	28337
804.346	28204
804.488	28219
804.63	28314
804.773	28090
804.915	28265
805.057	28386
805.199	28348
805.341	28386
805.483	28455
805.626	28421
805.768	28303
805.91	28500
806.052	28417
806.194	28367
806.336	28831
806.478	28630
806.62	28401
806.762	28546
806.904	28691
807.046	28965
807.188	28816
807.33	28790
807.472	28911
807.614	28782
807.756	28771
807.898	28668
808.04	28961
808.182	28767
808.324	28911
808.465	28805
808.607	28980
808.749	29239
808.891	29341
809.033	29269
809.174	29113
809.316	29098
809.458	29136
809.6	29113
809.741	29178
809.883	29296
810.025	29543
810.166	29524
810.308	29463
810.45	29520
810.591	29406
810.733	29341
810.875	29189
811.016	29003
811.158	28984
811.299	29254
811.441	29193
811.582	29280
811.724	29212
811.865	29090
812.007	29318
812.148	29174
812.29	29265
812.431	29387
812.573	29402
812.714	29535
812.855	29543
812.997	29779
813.138	29893
813.279	29908
813.421	29847
813.562	29672
813.703	29566
813.845	29535
813.986	29246
814.127	29025
814.268	28839
814.41	28968
814.551	28831
814.692	28984
814.833	28786
814.974	28877
815.115	28797
815.256	28881
815.397	28824
815.539	28869
815.68	28683
815.821	28653
815.962	28748
816.103	28698
816.244	28455
816.385	28421
816.526	28447
816.666	28219
816.807	28154
816.948	28215
817.089	28299
817.23	28249
817.371	28211
817.512	28181
817.653	28204
817.793	28097
817.934	28105
818.075	28131
818.216	28177
818.356	28124
818.497	28173
818.638	27964
818.778	27945
818.919	27960
819.06	28017
819.2	28295
819.341	28318
819.481	28287
819.622	28314
819.762	28538
819.903	28455
820.043	28360
820.184	28318
820.324	28421
820.465	28485
820.605	28348
820.746	28226
820.886	28169
821.026	28287
821.167	28401
821.307	28234
821.447	28306
821.588	28105
821.728	28025
821.868	27876
822.008	27804
822.149	27595
822.289	27625
822.429	27496
822.569	27336
822.709	27405
822.849	27310
822.99	27135
823.13	27180
823.27	27256
823.41	26963
823.55	26914
823.69	26998
823.83	27104
823.97	27077
824.11	26796
824.25	26853
824.389	26963
824.529	27032
824.669	26792
824.809	27013
824.949	26910
825.089	26895
825.228	26826
825.368	26670
825.508	26667
825.648	26746
825.787	26861
825.927	26735
826.067	26785
826.206	26712
826.346	26781
826.485	26807
826.625	26640
826.765	26796
826.904	26781
827.044	26575
827.183	26503
827.323	26473
827.462	26511
827.601	26621
827.741	26374
827.88	26370
828.02	26294
828.159	26511
828.298	26514
828.437	26412
828.577	26476
828.716	26541
828.855	26385
828.994	26153
829.134	26020
829.273	26259
829.412	26088
829.551	26176
829.69	26046
829.829	26122
829.968	26240
830.107	26237
830.246	26081
830.385	26050
830.524	25986
830.663	25887
830.802	25883
830.941	25826
831.08	25803
831.219	25780
831.357	25795
831.496	25951
831.635	25727
831.774	25715
831.913	25578
832.051	25578
832.19	25567
832.329	25597
832.467	25518
832.606	25293
832.744	25335
832.883	25419
833.022	25407
833.16	25411
833.299	25457
833.437	25506
833.576	25559
833.714	25491
833.852	25521
833.991	25548
834.129	25537
834.267	25502
834.406	25403
834.544	25491
834.682	25521
834.821	25426
834.959	25651
835.097	25487
835.235	25476
835.373	25483
835.511	25479
835.65	25339
835.788	25324
835.926	25263
836.064	25240
836.202	25110
836.34	25320
836.478	25449
836.615	25259
836.753	25308
836.891	25388
837.029	25441
837.167	25179
837.305	25175
837.443	25126
837.58	25000
837.718	25228
837.856	25198
837.993	24985
838.131	25198
838.269	24905
838.406	25072
838.544	24951
838.681	24817
838.819	24749
838.956	24623
839.094	24604
839.231	24597
839.369	24821
839.506	24886
839.643	24802
839.781	24646
839.918	24441
840.055	24563
840.193	24563
840.33	24464
840.467	24509
840.604	24574
840.742	24623
840.879	24300
841.016	24448
841.153	24460
841.29	24612
841.427	24521
841.564	24505
841.701	24437
841.838	24441
841.975	24414
842.112	24346
842.249	24220
842.385	24330
842.522	24639
842.659	24380
842.796	24186
842.933	24304
843.069	24136
843.206	24232
843.343	24292
843.479	24190
843.616	24239
843.752	24026
843.889	24007
844.025	24117
844.162	24022
844.298	24121
844.435	23904
844.571	23942
844.708	24064
844.844	24209
844.98	24232
845.117	24072
845.253	23916
845.389	23889
845.525	24003
845.661	23863
845.798	23863
845.934	23832
846.07	23703
846.206	23745
846.342	23764
846.478	23714
846.614	23558
846.75	23299
846.886	23455
847.022	23600
847.158	23501
847.294	23349
847.429	23417
847.565	23406
847.701	23653
847.837	23349
847.972	23227
848.108	23212
848.244	23223
848.379	23029
848.515	23006
848.65	23060
848.786	23010
848.921	23075
849.057	23178
849.192	23041
849.328	23083
849.463	22976
849.598	22991
849.734	22858
849.869	22858
850.004	22691
850.14	22866
850.275	22805
850.41	22774
850.545	22706
850.68	22675
850.815	22790
850.95	22801
851.085	23041
851.22	22972
851.355	22915
851.49	22839
851.625	22877
851.76	22694
851.895	22809
852.03	22668
852.165	22744
852.299	22847
852.434	22991
852.569	22866
852.703	22828
852.838	22858
852.973	22927
853.107	23006
853.242	22713
853.376	22660
853.511	22519
853.645	22577
853.78	22755
853.914	22698
854.048	22656
854.183	22622
854.317	22497
854.451	22850
854.585	22538
854.72	22660
854.854	22653
854.988	22565
855.122	22588
855.256	22478
855.39	22561
855.524	22733
855.658	22653
855.792	22744
855.926	22664
856.06	22622
856.194	22706
856.327	22653
856.461	22451
856.595	22584
856.729	22664
856.862	22622
856.996	22786
857.13	22694
857.263	22831
857.397	22778
857.53	22713
857.664	22641
857.797	22717
857.931	22790
858.064	22713
858.197	22797
858.331	22725
858.464	22622
858.597	22637
858.731	22675
858.864	22531
858.997	22542
859.13	22656
859.263	22523
859.396	22611
859.529	22713
859.662	22622
859.795	22607
859.928	22675
860.061	22683
860.194	22949
860.327	22672
860.46	22653
860.592	22755
860.725	22896
860.858	22778
860.99	22592
861.123	22626
861.256	22725
861.388	22649
861.521	23303
861.653	22641
861.786	22287
861.918	22519
862.05	22531
862.183	22489
862.315	22497
862.447	22466
862.58	22508
862.712	22428
862.844	22375
862.976	22394
863.108	22405
863.24	22759
863.372	22230
863.504	22363
863.636	22341
863.768	22405
863.9	22318
864.032	22356
864.164	22272
864.296	22375
864.428	22512
864.559	22527
864.691	22363
864.823	22257
864.954	22409
865.086	22284
865.217	22375
865.349	22097
865.48	22215
865.612	22242
865.743	22344
865.875	22226
866.006	22253
866.137	22226
866.269	22169
866.4	22173
866.531	22188
866.662	22131
866.793	22105
866.924	22207
867.055	22181
867.186	22131
867.317	22200
867.448	22093
867.579	22150
867.71	22112
867.841	22116
867.972	22124
868.103	22181
868.233	22169
868.364	22093
868.495	22356
868.625	22284
868.756	22375
868.886	22417
869.017	22398
869.147	22538
869.278	22577
869.408	22485
869.539	22470
869.669	22382
869.799	22402
869.929	22466
870.06	22531
870.19	22592
870.32	22698
870.45	22729
870.58	22923
870.71	22911
870.84	22835
870.97	22755
871.1	22923
871.23	23003
871.36	23010
871.489	22801
871.619	22991
871.749	22930
871.879	22991
872.008	23067
872.138	22831
872.267	23105
872.397	22877
872.526	22877
872.656	22839
872.785	22782
872.915	23090
873.044	23071
873.173	23003
873.303	23064
873.432	23014
873.561	23056
873.69	23079
873.819	22942
873.948	22946
874.077	22938
874.206	23044
874.335	22972
874.464	23128
874.593	23212
874.722	23250
874.851	23288
874.979	23311
875.108	23303
875.237	23098
875.365	23086
875.494	23033
875.623	23383
875.751	23162
875.88	23261
876.008	23288
876.136	23436
876.265	23657
876.393	23680
876.521	23714
876.65	23653
876.778	23657
876.906	23600
877.034	23566
877.162	23539
877.29	23520
877.418	23600
877.546	23638
877.674	23570
877.802	23509
877.93	23490
878.058	23509
878.185	23391
878.313	23589
878.441	23474
878.568	23417
878.696	23417
878.824	23562
878.951	23699
879.079	23668
879.206	23821
879.333	23676
879.461	23638
879.588	23589
879.715	23771
879.842	23851
879.97	23570
880.097	23444
880.224	23376
880.351	23421
880.478	23414
880.605	23337
880.732	23322
880.859	23539
880.986	23349
881.112	23349
881.239	23220
881.366	23003
881.493	22999
881.619	22915
881.746	23029
881.872	22934
881.999	22839
882.125	22976
882.252	22953
882.378	22976
882.505	22968
882.631	22850
882.757	22573
882.883	22626
883.01	22462
883.136	22569
883.262	22390
883.388	22417
883.514	22599
883.64	22698
883.766	22432
883.892	22295
884.018	22379
884.143	22481
884.269	22535
884.395	22329
884.52	22268
884.646	22261
884.772	22192
884.897	22078
885.023	22253
885.148	22188
885.274	22432
885.399	22261
885.524	22242
885.65	22299
885.775	22131
885.9	22219
886.025	22382
886.15	22390
886.275	22150
886.4	22116
886.525	22143
886.65	22143
886.775	22109
886.9	22310
887.025	22352
887.149	22230
887.274	22032
887.399	21972
887.523	21915
887.648	21926
887.773	21960
887.897	22032
888.021	21987
888.146	21968
888.27	22029
888.395	22109
888.519	22143
888.643	21937
888.767	21812
888.891	22010
889.015	21819
889.139	21930
889.263	21827
889.387	21903
889.511	21949
889.635	21762
889.759	21751
889.883	21831
890.006	21762
890.13	21873
890.254	21720
890.377	21728
890.501	21447
890.624	21431
890.748	21580
890.871	21511
890.995	21462
891.118	21272
891.241	21214
891.364	21298
891.488	21466
891.611	21348
891.734	21344
891.857	21454
891.98	21287
892.103	21412
892.226	21279
892.349	21173
892.471	21081
892.594	21211
892.717	21192
892.839	21195
892.962	21180
893.085	21119
893.207	21180
893.33	21211
893.452	21173
893.575	21184
893.697	21150
893.819	21351
893.941	21386
894.064	21298
894.186	21001
894.308	21089
894.43	21252
894.552	21435
894.674	21211
894.796	21005
894.918	21188
895.04	21104
895.161	21214
895.283	21256
895.405	21096
895.526	21249
895.648	21214
895.769	21245
895.891	21359
896.012	21294
896.134	21214
896.255	21245
896.376	21127
896.498	21108
896.619	21135
896.74	21100
896.861	21233
896.982	21500
897.103	21720
897.224	21386
897.345	21439
897.466	21321
897.587	21351
897.708	21428
897.828	21393
897.949	21313
898.07	21256
898.19	21378
898.311	21405
898.431	21378
898.552	21416
898.672	21454
898.792	21332
898.913	21348
899.033	21211
899.153	21089
899.273	21058
899.393	21070
899.513	21161
899.633	20982
899.753	21116
899.873	21096
899.993	21036
900.113	21009
900.232	21112
900.352	20960
900.472	20918
900.591	20861
900.711	20883
900.83	20838
900.95	20979
901.069	21051
901.189	20693
901.308	20549
901.427	20438
901.546	20507
901.665	20450
901.784	20427
901.904	20202
902.023	20244
902.141	20050
902.26	19932
902.379	20058
902.498	19989
902.617	19898
902.735	20062
902.854	19803
902.973	19852
903.091	19647
903.21	19567
903.328	19594
903.446	19480
903.565	19453
903.683	19384
903.801	19335
903.919	19358
904.038	19350
904.156	19187
904.274	19206
904.392	19194
904.51	19183
904.627	19145
904.745	19255
904.863	19221
904.981	19034
905.098	18817
905.216	18913
905.334	18817
905.451	18730
905.569	18806
905.686	18852
905.803	18726
905.921	18711
906.038	18886
906.155	18593
906.272	18513
906.389	18376
906.506	18376
906.623	18327
906.74	18311
906.857	18258
906.974	18235
907.091	18414
907.208	18372
907.324	18464
907.441	18289
907.557	18030
907.674	18106
907.79	17958
907.907	18045
908.023	18019
908.139	18091
908.256	17988
908.372	17893
908.488	17870
908.604	17821
908.72	17771
908.836	17733
908.952	17779
909.068	17733
909.184	17893
909.3	17661
909.415	17786
909.531	17805
909.647	17535
909.762	17577
909.878	17471
909.993	17463
910.108	17459
910.224	17356
910.339	17379
910.454	17337
910.57	17269
910.685	17143
910.8	17425
910.915	17345
911.03	17261
911.145	16995
911.259	17029
911.374	17094
911.489	17105
911.604	16881
911.718	16793
911.833	16744
911.947	16664
912.062	16645
912.176	16698
912.291	16793
912.405	16816
912.519	16987
912.633	16961
912.748	16710
912.862	16713
912.976	16592
913.09	16489
913.204	16565
913.318	16660
913.431	16622
913.545	16584
913.659	16675
913.772	16531
913.886	16417
914	16402
914.113	16493
914.226	16516
914.34	16455
914.453	16200
914.566	16409
914.68	16287
914.793	16280
914.906	15972
915.019	16002
915.132	15835
915.245	15922
915.358	16021
915.47	15960
915.583	15960
915.696	15922
915.809	16013
915.921	16109
916.034	15926
916.146	15842
916.259	15880
916.371	15823
916.483	15926
916.595	15739
916.708	15701
916.82	15778
916.932	15816
917.044	15682
917.156	15568
917.268	15591
917.38	15587
917.491	15477
917.603	15473
917.715	15660
917.826	15682
917.938	15462
918.049	15477
918.161	15526
918.272	15637
918.384	15614
918.495	15454
918.606	15408
918.717	15256
918.828	15256
918.939	15363
919.05	15321
919.161	15226
919.272	15138
919.383	15116
919.494	15340
919.604	15485
919.715	15313
919.826	15195
919.936	15241
920.047	15344
920.157	15150
920.267	15439
920.378	15241
920.488	15192
920.598	15511
920.708	15637
920.818	15386
920.928	15466
921.038	15519
921.148	15420
921.258	15127
921.368	15123
921.477	14998
921.587	14971
921.697	14929
921.806	14925
921.916	14834
922.025	14651
922.134	14587
922.244	14533
922.353	14693
922.462	14518
922.571	14450
922.68	14309
922.789	14214
922.898	14187
923.007	14206
923.116	14267
923.224	14187
923.333	14202
923.442	13963
923.55	14092
923.659	14096
923.767	14043
923.876	14096
923.984	14062
924.092	13906
924.201	13917
924.309	13986
924.417	13925
924.525	13871
924.633	13974
924.741	14815
924.849	13620
924.956	13928
925.064	13731
925.172	13559
925.279	13639
925.387	13613
925.494	13662
925.602	13719
925.709	13662
925.816	13506
925.924	13609
926.031	13674
926.138	13575
926.245	13624
926.352	13441
926.459	13647
926.566	13582
926.673	13499
926.779	13388
926.886	13362
926.993	13282
927.099	13209
927.206	13198
927.312	13091
927.419	13168
927.525	13118
927.631	13187
927.737	13099
927.843	12970
927.95	12894
928.056	12947
928.162	12966
928.267	13061
928.373	13582
928.479	12973
928.585	12779
928.69	12932
928.796	12951
928.901	12825
929.007	12665
929.112	12890
929.218	12825
929.323	12715
929.428	12665
929.533	12779
929.638	12646
929.743	12620
929.848	12665
929.953	12711
930.058	12429
930.163	12346
930.267	12376
930.372	12506
930.477	12365
930.581	12471
930.685	12365
930.79	12273
930.894	12216
930.998	12220
931.103	12353
931.207	11984
931.311	11809
931.415	11870
931.519	11600
931.623	11596
