Data from test_V78500241_22.txt Node
Date: Fri Mar 25 15:41:57 CST 2022
User: usil
Spectrometer: V785-0024
Trigger mode: 0
Integration Time (sec): 4.000000E-1
Scans to average: 1
Nonlinearity correction enabled: false
Boxcar width: 0
Storing dark spectrum: false
XAxis mode: Wavelengths
Number of Pixels in Spectrum: 1024
>>>>>Begin Spectral Data<<<<<
801.071	27233
801.214	27104
801.356	26823
801.499	26845
801.641	26655
801.783	26556
801.926	26712
802.068	26609
802.211	26644
802.353	26396
802.496	26271
802.638	26347
802.78	26191
802.923	26046
803.065	26065
803.208	26134
803.35	26183
803.492	26134
803.635	26233
803.777	26187
803.919	26180
804.061	26450
804.204	26195
804.346	26218
804.488	25974
804.63	26183
804.773	26046
804.915	26024
805.057	26294
805.199	25986
805.341	26088
805.483	26187
805.626	26233
805.768	26122
805.91	26263
806.052	26290
806.194	26016
806.336	26252
806.478	26176
806.62	25940
806.762	26278
806.904	26389
807.046	26651
807.188	26488
807.33	26404
807.472	26621
807.614	26431
807.756	26465
807.898	26317
808.04	26290
808.182	26210
808.324	26202
808.465	26286
808.607	26450
808.749	26427
808.891	26651
809.033	26598
809.174	26537
809.316	26625
809.458	26507
809.6	26415
809.741	26629
809.883	26533
810.025	26735
810.166	26876
810.308	26830
810.45	26826
810.591	26735
810.733	26514
810.875	26587
811.016	26240
811.158	26259
811.299	26629
811.441	26663
811.582	26484
811.724	26415
811.865	26400
812.007	26305
812.148	26419
812.29	26404
812.431	26575
812.573	26678
812.714	26807
812.855	26933
812.997	26925
813.138	27165
813.279	27024
813.421	26857
813.562	26925
813.703	26663
813.845	26617
813.986	26248
814.127	26115
814.268	26001
814.41	26103
814.551	25902
814.692	25909
814.833	25925
814.974	25788
815.115	25913
815.256	25879
815.397	25803
815.539	25674
815.68	25693
815.821	25460
815.962	25552
816.103	25658
816.244	25468
816.385	25358
816.526	25270
816.666	25152
816.807	24996
816.948	25114
817.089	25156
817.23	24996
817.371	24962
817.512	24928
817.653	25061
817.793	24939
817.934	25000
818.075	24958
818.216	24821
818.356	24760
818.497	24844
818.638	24726
818.778	24817
818.919	24620
819.06	24654
819.2	24726
819.341	24852
819.481	24772
819.622	25046
819.762	25225
819.903	25050
820.043	24992
820.184	24897
820.324	24992
820.465	24989
820.605	24859
820.746	24875
820.886	24764
821.026	24992
821.167	24814
821.307	24787
821.447	24783
821.588	24749
821.728	24681
821.868	24456
822.008	24281
822.149	24388
822.289	24323
822.429	23916
822.569	23965
822.709	23977
822.849	23783
822.99	23710
823.13	23608
823.27	23554
823.41	23531
823.55	23406
823.69	23627
823.83	23493
823.97	23379
824.11	23311
824.25	23334
824.389	23231
824.529	23315
824.669	23140
824.809	23315
824.949	23220
825.089	23471
825.228	23128
825.368	23075
825.508	22961
825.648	23155
825.787	23033
825.927	23200
826.067	23094
826.206	22972
826.346	23113
826.485	23155
826.625	23090
826.765	23132
826.904	23094
827.044	22831
827.183	22706
827.323	22656
827.462	22782
827.601	22683
827.741	22729
827.88	22801
828.02	22596
828.159	22656
828.298	22656
828.437	22740
828.577	22759
828.716	22797
828.855	22603
828.994	22402
829.134	22386
829.273	22405
829.412	22348
829.551	22280
829.69	22306
829.829	22432
829.968	22478
830.107	22379
830.246	22451
830.385	22341
830.524	22314
830.663	22181
830.802	21998
830.941	21994
831.08	21934
831.219	22044
831.357	21991
831.496	22032
831.635	21945
831.774	21728
831.913	21675
832.051	21743
832.19	21663
832.329	21728
832.467	21591
832.606	21466
832.744	21477
832.883	21545
833.022	21549
833.16	21481
833.299	21572
833.437	21606
833.576	21603
833.714	21603
833.852	21492
833.991	21561
834.129	21686
834.267	21576
834.406	21488
834.544	21557
834.682	21519
834.821	21519
834.959	21679
835.097	21485
835.235	21663
835.373	21564
835.511	21519
835.65	21420
835.788	21389
835.926	21237
836.064	21039
836.202	21112
836.34	21325
836.478	21389
836.615	21237
836.753	21447
836.891	21504
837.029	21389
837.167	21336
837.305	21245
837.443	21252
837.58	21252
837.718	21241
837.856	21313
837.993	21180
838.131	21195
838.269	21161
838.406	21188
838.544	21104
838.681	20895
838.819	20838
838.956	20731
839.094	20708
839.231	20663
839.369	20754
839.506	21119
839.643	20868
839.781	20598
839.918	20568
840.055	20663
840.193	20507
840.33	20579
840.467	20552
840.604	20640
840.742	20743
840.879	20537
841.016	20469
841.153	20450
841.29	20545
841.427	20587
841.564	20469
841.701	20473
841.838	20427
841.975	20393
842.112	20457
842.249	20290
842.385	20339
842.522	20374
842.659	20286
842.796	20221
842.933	20134
843.069	20111
843.206	20138
843.343	20210
843.479	20180
843.616	20206
843.752	19928
843.889	20005
844.025	20221
844.162	19936
844.298	19947
844.435	19974
844.571	20008
844.708	19921
844.844	20054
844.98	20027
845.117	20046
845.253	19742
845.389	19807
845.525	19822
845.661	19822
845.798	19670
845.934	19666
846.07	19704
846.206	19742
846.342	19826
846.478	19708
846.614	19499
846.75	19384
846.886	19441
847.022	19483
847.158	19308
847.294	19384
847.429	19506
847.565	19346
847.701	19704
847.837	19156
847.972	19110
848.108	19168
848.244	19194
848.379	19000
848.515	19015
848.65	18981
848.786	19004
848.921	19027
849.057	19126
849.192	18951
849.328	19046
849.463	18916
849.598	19027
849.734	18894
849.869	18817
850.004	18711
850.14	18787
850.275	18696
850.41	18608
850.545	18616
850.68	18764
850.815	18696
850.95	18646
851.085	18802
851.22	18821
851.355	18608
851.49	18627
851.625	18612
851.76	18627
851.895	18635
852.03	18555
852.165	18700
852.299	18547
852.434	18837
852.569	18741
852.703	18654
852.838	18738
852.973	18768
853.107	18764
853.242	18623
853.376	18513
853.511	18353
853.645	18357
853.78	18589
853.914	18388
854.048	18361
854.183	18452
854.317	18551
854.451	18700
854.585	18517
854.72	18448
854.854	18547
854.988	18498
855.122	18528
855.256	18342
855.39	18376
855.524	18661
855.658	18536
855.792	18429
855.926	18460
856.06	18578
856.194	18540
856.327	18566
856.461	18369
856.595	18464
856.729	18365
856.862	18593
856.996	18540
857.13	18479
857.263	18563
857.397	18528
857.53	18391
857.664	18376
857.797	18483
857.931	18502
858.064	18490
858.197	18646
858.331	18441
858.464	18357
858.597	18285
858.731	18395
858.864	18323
858.997	18262
859.13	18410
859.263	18365
859.396	18391
859.529	18289
859.662	18327
859.795	18327
859.928	18357
860.061	18540
860.194	18506
860.327	18346
860.46	18422
860.592	18361
860.725	18467
860.858	18498
860.99	18350
861.123	18266
861.256	18216
861.388	18414
861.521	18958
861.653	18220
861.786	18209
861.918	18361
862.05	18414
862.183	18395
862.315	18429
862.447	18479
862.58	18304
862.712	18205
862.844	18102
862.976	18133
863.108	18163
863.24	18486
863.372	17984
863.504	18030
863.636	18026
863.768	18209
863.9	18019
864.032	18057
864.164	17999
864.296	18098
864.428	18243
864.559	18159
864.691	18079
864.823	18133
864.954	18098
865.086	18034
865.217	18034
865.349	17923
865.48	18045
865.612	18041
865.743	18133
865.875	18083
866.006	17851
866.137	18064
866.269	18026
866.4	17969
866.531	18026
866.662	17912
866.793	17988
866.924	18022
867.055	17935
867.186	17996
867.317	17980
867.448	17783
867.579	17885
867.71	17939
867.841	17817
867.972	18076
868.103	17927
868.233	17954
868.364	17935
868.495	17973
868.625	18205
868.756	18270
868.886	18133
869.017	18167
869.147	18342
869.278	18239
869.408	18247
869.539	18167
869.669	18361
869.799	18190
869.929	18414
870.06	18205
870.19	18540
870.32	18559
870.45	18578
870.58	18597
870.71	18741
870.84	18738
870.97	18566
871.1	18574
871.23	18837
871.36	18825
871.489	18692
871.619	18806
871.749	18798
871.879	18791
872.008	18916
872.138	18798
872.267	18692
872.397	18669
872.526	18623
872.656	18528
872.785	18654
872.915	18840
873.044	18939
873.173	18825
873.303	18951
873.432	18882
873.561	18890
873.69	18920
873.819	18787
873.948	18913
874.077	18821
874.206	18760
874.335	18890
874.464	19038
874.593	19015
874.722	19004
874.851	19118
874.979	19027
875.108	19126
875.237	19160
875.365	18966
875.494	19190
875.623	19160
875.751	19072
875.88	19118
876.008	19266
876.136	19430
876.265	19556
876.393	19700
876.521	19601
876.65	19639
876.778	19548
876.906	19537
877.034	19571
877.162	19441
877.29	19502
877.418	19430
877.546	19533
877.674	19514
877.802	19499
877.93	19597
878.058	19426
878.185	19434
878.313	19556
878.441	19502
878.568	19354
878.696	19491
878.824	19525
878.951	19624
879.079	19670
879.206	19677
879.333	19742
879.461	19510
879.588	19628
879.715	19677
879.842	19875
879.97	19571
880.097	19381
880.224	19274
880.351	19331
880.478	19377
880.605	19308
880.732	19354
880.859	19529
880.986	19304
881.112	19354
881.239	19145
881.366	19236
881.493	19050
881.619	18947
881.746	18939
881.872	18886
881.999	18939
882.125	18909
882.252	19019
882.378	18970
882.505	19061
882.631	18791
882.757	18700
882.883	18791
883.01	18696
883.136	18551
883.262	18616
883.388	18536
883.514	18844
883.64	18768
883.766	18635
883.892	18658
884.018	18532
884.143	18745
884.269	18867
884.395	18414
884.52	18498
884.646	18433
884.772	18311
884.897	18365
885.023	18380
885.148	18452
885.274	18608
885.399	18452
885.524	18414
885.65	18456
885.775	18410
885.9	18384
886.025	18506
886.15	18399
886.275	18296
886.4	18194
886.525	18410
886.65	18228
886.775	18311
886.9	18490
887.025	18589
887.149	18281
887.274	18121
887.399	18034
887.523	18106
887.648	18102
887.773	18095
887.897	18281
888.021	18136
888.146	18041
888.27	18197
888.395	18197
888.519	18281
888.643	18235
888.767	18213
888.891	18091
889.015	18007
889.139	17954
889.263	17942
889.387	18038
889.511	18197
889.635	18057
889.759	17931
889.883	18030
890.006	18072
890.13	18102
890.254	17904
890.377	17798
890.501	17729
890.624	17668
890.748	17798
890.871	17627
890.995	17589
891.118	17455
891.241	17570
891.364	17497
891.488	17703
891.611	17566
891.734	17577
891.857	17615
891.98	17699
892.103	17783
892.226	17570
892.349	17528
892.471	17417
892.594	17516
892.717	17532
892.839	17539
892.962	17581
893.085	17672
893.207	17535
893.33	17436
893.452	17398
893.575	17585
893.697	17528
893.819	17687
893.941	17691
894.064	17608
894.186	17516
894.308	17448
894.43	17687
894.552	17748
894.674	17668
894.796	17535
894.918	17490
895.04	17570
895.161	17733
895.283	17668
895.405	17459
895.526	17558
895.648	17539
895.769	17589
895.891	17566
896.012	17836
896.134	17661
896.255	17547
896.376	17630
896.498	17600
896.619	17703
896.74	17668
896.861	17798
896.982	18026
897.103	18152
897.224	17840
897.345	17882
897.466	17859
897.587	17847
897.708	18007
897.828	17980
897.949	17786
898.07	17627
898.19	17893
898.311	17992
898.431	17832
898.552	17946
898.672	17931
898.792	17923
898.913	17904
899.033	17813
899.153	17646
899.273	17608
899.393	17505
899.513	17684
899.633	17615
899.753	17630
899.873	17516
899.993	17649
900.113	17512
900.232	17585
900.352	17516
900.472	17524
900.591	17528
900.711	17459
900.83	17482
900.95	17600
901.069	17573
901.189	17326
901.308	17117
901.427	17018
901.546	17159
901.665	17132
901.784	17033
901.904	16892
902.023	16953
902.141	16706
902.26	16641
902.379	16698
902.498	16538
902.617	16554
902.735	16538
902.854	16622
902.973	16470
903.091	16249
903.21	16344
903.328	16261
903.446	16143
903.565	16078
903.683	16265
903.801	15987
903.919	16051
904.038	16006
904.156	15949
904.274	16063
904.392	15930
904.51	15915
904.627	15819
904.745	16036
904.863	15903
904.981	15660
905.098	15652
905.216	15530
905.334	15469
905.451	15652
905.569	15420
905.686	15644
905.803	15637
905.921	15313
906.038	15454
906.155	15397
906.272	15222
906.389	15302
906.506	15036
906.623	15116
906.74	15085
906.857	14895
906.974	15013
907.091	15184
907.208	15283
907.324	15222
907.441	14956
907.557	14849
907.674	14853
907.79	14773
907.907	14731
908.023	14705
908.139	14857
908.256	14712
908.372	14712
908.488	14682
908.604	14503
908.72	14537
908.836	14526
908.952	14408
909.068	14408
909.184	14571
909.3	14507
909.415	14454
909.531	14404
909.647	14275
909.762	14153
909.878	14191
909.993	14248
910.108	14218
910.224	14126
910.339	14233
910.454	14218
910.57	14039
910.685	13864
910.8	14206
910.915	14111
911.03	14084
911.145	13913
911.259	13845
911.374	13967
911.489	13803
911.604	13681
911.718	13601
911.833	13666
911.947	13544
912.062	13362
912.176	13613
912.291	13670
912.405	13708
912.519	13875
912.633	13879
912.748	13674
912.862	13609
912.976	13434
913.09	13308
913.204	13388
913.318	13358
913.431	13540
913.545	13499
913.659	13586
913.772	13400
913.886	13384
914	13228
914.113	13339
914.226	13362
914.34	13377
914.453	13232
914.566	13320
914.68	13202
914.793	13179
914.906	12996
915.019	13042
915.132	12901
915.245	12958
915.358	12901
915.47	12954
915.583	12970
915.696	13004
915.809	13091
915.921	13065
916.034	12875
916.146	12890
916.259	12863
916.371	12970
916.483	12867
916.595	12757
916.708	12848
916.82	12829
916.932	12859
917.044	12776
917.156	12764
917.268	12707
917.38	12703
917.491	12627
917.603	12654
917.715	12726
917.826	12783
917.938	12612
918.049	12479
918.161	12673
918.272	12791
918.384	12749
918.495	12642
918.606	12437
918.717	12418
918.828	12528
918.939	12494
919.05	12323
919.161	12422
919.272	12270
919.383	12304
919.494	12467
919.604	12620
919.715	12448
919.826	12270
919.936	12391
920.047	12517
920.157	12460
920.267	12635
920.378	12460
920.488	12361
920.598	12612
920.708	12738
920.818	12555
920.928	12627
921.038	12749
921.148	12654
921.258	12479
921.368	12369
921.477	12155
921.587	12247
921.697	12076
921.806	12201
921.916	12068
922.025	11897
922.134	11889
922.244	11794
922.353	11969
922.462	11809
922.571	11630
922.68	11611
922.789	11558
922.898	11512
923.007	11429
923.116	11535
923.224	11471
923.333	11452
923.442	11448
923.55	11311
923.659	11318
923.767	11444
923.876	11318
923.984	11391
924.092	11269
924.201	11307
924.309	11341
924.417	11277
924.525	11269
924.633	11284
924.741	12186
924.849	11060
924.956	11261
925.064	11098
925.172	10965
925.279	11037
925.387	11064
925.494	11155
925.602	11174
925.709	11181
925.816	11014
925.924	11052
926.031	11102
926.138	11060
926.245	11037
926.352	10938
926.459	11033
926.566	11151
926.673	11003
926.779	10847
926.886	10869
926.993	10702
927.099	10698
927.206	10599
927.312	10664
927.419	10721
927.525	10615
927.631	10721
927.737	10664
927.843	10493
927.95	10493
928.056	10542
928.162	10561
928.267	10618
928.373	11227
928.479	10626
928.585	10322
928.69	10485
928.796	10538
928.901	10390
929.007	10333
929.112	10428
929.218	10348
929.323	10249
929.428	10314
929.533	10424
929.638	10200
929.743	10337
929.848	10341
929.953	10287
930.058	10074
930.163	10029
930.267	10063
930.372	10188
930.477	10002
930.581	10268
930.685	10059
930.79	10013
930.894	9979
930.998	9983
931.103	10010
931.207	9713
931.311	9625
931.415	9610
931.519	9332
931.623	9332
