Data from test_V78500241_2543.txt Node
Date: Fri Mar 25 15:59:25 CST 2022
User: usil
Spectrometer: V785-0024
Trigger mode: 0
Integration Time (sec): 4.000000E-1
Scans to average: 1
Nonlinearity correction enabled: false
Boxcar width: 0
Storing dark spectrum: false
XAxis mode: Wavelengths
Number of Pixels in Spectrum: 1024
>>>>>Begin Spectral Data<<<<<
801.071	28641
801.214	28599
801.356	28440
801.499	28341
801.641	28204
801.783	28265
801.926	28196
802.068	28109
802.211	28181
802.353	28101
802.496	27911
802.638	27895
802.78	27819
802.923	27774
803.065	27724
803.208	27831
803.35	27941
803.492	28006
803.635	28150
803.777	28055
803.919	28112
804.061	28405
804.204	28204
804.346	28090
804.488	28013
804.63	28097
804.773	27968
804.915	28223
805.057	28143
805.199	28116
805.341	28192
805.483	28268
805.626	28253
805.768	28196
805.91	28238
806.052	28287
806.194	28188
806.336	28390
806.478	28215
806.62	28268
806.762	28360
806.904	28569
807.046	28771
807.188	28645
807.33	28812
807.472	28847
807.614	28759
807.756	28706
807.898	28626
808.04	28474
808.182	28588
808.324	28580
808.465	28702
808.607	28835
808.749	28976
808.891	29159
809.033	29022
809.174	29079
809.316	28809
809.458	28873
809.6	28900
809.741	29006
809.883	29242
810.025	29250
810.166	29197
810.308	29334
810.45	29216
810.591	29094
810.733	28995
810.875	28904
811.016	28828
811.158	28949
811.299	29071
811.441	29181
811.582	28999
811.724	28949
811.865	28987
812.007	29010
812.148	28900
812.29	29029
812.431	29071
812.573	29311
812.714	29558
812.855	29482
812.997	29718
813.138	29729
813.279	29600
813.421	29448
813.562	29402
813.703	29185
813.845	29109
813.986	29022
814.127	28698
814.268	28748
814.41	28744
814.551	28607
814.692	28793
814.833	28626
814.974	28744
815.115	28656
815.256	28386
815.397	28485
815.539	28641
815.68	28550
815.821	28249
815.962	28512
816.103	28615
816.244	28440
816.385	28257
816.526	28215
816.666	28188
816.807	27949
816.948	28093
817.089	27998
817.23	28021
817.371	28067
817.512	27869
817.653	27941
817.793	27835
817.934	27991
818.075	27983
818.216	28021
818.356	27797
818.497	27743
818.638	27682
818.778	27823
818.919	27823
819.06	27785
819.2	27892
819.341	27926
819.481	27850
819.622	28192
819.762	28375
819.903	28394
820.043	28086
820.184	28063
820.324	28002
820.465	28181
820.605	28124
820.746	27941
820.886	27895
821.026	28013
821.167	27994
821.307	28120
821.447	28059
821.588	27831
821.728	27804
821.868	27606
822.008	27458
822.149	27557
822.289	27389
822.429	27207
822.569	27173
822.709	27207
822.849	26891
822.99	26960
823.13	26887
823.27	26895
823.41	26716
823.55	26530
823.69	26765
823.83	26674
823.97	26872
824.11	26545
824.25	26541
824.389	26537
824.529	26682
824.669	26613
824.809	26625
824.949	26705
825.089	26823
825.228	26609
825.368	26492
825.508	26575
825.648	26571
825.787	26484
825.927	26754
826.067	26381
826.206	26415
826.346	26514
826.485	26499
826.625	26552
826.765	26598
826.904	26537
827.044	26343
827.183	26282
827.323	26210
827.462	26320
827.601	26164
827.741	26290
827.88	26362
828.02	26145
828.159	26130
828.298	26183
828.437	26199
828.577	26024
828.716	26320
828.855	26031
828.994	25852
829.134	26077
829.273	25879
829.412	25906
829.551	25822
829.69	25784
829.829	25883
829.968	25997
830.107	25894
830.246	25738
830.385	25818
830.524	25719
830.663	25647
830.802	25712
830.941	25472
831.08	25548
831.219	25556
831.357	25575
831.496	25803
831.635	25460
831.774	25438
831.913	25343
832.051	25426
832.19	25247
832.329	25396
832.467	25324
832.606	25156
832.744	25171
832.883	25198
833.022	25012
833.16	25282
833.299	25373
833.437	25217
833.576	25312
833.714	25289
833.852	25324
833.991	25358
834.129	25453
834.267	25343
834.406	25285
834.544	25301
834.682	25259
834.821	25190
834.959	25400
835.097	25236
835.235	25320
835.373	25244
835.511	25179
835.65	25171
835.788	25145
835.926	24981
836.064	24787
836.202	24897
836.34	25072
836.478	25168
836.615	25099
836.753	25046
836.891	25148
837.029	25099
837.167	25042
837.305	25031
837.443	24996
837.58	24817
837.718	24954
837.856	24962
837.993	24753
838.131	24985
838.269	24753
838.406	24905
838.544	24711
838.681	24551
838.819	24490
838.956	24418
839.094	24410
839.231	24441
839.369	24673
839.506	24783
839.643	24555
839.781	24372
839.918	24350
840.055	24311
840.193	24330
840.33	24190
840.467	24319
840.604	24281
840.742	24448
840.879	24262
841.016	24190
841.153	24129
841.29	24448
841.427	24289
841.564	24350
841.701	24281
841.838	24144
841.975	24220
842.112	24159
842.249	24018
842.385	23999
842.522	24171
842.659	24159
842.796	24007
842.933	24011
843.069	23920
843.206	23950
843.343	24171
843.479	23901
843.616	23996
843.752	23847
843.889	23771
844.025	23942
844.162	23737
844.298	23920
844.435	23726
844.571	23783
844.708	23843
844.844	23908
844.98	23961
845.117	23927
845.253	23798
845.389	23558
845.525	23691
845.661	23729
845.798	23440
845.934	23444
846.07	23528
846.206	23471
846.342	23707
846.478	23501
846.614	23326
846.75	23094
846.886	23277
847.022	23288
847.158	23303
847.294	23269
847.429	23383
847.565	23273
847.701	23573
847.837	23041
847.972	23056
848.108	23048
848.244	22991
848.379	22877
848.515	22862
848.65	22736
848.786	22790
848.921	22881
849.057	22957
849.192	22889
849.328	22847
849.463	22900
849.598	22767
849.734	22759
849.869	22744
850.004	22542
850.14	22569
850.275	22615
850.41	22451
850.545	22592
850.68	22565
850.815	22683
850.95	22615
851.085	22877
851.22	22767
851.355	22736
851.49	22561
851.625	22618
851.76	22603
851.895	22512
852.03	22538
852.165	22592
852.299	22664
852.434	22466
852.569	22554
852.703	22694
852.838	22599
852.973	22634
853.107	22687
853.242	22535
853.376	22436
853.511	22462
853.645	22485
853.78	22508
853.914	22421
854.048	22390
854.183	22287
854.317	22356
854.451	22611
854.585	22497
854.72	22371
854.854	22474
854.988	22325
855.122	22390
855.256	22508
855.39	22306
855.524	22535
855.658	22459
855.792	22447
855.926	22512
856.06	22561
856.194	22504
856.327	22440
856.461	22356
856.595	22443
856.729	22451
856.862	22573
856.996	22417
857.13	22367
857.263	22481
857.397	22615
857.53	22329
857.664	22455
857.797	22421
857.931	22542
858.064	22428
858.197	22557
858.331	22352
858.464	22341
858.597	22405
858.731	22413
858.864	22481
858.997	22516
859.13	22451
859.263	22409
859.396	22584
859.529	22424
859.662	22443
859.795	22459
859.928	22413
860.061	22546
860.194	22637
860.327	22398
860.46	22394
860.592	22474
860.725	22497
860.858	22615
860.99	22436
861.123	22390
861.256	22322
861.388	22390
861.521	23056
861.653	22363
861.786	22287
861.918	22295
862.05	22348
862.183	22337
862.315	22386
862.447	22360
862.58	22394
862.712	22109
862.844	22070
862.976	22177
863.108	22303
863.24	22512
863.372	22192
863.504	22173
863.636	22147
863.768	22169
863.9	22112
864.032	22101
864.164	22112
864.296	22158
864.428	22246
864.559	22051
864.691	22257
864.823	22177
864.954	22082
865.086	22078
865.217	22093
865.349	21937
865.48	21991
865.612	22097
865.743	22242
865.875	22135
866.006	21915
866.137	22036
866.269	22093
866.4	21964
866.531	21991
866.662	21842
866.793	21941
866.924	21987
867.055	21892
867.186	21941
867.317	21857
867.448	21835
867.579	21895
867.71	21899
867.841	21998
867.972	21873
868.103	22029
868.233	21892
868.364	21915
868.495	21953
868.625	22082
868.756	22223
868.886	21991
869.017	22128
869.147	22253
869.278	22185
869.408	22215
869.539	22299
869.669	22166
869.799	22329
869.929	22314
870.06	22242
870.19	22478
870.32	22462
870.45	22512
870.58	22561
870.71	22641
870.84	22763
870.97	22493
871.1	22550
871.23	22805
871.36	22729
871.489	22683
871.619	22721
871.749	22698
871.879	22839
872.008	22782
872.138	22797
872.267	22809
872.397	22634
872.526	22603
872.656	22474
872.785	22470
872.915	22820
873.044	22854
873.173	22759
873.303	22790
873.432	22824
873.561	22835
873.69	22873
873.819	22793
873.948	22790
874.077	22767
874.206	22858
874.335	22649
874.464	22942
874.593	22881
874.722	22938
874.851	22976
874.979	23048
875.108	23117
875.237	22946
875.365	22858
875.494	22934
875.623	23067
875.751	22968
875.88	22984
876.008	23128
876.136	23231
876.265	23421
876.393	23493
876.521	23577
876.65	23493
876.778	23509
876.906	23368
877.034	23261
877.162	23254
877.29	23265
877.418	23345
877.546	23429
877.674	23307
877.802	23376
877.93	23269
878.058	23216
878.185	23128
878.313	23174
878.441	23261
878.568	23166
878.696	23223
878.824	23364
878.951	23417
879.079	23551
879.206	23509
879.333	23455
879.461	23360
879.588	23425
879.715	23524
879.842	23604
879.97	23372
880.097	23159
880.224	23143
880.351	23136
880.478	23235
880.605	23151
880.732	23083
880.859	23368
880.986	23212
881.112	23151
881.239	23010
881.366	22839
881.493	22824
881.619	22721
881.746	22767
881.872	22767
881.999	22580
882.125	22706
882.252	22748
882.378	22569
882.505	22736
882.631	22630
882.757	22481
882.883	22542
883.01	22402
883.136	22428
883.262	22348
883.388	22223
883.514	22432
883.64	22272
883.766	22363
883.892	22063
884.018	22169
884.143	22284
884.269	22310
884.395	22040
884.52	21884
884.646	22010
884.772	22090
884.897	21949
885.023	22090
885.148	21975
885.274	22234
885.399	22067
885.524	22063
885.65	21979
885.775	21945
885.9	21956
886.025	22059
886.15	22032
886.275	21895
886.4	21945
886.525	22059
886.65	21964
886.775	21876
886.9	22128
887.025	22291
887.149	21968
887.274	21835
887.399	21842
887.523	21789
887.648	21682
887.773	21755
887.897	21800
888.021	21759
888.146	21694
888.27	21838
888.395	21937
888.519	21857
888.643	21713
888.767	21831
888.891	21561
889.015	21572
889.139	21759
889.263	21606
889.387	21770
889.511	21789
889.635	21762
889.759	21583
889.883	21599
890.006	21690
890.13	21679
890.254	21477
890.377	21507
890.501	21329
890.624	21340
890.748	21378
890.871	21249
890.995	21081
891.118	21043
891.241	21104
891.364	21093
891.488	21283
891.611	21089
891.734	21074
891.857	21165
891.98	21192
892.103	21207
892.226	21119
892.349	21039
892.471	20979
892.594	21032
892.717	21123
892.839	21024
892.962	20998
893.085	21135
893.207	21070
893.33	20986
893.452	20990
893.575	21036
893.697	20956
893.819	21051
893.941	21340
894.064	21169
894.186	20880
894.308	20887
894.43	21058
894.552	21066
894.674	21096
894.796	20975
894.918	20982
895.04	20952
895.161	21096
895.283	20956
895.405	20853
895.526	20918
895.648	21013
895.769	21058
895.891	21123
896.012	21146
896.134	21017
896.255	20979
896.376	20967
896.498	20956
896.619	20975
896.74	21055
896.861	21096
896.982	21336
897.103	21443
897.224	21332
897.345	21188
897.466	21184
897.587	21146
897.708	21321
897.828	21256
897.949	21119
898.07	20998
898.19	20975
898.311	21321
898.431	21108
898.552	21230
898.672	21389
898.792	21313
898.913	21241
899.033	21188
899.153	20998
899.273	20853
899.393	20853
899.513	20998
899.633	20891
899.753	20906
899.873	21039
899.993	20975
900.113	20826
900.232	20876
900.352	20769
900.472	20716
900.591	20621
900.711	20727
900.83	20727
900.95	20838
901.069	20838
901.189	20556
901.308	20396
901.427	20221
901.546	20271
901.665	20320
901.784	20263
901.904	20278
902.023	20024
902.141	19860
902.26	19795
902.379	19830
902.498	19731
902.617	19696
902.735	19841
902.854	19890
902.973	19704
903.091	19464
903.21	19449
903.328	19350
903.446	19381
903.565	19236
903.683	19164
903.801	19038
903.919	19168
904.038	19091
904.156	19008
904.274	19137
904.392	18905
904.51	19004
904.627	19019
904.745	19046
904.863	19050
904.981	18593
905.098	18696
905.216	18620
905.334	18627
905.451	18749
905.569	18654
905.686	18787
905.803	18612
905.921	18502
906.038	18589
906.155	18486
906.272	18460
906.389	18350
906.506	18224
906.623	18224
906.74	18220
906.857	17988
906.974	18129
907.091	18239
907.208	18228
907.324	18262
907.441	18106
907.557	17916
907.674	17977
907.79	17939
907.907	17832
908.023	17920
908.139	17908
908.256	17756
908.372	17878
908.488	17676
908.604	17596
908.72	17562
908.836	17520
908.952	17604
909.068	17642
909.184	17764
909.3	17623
909.415	17615
909.531	17767
909.647	17398
909.762	17383
909.878	17261
909.993	17273
910.108	17330
910.224	17311
910.339	17235
910.454	17151
910.57	17220
910.685	17090
910.8	17239
910.915	17261
911.03	17056
911.145	16938
911.259	16915
911.374	16847
911.489	16824
911.604	16694
911.718	16618
911.833	16592
911.947	16516
912.062	16474
912.176	16721
912.291	16618
912.405	16729
912.519	16820
912.633	16782
912.748	16679
912.862	16615
912.976	16459
913.09	16337
913.204	16424
913.318	16333
913.431	16561
913.545	16584
913.659	16531
913.772	16489
913.886	16284
914	16112
914.113	16344
914.226	16356
914.34	16265
914.453	16192
914.566	16253
914.68	16067
914.793	16063
914.906	15865
915.019	15759
915.132	15800
915.245	15827
915.358	15827
915.47	15869
915.583	15747
915.696	15755
915.809	15865
915.921	15934
916.034	15827
916.146	15774
916.259	15686
916.371	15759
916.483	15770
916.595	15580
916.708	15614
916.82	15625
916.932	15557
917.044	15545
917.156	15580
917.268	15507
917.38	15382
917.491	15473
917.603	15477
917.715	15526
917.826	15538
917.938	15408
918.049	15249
918.161	15382
918.272	15542
918.384	15462
918.495	15302
918.606	15222
918.717	15055
918.828	15283
918.939	15287
919.05	15051
919.161	15211
919.272	14990
919.383	14937
919.494	15131
919.604	15378
919.715	15199
919.826	15077
919.936	15169
920.047	15161
920.157	15058
920.267	15355
920.378	15203
920.488	15024
920.598	15241
920.708	15340
920.818	15260
920.928	15283
921.038	15332
921.148	15386
921.258	15116
921.368	15058
921.477	14857
921.587	14815
921.697	14807
921.806	14834
921.916	14682
922.025	14503
922.134	14495
922.244	14404
922.353	14518
922.462	14377
922.571	14317
922.68	14149
922.789	14164
922.898	14134
923.007	14054
923.116	14092
923.224	14157
923.333	14054
923.442	13947
923.55	13959
923.659	13928
923.767	13963
923.876	13875
923.984	13898
924.092	13788
924.201	13811
924.309	13811
924.417	13803
924.525	13761
924.633	13742
924.741	14629
924.849	13563
924.956	13620
925.064	13605
925.172	13396
925.279	13377
925.387	13495
925.494	13491
925.602	13594
925.709	13552
925.816	13358
925.924	13483
926.031	13480
926.138	13502
926.245	13441
926.352	13411
926.459	13544
926.566	13502
926.673	13400
926.779	13171
926.886	13160
926.993	13114
927.099	13107
927.206	12977
927.312	13012
927.419	13122
927.525	13004
927.631	13088
927.737	12905
927.843	12894
927.95	12757
928.056	12856
928.162	12840
928.267	12810
928.373	13537
928.479	12909
928.585	12760
928.69	12753
928.796	12897
928.901	12722
929.007	12540
929.112	12730
929.218	12559
929.323	12597
929.428	12563
929.533	12810
929.638	12525
929.743	12509
929.848	12616
929.953	12547
930.058	12399
930.163	12243
930.267	12228
930.372	12407
930.477	12144
930.581	12342
930.685	12270
930.79	12228
930.894	12201
930.998	12068
931.103	12140
931.207	11847
931.311	11779
931.415	11710
931.519	11482
931.623	11414
