Data from test_V78500241_3450.txt Node
Date: Fri Mar 25 16:05:42 CST 2022
User: usil
Spectrometer: V785-0024
Trigger mode: 0
Integration Time (sec): 4.000000E-1
Scans to average: 1
Nonlinearity correction enabled: false
Boxcar width: 0
Storing dark spectrum: false
XAxis mode: Wavelengths
Number of Pixels in Spectrum: 1024
>>>>>Begin Spectral Data<<<<<
801.071	28984
801.214	28847
801.356	28637
801.499	28660
801.641	28588
801.783	28523
801.926	28459
802.068	28542
802.211	28382
802.353	28504
802.496	28276
802.638	28295
802.78	28177
802.923	28105
803.065	28154
803.208	28090
803.35	28211
803.492	28398
803.635	28211
803.777	28272
803.919	28436
804.061	28790
804.204	28554
804.346	28409
804.488	28386
804.63	28436
804.773	28489
804.915	28405
805.057	28546
805.199	28618
805.341	28557
805.483	28767
805.626	28519
805.768	28390
805.91	28611
806.052	28641
806.194	28554
806.336	28812
806.478	28797
806.62	28546
806.762	28717
806.904	28927
807.046	29060
807.188	28961
807.33	29102
807.472	29136
807.614	29094
807.756	29006
807.898	28942
808.04	28790
808.182	28866
808.324	28927
808.465	28892
808.607	29258
808.749	29356
808.891	29353
809.033	29368
809.174	29440
809.316	29254
809.458	29280
809.6	29223
809.741	29277
809.883	29463
810.025	29634
810.166	29741
810.308	29528
810.45	29558
810.591	29512
810.733	29421
810.875	29398
811.016	29318
811.158	29178
811.299	29303
811.441	29425
811.582	29455
811.724	29417
811.865	29277
812.007	29425
812.148	29337
812.29	29330
812.431	29695
812.573	29718
812.714	29904
812.855	29927
812.997	29794
813.138	30129
813.279	29931
813.421	29988
813.562	29843
813.703	29657
813.845	29535
813.986	29220
814.127	29254
814.268	29060
814.41	28995
814.551	29025
814.692	29121
814.833	29109
814.974	29022
815.115	29071
815.256	28942
815.397	28888
815.539	28972
815.68	28778
815.821	28847
815.962	28820
816.103	28930
816.244	28824
816.385	28694
816.526	28592
816.666	28565
816.807	28272
816.948	28417
817.089	28497
817.23	28367
817.371	28474
817.512	28310
817.653	28333
817.793	28287
817.934	28337
818.075	28466
818.216	28512
818.356	28401
818.497	28314
818.638	28112
818.778	28120
818.919	28124
819.06	28242
819.2	28215
819.341	28493
819.481	28337
819.622	28531
819.762	28729
819.903	28687
820.043	28668
820.184	28596
820.324	28497
820.465	28679
820.605	28508
820.746	28584
820.886	28455
821.026	28329
821.167	28306
821.307	28569
821.447	28459
821.588	28314
821.728	28139
821.868	27979
822.008	27956
822.149	27873
822.289	27842
822.429	27656
822.569	27553
822.709	27553
822.849	27359
822.99	27496
823.13	27462
823.27	27382
823.41	27241
823.55	27077
823.69	27332
823.83	27237
823.97	27013
824.11	27081
824.25	27036
824.389	27116
824.529	27074
824.669	26975
824.809	27081
824.949	27252
825.089	27116
825.228	27123
825.368	26826
825.508	26918
825.648	26826
825.787	26948
825.927	27055
826.067	27001
826.206	26762
826.346	26990
826.485	26963
826.625	26963
826.765	27043
826.904	26918
827.044	26815
827.183	26678
827.323	26549
827.462	26754
827.601	26769
827.741	26552
827.88	26849
828.02	26492
828.159	26564
828.298	26545
828.437	26640
828.577	26552
828.716	26667
828.855	26453
828.994	26423
829.134	26313
829.273	26343
829.412	26278
829.551	26073
829.69	26355
829.829	26423
829.968	26309
830.107	26366
830.246	26263
830.385	26271
830.524	26225
830.663	26187
830.802	26039
830.941	25944
831.08	25890
831.219	26050
831.357	26153
831.496	26195
831.635	25898
831.774	25940
831.913	25852
832.051	25731
832.19	25727
832.329	25624
832.467	25586
832.606	25491
832.744	25556
832.883	25590
833.022	25499
833.16	25605
833.299	25575
833.437	25639
833.576	25658
833.714	25548
833.852	25738
833.991	25674
834.129	25719
834.267	25639
834.406	25628
834.544	25677
834.682	25719
834.821	25597
834.959	25719
835.097	25731
835.235	25712
835.373	25605
835.511	25647
835.65	25556
835.788	25632
835.926	25434
836.064	25263
836.202	25327
836.34	25422
836.478	25518
836.615	25525
836.753	25499
836.891	25616
837.029	25491
837.167	25479
837.305	25392
837.443	25293
837.58	25232
837.718	25339
837.856	25396
837.993	25377
838.131	25422
838.269	25145
838.406	25209
838.544	25251
838.681	24989
838.819	24932
838.956	24681
839.094	24700
839.231	24707
839.369	24924
839.506	25183
839.643	25015
839.781	24703
839.918	24726
840.055	24696
840.193	24642
840.33	24745
840.467	24669
840.604	24658
840.742	25019
840.879	24528
841.016	24593
841.153	24589
841.29	24749
841.427	24570
841.564	24715
841.701	24639
841.838	24505
841.975	24559
842.112	24574
842.249	24635
842.385	24357
842.522	24658
842.659	24483
842.796	24414
842.933	24483
843.069	24292
843.206	24384
843.343	24467
843.479	24372
843.616	24346
843.752	24205
843.889	24311
844.025	24315
844.162	24220
844.298	24304
844.435	24235
844.571	24266
844.708	24262
844.844	24365
844.98	24365
845.117	24391
845.253	24155
845.389	24083
845.525	24110
845.661	23996
845.798	24011
845.934	24102
846.07	23901
846.206	23961
846.342	24129
846.478	23832
846.614	23657
846.75	23490
846.886	23619
847.022	23733
847.158	23855
847.294	23672
847.429	23676
847.565	23741
847.701	23843
847.837	23414
847.972	23391
848.108	23509
848.244	23459
848.379	23254
848.515	23189
848.65	23170
848.786	23231
848.921	23235
849.057	23360
849.192	23368
849.328	23212
849.463	23242
849.598	23277
849.734	23197
849.869	23216
850.004	23121
850.14	23006
850.275	23006
850.41	22942
850.545	22820
850.68	23014
850.815	22942
850.95	22942
851.085	23258
851.22	23067
851.355	23056
851.49	23037
851.625	22991
851.76	22877
851.895	22968
852.03	23006
852.165	23083
852.299	23029
852.434	22946
852.569	23086
852.703	23060
852.838	22999
852.973	23102
853.107	23143
853.242	22908
853.376	22752
853.511	22660
853.645	22729
853.78	22995
853.914	22809
854.048	22923
854.183	22752
854.317	22854
854.451	23010
854.585	22759
854.72	22748
854.854	22862
854.988	22698
855.122	22771
855.256	22702
855.39	22809
855.524	22850
855.658	22820
855.792	22828
855.926	22778
856.06	22919
856.194	22919
856.327	22694
856.461	22656
856.595	22782
856.729	22759
856.862	22896
856.996	22881
857.13	22805
857.263	22987
857.397	22999
857.53	22774
857.664	22767
857.797	22965
857.931	22881
858.064	22847
858.197	22991
858.331	22748
858.464	22915
858.597	22748
858.731	22812
858.864	22656
858.997	22694
859.13	22820
859.263	22782
859.396	22923
859.529	22839
859.662	22672
859.795	22755
859.928	22854
860.061	22927
860.194	23029
860.327	22862
860.46	22809
860.592	22896
860.725	22900
860.858	22854
860.99	22816
861.123	22668
861.256	22759
861.388	22759
861.521	23429
861.653	22736
861.786	22664
861.918	22702
862.05	22790
862.183	22721
862.315	22850
862.447	22687
862.58	22816
862.712	22538
862.844	22478
862.976	22577
863.108	22717
863.24	22900
863.372	22489
863.504	22630
863.636	22447
863.768	22656
863.9	22565
864.032	22561
864.164	22478
864.296	22565
864.428	22569
864.559	22622
864.691	22542
864.823	22538
864.954	22421
865.086	22546
865.217	22432
865.349	22344
865.48	22417
865.612	22382
865.743	22481
865.875	22428
866.006	22344
866.137	22451
866.269	22481
866.4	22405
866.531	22303
866.662	22299
866.793	22329
866.924	22329
867.055	22379
867.186	22371
867.317	22272
867.448	22249
867.579	22402
867.71	22276
867.841	22299
867.972	22341
868.103	22303
868.233	22333
868.364	22325
868.495	22447
868.625	22664
868.756	22752
868.886	22550
869.017	22573
869.147	22649
869.278	22691
869.408	22588
869.539	22478
869.669	22683
869.799	22607
869.929	22710
870.06	22557
870.19	22908
870.32	22839
870.45	23022
870.58	22965
870.71	23067
870.84	23044
870.97	22953
871.1	22968
871.23	23242
871.36	23155
871.489	23090
871.619	23044
871.749	23197
871.879	23178
872.008	23128
872.138	23143
872.267	23170
872.397	23064
872.526	23102
872.656	23003
872.785	23037
872.915	23273
873.044	23296
873.173	23151
873.303	23212
873.432	23102
873.561	23261
873.69	23379
873.819	23277
873.948	23239
874.077	23014
874.206	23132
874.335	23159
874.464	23235
874.593	23303
874.722	23376
874.851	23474
874.979	23535
875.108	23414
875.237	23364
875.365	23421
875.494	23425
875.623	23395
875.751	23368
875.88	23463
876.008	23512
876.136	23611
876.265	23786
876.393	23942
876.521	23771
876.65	23805
876.778	23779
876.906	23691
877.034	23767
877.162	23798
877.29	23668
877.418	23726
877.546	23699
877.674	23745
877.802	23764
877.93	23733
878.058	23745
878.185	23585
878.313	23520
878.441	23729
878.568	23524
878.696	23649
878.824	23775
878.951	23878
879.079	23901
879.206	23984
879.333	23931
879.461	23684
879.588	23832
879.715	23904
879.842	24117
879.97	23733
880.097	23630
880.224	23497
880.351	23604
880.478	23547
880.605	23528
880.732	23570
880.859	23649
880.986	23471
881.112	23627
881.239	23467
881.366	23265
881.493	23197
881.619	23166
881.746	23041
881.872	23044
881.999	23067
882.125	23041
882.252	23220
882.378	23044
882.505	23204
882.631	22881
882.757	22843
882.883	22828
883.01	22744
883.136	22630
883.262	22626
883.388	22653
883.514	22755
883.64	22771
883.766	22691
883.892	22557
884.018	22538
884.143	22630
884.269	22778
884.395	22535
884.52	22352
884.646	22394
884.772	22344
884.897	22352
885.023	22348
885.148	22409
885.274	22500
885.399	22428
885.524	22379
885.65	22554
885.775	22341
885.9	22257
886.025	22561
886.15	22295
886.275	22265
886.4	22226
886.525	22318
886.65	22325
886.775	22318
886.9	22531
887.025	22565
887.149	22325
887.274	22082
887.399	22093
887.523	22067
887.648	22181
887.773	22025
887.897	22242
888.021	22139
888.146	22128
888.27	22215
888.395	22158
888.519	22185
888.643	22344
888.767	22196
888.891	21937
889.015	21907
889.139	21968
889.263	21922
889.387	22044
889.511	22086
889.635	22116
889.759	21911
889.883	21960
890.006	22036
890.13	22048
890.254	21812
890.377	21827
890.501	21637
890.624	21762
890.748	21591
890.871	21553
890.995	21389
891.118	21466
891.241	21568
891.364	21583
891.488	21557
891.611	21538
891.734	21534
891.857	21587
891.98	21492
892.103	21572
892.226	21603
892.349	21408
892.471	21294
892.594	21454
892.717	21530
892.839	21397
892.962	21420
893.085	21374
893.207	21294
893.33	21241
893.452	21370
893.575	21428
893.697	21249
893.819	21526
893.941	21717
894.064	21545
894.186	21310
894.308	21370
894.43	21336
894.552	21504
894.674	21401
894.796	21169
894.918	21405
895.04	21321
895.161	21447
895.283	21393
895.405	21321
895.526	21264
895.648	21332
895.769	21378
895.891	21374
896.012	21469
896.134	21473
896.255	21420
896.376	21306
896.498	21287
896.619	21428
896.74	21329
896.861	21420
896.982	21686
897.103	21846
897.224	21587
897.345	21450
897.466	21469
897.587	21504
897.708	21663
897.828	21462
897.949	21386
898.07	21469
898.19	21401
898.311	21580
898.431	21557
898.552	21466
898.672	21576
898.792	21549
898.913	21747
899.033	21401
899.153	21294
899.273	21252
899.393	21313
899.513	21302
899.633	21386
899.753	21302
899.873	21150
899.993	21279
900.113	21146
900.232	21287
900.352	21218
900.472	21138
900.591	20982
900.711	20979
900.83	20925
900.95	21119
901.069	21123
901.189	20872
901.308	20689
901.427	20503
901.546	20594
901.665	20655
901.784	20629
901.904	20393
902.023	20370
902.141	20138
902.26	20218
902.379	20244
902.498	20145
902.617	20084
902.735	20206
902.854	20214
902.973	19940
903.091	19814
903.21	19689
903.328	19807
903.446	19597
903.565	19578
903.683	19544
903.801	19457
903.919	19441
904.038	19468
904.156	19293
904.274	19289
904.392	19194
904.51	19274
904.627	19327
904.745	19320
904.863	19350
904.981	19133
905.098	18962
905.216	18973
905.334	19072
905.451	18970
905.569	18939
905.686	19038
905.803	18939
905.921	18779
906.038	18856
906.155	18764
906.272	18684
906.389	18642
906.506	18513
906.623	18517
906.74	18494
906.857	18372
906.974	18483
907.091	18422
907.208	18593
907.324	18555
907.441	18433
907.557	18190
907.674	18235
907.79	18174
907.907	18220
908.023	18144
908.139	18197
908.256	18167
908.372	18129
908.488	18117
908.604	18049
908.72	18011
908.836	17950
908.952	17771
909.068	17946
909.184	17897
909.3	17950
909.415	18064
909.531	17931
909.647	17623
909.762	17604
909.878	17604
909.993	17642
910.108	17547
910.224	17524
910.339	17551
910.454	17448
910.57	17436
910.685	17379
910.8	17649
910.915	17592
911.03	17467
911.145	17197
911.259	17250
911.374	17242
911.489	17170
911.604	17064
911.718	16896
911.833	16866
911.947	16771
912.062	16812
912.176	16866
912.291	16900
912.405	16961
912.519	17113
912.633	17003
912.748	16896
912.862	16911
912.976	16713
913.09	16675
913.204	16729
913.318	16717
913.431	16790
913.545	16850
913.659	16801
913.772	16626
913.886	16447
914	16546
914.113	16675
914.226	16596
914.34	16573
914.453	16409
914.566	16459
914.68	16386
914.793	16310
914.906	16162
915.019	16150
915.132	16055
915.245	16071
915.358	16051
915.47	16059
915.583	16097
915.696	16067
915.809	16147
915.921	16341
916.034	16071
916.146	16093
916.259	15972
916.371	15994
916.483	15895
916.595	15953
916.708	15857
916.82	15895
916.932	15873
917.044	15895
917.156	15724
917.268	15679
917.38	15690
917.491	15671
917.603	15667
917.715	15835
917.826	15804
917.938	15622
918.049	15591
918.161	15682
918.272	15785
918.384	15667
918.495	15629
918.606	15477
918.717	15405
918.828	15458
918.939	15466
919.05	15272
919.161	15424
919.272	15131
919.383	15256
919.494	15428
919.604	15557
919.715	15443
919.826	15260
919.936	15317
920.047	15466
920.157	15439
920.267	15530
920.378	15431
920.488	15317
920.598	15530
920.708	15648
920.818	15530
920.928	15580
921.038	15663
921.148	15576
921.258	15294
921.368	15256
921.477	15116
921.587	15150
921.697	14963
921.806	15066
921.916	14921
922.025	14762
922.134	14762
922.244	14682
922.353	14754
922.462	14648
922.571	14640
922.68	14362
922.789	14419
922.898	14343
923.007	14294
923.116	14434
923.224	14450
923.333	14347
923.442	14240
923.55	14164
923.659	14248
923.767	14278
923.876	14199
923.984	14103
924.092	14008
924.201	14073
924.309	14096
924.417	14054
924.525	13936
924.633	13978
924.741	14948
924.849	13693
924.956	13947
925.064	13845
925.172	13681
925.279	13734
925.387	13753
925.494	13757
925.602	13830
925.709	13704
925.816	13636
925.924	13670
926.031	13776
926.138	13597
926.245	13765
926.352	13548
926.459	13784
926.566	13799
926.673	13575
926.779	13468
926.886	13350
926.993	13297
927.099	13240
927.206	13187
927.312	13228
927.419	13362
927.525	13259
927.631	13285
927.737	13213
927.843	13175
927.95	12985
928.056	13145
928.162	13061
928.267	13179
928.373	13833
928.479	13145
928.585	12772
928.69	13038
928.796	13000
928.901	12905
929.007	12867
929.112	12909
929.218	12913
929.323	12829
929.428	12844
929.533	12856
929.638	12719
929.743	12692
929.848	12692
929.953	12711
930.058	12662
930.163	12429
930.267	12483
930.372	12650
930.477	12315
930.581	12635
930.685	12475
930.79	12357
930.894	12308
930.998	12289
931.103	12513
931.207	12011
931.311	12060
931.415	11851
931.519	11786
931.623	11680
