Data from test_V78500241_3176.txt Node
Date: Fri Mar 25 16:03:48 CST 2022
User: usil
Spectrometer: V785-0024
Trigger mode: 0
Integration Time (sec): 4.000000E-1
Scans to average: 1
Nonlinearity correction enabled: false
Boxcar width: 0
Storing dark spectrum: false
XAxis mode: Wavelengths
Number of Pixels in Spectrum: 1024
>>>>>Begin Spectral Data<<<<<
801.071	28561
801.214	28592
801.356	28306
801.499	28398
801.641	28280
801.783	28162
801.926	28173
802.068	28124
802.211	28154
802.353	28112
802.496	27930
802.638	27793
802.78	27876
802.923	27812
803.065	27797
803.208	27720
803.35	27892
803.492	28207
803.635	28097
803.777	27914
803.919	28059
804.061	28230
804.204	28223
804.346	27975
804.488	28017
804.63	28112
804.773	28013
804.915	28249
805.057	28322
805.199	28105
805.341	28173
805.483	28257
805.626	28200
805.768	28074
805.91	28409
806.052	28527
806.194	28291
806.336	28421
806.478	28352
806.62	28192
806.762	28265
806.904	28554
807.046	28759
807.188	28630
807.33	28713
807.472	28828
807.614	28649
807.756	28767
807.898	28466
808.04	28565
808.182	28405
808.324	28523
808.465	28550
808.607	28839
808.749	28923
808.891	28987
809.033	28946
809.174	29022
809.316	29029
809.458	28866
809.6	28877
809.741	28984
809.883	29113
810.025	29254
810.166	29159
810.308	29299
810.45	29162
810.591	29162
810.733	28965
810.875	28953
811.016	28816
811.158	28850
811.299	28896
811.441	29075
811.582	29185
811.724	28908
811.865	28831
812.007	28991
812.148	28999
812.29	28980
812.431	29094
812.573	29391
812.714	29375
812.855	29520
812.997	29543
813.138	29786
813.279	29493
813.421	29493
813.562	29387
813.703	29345
813.845	29197
813.986	28980
814.127	28733
814.268	28618
814.41	28668
814.551	28649
814.692	28668
814.833	28611
814.974	28637
815.115	28596
815.256	28466
815.397	28691
815.539	28557
815.68	28466
815.821	28367
815.962	28504
816.103	28462
816.244	28325
816.385	28215
816.526	28223
816.666	28063
816.807	27816
816.948	28013
817.089	27941
817.23	28105
817.371	27865
817.512	27911
817.653	27918
817.793	27930
817.934	28078
818.075	27964
818.216	28070
818.356	27953
818.497	27781
818.638	27648
818.778	27789
818.919	27800
819.06	27785
819.2	27899
819.341	28013
819.481	27991
819.622	28116
819.762	28219
819.903	28211
820.043	28207
820.184	28265
820.324	28006
820.465	28105
820.605	28002
820.746	28143
820.886	27945
821.026	27979
821.167	28131
821.307	28093
821.447	28017
821.588	27949
821.728	27728
821.868	27671
822.008	27462
822.149	27443
822.289	27492
822.429	27104
822.569	27146
822.709	27173
822.849	27169
822.99	26979
823.13	26944
823.27	26986
823.41	26727
823.55	26708
823.69	26731
823.83	26804
823.97	26648
824.11	26419
824.25	26602
824.389	26648
824.529	26670
824.669	26507
824.809	26689
824.949	26663
825.089	26648
825.228	26788
825.368	26396
825.508	26423
825.648	26484
825.787	26549
825.927	26560
826.067	26484
826.206	26453
826.346	26511
826.485	26465
826.625	26476
826.765	26663
826.904	26446
827.044	26336
827.183	26286
827.323	26199
827.462	26122
827.601	26191
827.741	26233
827.88	26176
828.02	26122
828.159	26263
828.298	26172
828.437	26324
828.577	26062
828.716	26298
828.855	26180
828.994	25982
829.134	25898
829.273	25993
829.412	25795
829.551	25830
829.69	25879
829.829	25925
829.968	26054
830.107	25940
830.246	25799
830.385	25788
830.524	25830
830.663	25734
830.802	25521
830.941	25563
831.08	25556
831.219	25639
831.357	25590
831.496	25871
831.635	25499
831.774	25521
831.913	25495
832.051	25206
832.19	25259
832.329	25327
832.467	25266
832.606	25160
832.744	25152
832.883	25110
833.022	25247
833.16	25255
833.299	25141
833.437	25183
833.576	25407
833.714	25217
833.852	25232
833.991	25259
834.129	25358
834.267	25384
834.406	25156
834.544	25354
834.682	25202
834.821	25259
834.959	25616
835.097	25236
835.235	25384
835.373	25129
835.511	25202
835.65	25179
835.788	25145
835.926	24924
836.064	24939
836.202	25023
836.34	25133
836.478	25103
836.615	25069
836.753	25145
836.891	25213
837.029	25088
837.167	25034
837.305	24954
837.443	24916
837.58	25019
837.718	24996
837.856	24935
837.993	24924
838.131	24947
838.269	24753
838.406	24844
838.544	24757
838.681	24559
838.819	24502
838.956	24448
839.094	24395
839.231	24460
839.369	24509
839.506	24894
839.643	24589
839.781	24388
839.918	24311
840.055	24467
840.193	24350
840.33	24201
840.467	24380
840.604	24224
840.742	24665
840.879	24114
841.016	24235
841.153	24148
841.29	24414
841.427	24228
841.564	24338
841.701	24380
841.838	24346
841.975	24232
842.112	24205
842.249	24216
842.385	24057
842.522	24304
842.659	24057
842.796	24030
842.933	24182
843.069	24045
843.206	24049
843.343	24110
843.479	24167
843.616	24171
843.752	23942
843.889	23847
844.025	23992
844.162	23745
844.298	23824
844.435	23805
844.571	23680
844.708	23714
844.844	23992
844.98	23893
845.117	23859
845.253	23718
845.389	23756
845.525	23798
845.661	23638
845.798	23562
845.934	23547
846.07	23566
846.206	23684
846.342	23703
846.478	23395
846.614	23349
846.75	23391
846.886	23296
847.022	23349
847.158	23368
847.294	23299
847.429	23292
847.565	23239
847.701	23471
847.837	23083
847.972	22904
848.108	23159
848.244	23128
848.379	22987
848.515	22839
848.65	22919
848.786	22885
848.921	22694
849.057	23003
849.192	23102
849.328	22862
849.463	22949
849.598	22847
849.734	22694
849.869	22687
850.004	22664
850.14	22599
850.275	22725
850.41	22508
850.545	22512
850.68	22622
850.815	22577
850.95	22615
851.085	22858
851.22	22858
851.355	22622
851.49	22691
851.625	22721
851.76	22611
851.895	22485
852.03	22565
852.165	22550
852.299	22710
852.434	22854
852.569	22717
852.703	22603
852.838	22637
852.973	22847
853.107	22675
853.242	22641
853.376	22421
853.511	22344
853.645	22409
853.78	22565
853.914	22428
854.048	22424
854.183	22405
854.317	22497
854.451	22611
854.585	22432
854.72	22523
854.854	22554
854.988	22272
855.122	22508
855.256	22276
855.39	22424
855.524	22500
855.658	22531
855.792	22409
855.926	22481
856.06	22588
856.194	22641
856.327	22440
856.461	22379
856.595	22436
856.729	22432
856.862	22542
856.996	22527
857.13	22611
857.263	22668
857.397	22630
857.53	22379
857.664	22516
857.797	22474
857.931	22554
858.064	22337
858.197	22588
858.331	22516
858.464	22356
858.597	22348
858.731	22375
858.864	22356
858.997	22504
859.13	22459
859.263	22455
859.396	22535
859.529	22405
859.662	22432
859.795	22417
859.928	22508
860.061	22611
860.194	22504
860.327	22493
860.46	22519
860.592	22554
860.725	22565
860.858	22664
860.99	22519
861.123	22402
861.256	22363
861.388	22409
861.521	23349
861.653	22413
861.786	22215
861.918	22329
862.05	22443
862.183	22356
862.315	22310
862.447	22432
862.58	22363
862.712	22185
862.844	22032
862.976	22325
863.108	22078
863.24	22436
863.372	22238
863.504	22230
863.636	22131
863.768	22070
863.9	22234
864.032	22230
864.164	22070
864.296	22135
864.428	22238
864.559	22257
864.691	22253
864.823	22105
864.954	22097
865.086	22044
865.217	22051
865.349	22029
865.48	21991
865.612	21987
865.743	22284
865.875	22059
866.006	21956
866.137	21998
866.269	22078
866.4	21934
866.531	21975
866.662	21968
866.793	22013
866.924	22032
867.055	22093
867.186	22002
867.317	21861
867.448	22059
867.579	21983
867.71	21873
867.841	21888
867.972	22067
868.103	21918
868.233	22074
868.364	21998
868.495	22025
868.625	22124
868.756	22329
868.886	22192
869.017	22215
869.147	22325
869.278	22379
869.408	22234
869.539	22299
869.669	22356
869.799	22325
869.929	22375
870.06	22303
870.19	22668
870.32	22565
870.45	22546
870.58	22542
870.71	22702
870.84	22752
870.97	22698
871.1	22535
871.23	22843
871.36	22702
871.489	22607
871.619	22797
871.749	22778
871.879	22881
872.008	22972
872.138	22904
872.267	22809
872.397	22721
872.526	22626
872.656	22733
872.785	22713
872.915	22828
873.044	22816
873.173	22923
873.303	22957
873.432	22915
873.561	22995
873.69	22946
873.819	22809
873.948	22828
874.077	22866
874.206	22675
874.335	22850
874.464	22949
874.593	23025
874.722	22946
874.851	23010
874.979	22980
875.108	23102
875.237	22942
875.365	22873
875.494	22980
875.623	23109
875.751	23083
875.88	22995
876.008	23178
876.136	23143
876.265	23444
876.393	23528
876.521	23547
876.65	23448
876.778	23482
876.906	23372
877.034	23440
877.162	23391
877.29	23250
877.418	23349
877.546	23376
877.674	23490
877.802	23402
877.93	23509
878.058	23322
878.185	23337
878.313	23341
878.441	23410
878.568	23193
878.696	23200
878.824	23410
878.951	23493
879.079	23566
879.206	23668
879.333	23718
879.461	23307
879.588	23486
879.715	23558
879.842	23646
879.97	23520
880.097	23296
880.224	23147
880.351	23288
880.478	23208
880.605	23212
880.732	23288
880.859	23482
880.986	23143
881.112	23231
881.239	23056
881.366	22889
881.493	22911
881.619	22801
881.746	22748
881.872	22805
881.999	22653
882.125	22771
882.252	22805
882.378	22641
882.505	22965
882.631	22653
882.757	22470
882.883	22523
883.01	22573
883.136	22512
883.262	22306
883.388	22310
883.514	22459
883.64	22500
883.766	22405
883.892	22181
884.018	22394
884.143	22371
884.269	22341
884.395	22177
884.52	22086
884.646	22131
884.772	22017
884.897	21835
885.023	22063
885.148	22109
885.274	22219
885.399	22204
885.524	22048
885.65	22078
885.775	22051
885.9	22048
886.025	22196
886.15	22234
886.275	22040
886.4	21899
886.525	22036
886.65	21987
886.775	22101
886.9	22166
887.025	22272
887.149	21960
887.274	21983
887.399	21804
887.523	21857
887.648	21713
887.773	21743
887.897	21888
888.021	21850
888.146	21762
888.27	21953
888.395	21926
888.519	21827
888.643	22032
888.767	21835
888.891	21888
889.015	21477
889.139	21633
889.263	21553
889.387	21812
889.511	21865
889.635	21690
889.759	21572
889.883	21545
890.006	21595
890.13	21686
890.254	21542
890.377	21523
890.501	21408
890.624	21386
890.748	21424
890.871	21241
890.995	21157
891.118	21199
891.241	21233
891.364	21180
891.488	21199
891.611	21119
891.734	21173
891.857	21195
891.98	21298
892.103	21241
892.226	21348
892.349	21146
892.471	21032
892.594	21036
892.717	21066
892.839	21020
892.962	20990
893.085	21207
893.207	21081
893.33	20944
893.452	20914
893.575	21017
893.697	21036
893.819	21291
893.941	21245
894.064	21195
894.186	20975
894.308	20960
894.43	21104
894.552	21211
894.674	21066
894.796	20979
894.918	21070
895.04	21043
895.161	21176
895.283	21036
895.405	21024
895.526	21058
895.648	21093
895.769	21039
895.891	21123
896.012	21184
896.134	21028
896.255	21028
896.376	20956
896.498	21058
896.619	21203
896.74	21093
896.861	21028
896.982	21405
897.103	21507
897.224	21264
897.345	21386
897.466	21283
897.587	21207
897.708	21435
897.828	21355
897.949	21142
898.07	21043
898.19	21218
898.311	21317
898.431	21230
898.552	21279
898.672	21367
898.792	21245
898.913	21321
899.033	21039
899.153	20994
899.273	21013
899.393	20979
899.513	20975
899.633	21051
899.753	21028
899.873	20948
899.993	20960
900.113	20861
900.232	20895
900.352	20864
900.472	20686
900.591	20727
900.711	20686
900.83	20674
900.95	20937
901.069	20838
901.189	20488
901.308	20522
901.427	20218
901.546	20336
901.665	20324
901.784	20362
901.904	20046
902.023	20130
902.141	19841
902.26	19898
902.379	19940
902.498	19837
902.617	19677
902.735	19887
902.854	19700
902.973	19738
903.091	19362
903.21	19525
903.328	19324
903.446	19426
903.565	19217
903.683	19297
903.801	19213
903.919	19160
904.038	19145
904.156	19076
904.274	19171
904.392	19095
904.51	19012
904.627	19057
904.745	19107
904.863	19046
904.981	18989
905.098	18749
905.216	18745
905.334	18654
905.451	18719
905.569	18684
905.686	18681
905.803	18711
905.921	18418
906.038	18677
906.155	18445
906.272	18384
906.389	18372
906.506	18228
906.623	18304
906.74	18220
906.857	18159
906.974	18213
907.091	18235
907.208	18292
907.324	18247
907.441	18034
907.557	17988
907.674	17935
907.79	17798
907.907	17843
908.023	17942
908.139	17958
908.256	17836
908.372	17855
908.488	17840
908.604	17786
908.72	17589
908.836	17672
908.952	17577
909.068	17638
909.184	17809
909.3	17653
909.415	17653
909.531	17695
909.647	17433
909.762	17387
909.878	17383
909.993	17391
910.108	17296
910.224	17345
910.339	17258
910.454	17132
910.57	17102
910.685	17071
910.8	17330
910.915	17200
911.03	17155
911.145	16987
911.259	16877
911.374	16900
911.489	16816
911.604	16698
911.718	16607
911.833	16660
911.947	16535
912.062	16531
912.176	16588
912.291	16691
912.405	16660
912.519	16850
912.633	16831
912.748	16706
912.862	16702
912.976	16554
913.09	16352
913.204	16417
913.318	16447
913.431	16607
913.545	16596
913.659	16603
913.772	16428
913.886	16242
914	16223
914.113	16337
914.226	16356
914.34	16386
914.453	16120
914.566	16287
914.68	16188
914.793	16150
914.906	15907
915.019	15842
915.132	15808
915.245	15766
915.358	15869
915.47	15755
915.583	15899
915.696	15816
915.809	16029
915.921	15979
916.034	15823
916.146	15751
916.259	15724
916.371	15762
916.483	15804
916.595	15660
916.708	15682
916.82	15759
916.932	15728
917.044	15633
917.156	15580
917.268	15332
917.38	15534
917.491	15500
917.603	15504
917.715	15553
917.826	15561
917.938	15473
918.049	15386
918.161	15351
918.272	15530
918.384	15507
918.495	15458
918.606	15184
918.717	15207
918.828	15214
918.939	15287
919.05	15211
919.161	15127
919.272	14941
919.383	15032
919.494	15256
919.604	15321
919.715	15256
919.826	15017
919.936	15100
920.047	15207
920.157	15138
920.267	15329
920.378	15161
920.488	15161
920.598	15332
920.708	15424
920.818	15329
920.928	15291
921.038	15397
921.148	15435
921.258	15154
921.368	15085
921.477	14914
921.587	14861
921.697	14674
921.806	14861
921.916	14697
922.025	14590
922.134	14541
922.244	14518
922.353	14503
922.462	14362
922.571	14305
922.68	14183
922.789	14073
922.898	14138
923.007	14233
923.116	14218
923.224	14206
923.333	14081
923.442	14062
923.55	13970
923.659	14012
923.767	14157
923.876	13913
923.984	13986
924.092	13845
924.201	13906
924.309	13898
924.417	13871
924.525	13712
924.633	13795
924.741	14568
924.849	13578
924.956	13708
925.064	13586
925.172	13540
925.279	13529
925.387	13597
925.494	13533
925.602	13677
925.709	13575
925.816	13449
925.924	13502
926.031	13575
926.138	13434
926.245	13540
926.352	13320
926.459	13430
926.566	13559
926.673	13388
926.779	13270
926.886	13247
926.993	13149
927.099	13069
927.206	12996
927.312	12935
927.419	13015
927.525	13080
927.631	13050
927.737	12924
927.843	12935
927.95	12859
928.056	12920
928.162	12901
928.267	12932
928.373	13419
928.479	12962
928.585	12681
928.69	12787
928.796	12795
928.901	12772
929.007	12650
929.112	12768
929.218	12749
929.323	12582
929.428	12566
929.533	12745
929.638	12513
929.743	12608
929.848	12578
929.953	12525
930.058	12464
930.163	12384
930.267	12311
930.372	12441
930.477	12247
930.581	12483
930.685	12292
930.79	12178
930.894	12133
930.998	12087
931.103	12251
931.207	11988
931.311	11794
931.415	11805
931.519	11509
931.623	11505
