Data from test_V78500241_1559.txt Node
Date: Fri Mar 25 15:52:36 CST 2022
User: usil
Spectrometer: V785-0024
Trigger mode: 0
Integration Time (sec): 4.000000E-1
Scans to average: 1
Nonlinearity correction enabled: false
Boxcar width: 0
Storing dark spectrum: false
XAxis mode: Wavelengths
Number of Pixels in Spectrum: 1024
>>>>>Begin Spectral Data<<<<<
801.071	28105
801.214	27857
801.356	27800
801.499	27781
801.641	27545
801.783	27671
801.926	27519
802.068	27614
802.211	27545
802.353	27427
802.496	27439
802.638	27306
802.78	27157
802.923	27199
803.065	27127
803.208	27291
803.35	27272
803.492	27355
803.635	27344
803.777	27367
803.919	27397
804.061	27804
804.204	27583
804.346	27420
804.488	27367
804.63	27458
804.773	27389
804.915	27500
805.057	27637
805.199	27469
805.341	27553
805.483	27644
805.626	27629
805.768	27595
805.91	27603
806.052	27736
806.194	27614
806.336	27732
806.478	27637
806.62	27603
806.762	27880
806.904	27945
807.046	28101
807.188	28048
807.33	28105
807.472	28044
807.614	28135
807.756	28044
807.898	27918
808.04	27911
808.182	27975
808.324	28013
808.465	28070
808.607	28078
808.749	28150
808.891	28291
809.033	28618
809.174	28341
809.316	28257
809.458	28322
809.6	28265
809.741	28398
809.883	28508
810.025	28584
810.166	28618
810.308	28740
810.45	28531
810.591	28413
810.733	28280
810.875	28223
811.016	28150
811.158	28257
811.299	28284
811.441	28459
811.582	28497
811.724	28276
811.865	28246
812.007	28276
812.148	28188
812.29	28329
812.431	28413
812.573	28546
812.714	28740
812.855	28858
812.997	28885
813.138	29178
813.279	28896
813.421	28698
813.562	28778
813.703	28626
813.845	28500
813.986	28287
814.127	28097
814.268	28074
814.41	28040
814.551	27975
814.692	27998
814.833	27895
814.974	27911
815.115	28074
815.256	27911
815.397	27838
815.539	27918
815.68	27770
815.821	27854
815.962	27808
816.103	27880
816.244	27648
816.385	27599
816.526	27542
816.666	27443
816.807	27233
816.948	27393
817.089	27329
817.23	27374
817.371	27355
817.512	27180
817.653	27275
817.793	27192
817.934	27363
818.075	27249
818.216	27325
818.356	27233
818.497	27135
818.638	26891
818.778	27058
818.919	27055
819.06	27058
819.2	26944
819.341	27359
819.481	27317
819.622	27355
819.762	27644
819.903	27523
820.043	27473
820.184	27363
820.324	27397
820.465	27515
820.605	27530
820.746	27408
820.886	27397
821.026	27519
821.167	27386
821.307	27481
821.447	27310
821.588	27195
821.728	27093
821.868	26956
822.008	26792
822.149	26746
822.289	26811
822.429	26609
822.569	26480
822.709	26476
822.849	26218
822.99	26256
823.13	26286
823.27	26199
823.41	26046
823.55	25997
823.69	26012
823.83	26031
823.97	26001
824.11	25841
824.25	25757
824.389	26016
824.529	25947
824.669	25978
824.809	26016
824.949	25955
825.089	26016
825.228	26001
825.368	25696
825.508	25712
825.648	25791
825.787	25803
825.927	25913
826.067	25712
826.206	25769
826.346	25822
826.485	25822
826.625	25772
826.765	25875
826.904	25826
827.044	25582
827.183	25479
827.323	25350
827.462	25624
827.601	25400
827.741	25441
827.88	25563
828.02	25388
828.159	25373
828.298	25548
828.437	25388
828.577	25609
828.716	25586
828.855	25274
828.994	25110
829.134	25266
829.273	25122
829.412	25171
829.551	25027
829.69	25141
829.829	25122
829.968	25255
830.107	25293
830.246	25053
830.385	25095
830.524	25065
830.663	25042
830.802	24947
830.941	24741
831.08	24783
831.219	24852
831.357	24795
831.496	24764
831.635	24707
831.774	24654
831.913	24650
832.051	24623
832.19	24601
832.329	24696
832.467	24391
832.606	24399
832.744	24323
832.883	24582
833.022	24384
833.16	24456
833.299	24517
833.437	24502
833.576	24608
833.714	24517
833.852	24547
833.991	24593
834.129	24650
834.267	24517
834.406	24631
834.544	24654
834.682	24414
834.821	24445
834.959	24661
835.097	24429
835.235	24521
835.373	24528
835.511	24509
835.65	24380
835.788	24277
835.926	24197
836.064	24117
836.202	24121
836.34	24308
836.478	24342
836.615	24441
836.753	24296
836.891	24410
837.029	24513
837.167	24338
837.305	24254
837.443	24144
837.58	24224
837.718	24247
837.856	24247
837.993	24121
838.131	24194
838.269	24068
838.406	24076
838.544	23897
838.681	23908
838.819	23912
838.956	23771
839.094	23619
839.231	23752
839.369	23794
839.506	24015
839.643	23851
839.781	23646
839.918	23577
840.055	23684
840.193	23524
840.33	23566
840.467	23562
840.604	23585
840.742	23771
840.879	23455
841.016	23592
841.153	23512
841.29	23691
841.427	23520
841.564	23600
841.701	23554
841.838	23398
841.975	23364
842.112	23535
842.249	23383
842.385	23204
842.522	23509
842.659	23391
842.796	23269
842.933	23178
843.069	23200
843.206	23315
843.343	23356
843.479	23265
843.616	23303
843.752	23018
843.889	23140
844.025	23303
844.162	23162
844.298	23162
844.435	23014
844.571	23079
844.708	23052
844.844	23280
844.98	23124
845.117	23204
845.253	23109
845.389	22934
845.525	23044
845.661	22835
845.798	22763
845.934	22881
846.07	22767
846.206	22812
846.342	22930
846.478	22710
846.614	22645
846.75	22550
846.886	22519
847.022	22744
847.158	22497
847.294	22584
847.429	22512
847.565	22527
847.701	22790
847.837	22219
847.972	22280
848.108	22405
848.244	22348
848.379	22253
848.515	22162
848.65	22162
848.786	22074
848.921	22188
849.057	22322
849.192	22166
849.328	22219
849.463	22150
849.598	22032
849.734	22112
849.869	21899
850.004	21808
850.14	22032
850.275	22032
850.41	21949
850.545	21880
850.68	21785
850.815	21922
850.95	21816
851.085	22135
851.22	22006
851.355	21934
851.49	21915
851.625	21937
851.76	21911
851.895	21793
852.03	21854
852.165	21846
852.299	22025
852.434	22013
852.569	21964
852.703	21899
852.838	21934
852.973	21998
853.107	21911
853.242	21899
853.376	21690
853.511	21618
853.645	21732
853.78	21838
853.914	21751
854.048	21679
854.183	21743
854.317	21709
854.451	21964
854.585	21778
854.72	21652
854.854	21682
854.988	21675
855.122	21682
855.256	21644
855.39	21644
855.524	21724
855.658	21755
855.792	21724
855.926	21781
856.06	21770
856.194	21770
856.327	21641
856.461	21694
856.595	21682
856.729	21679
856.862	21804
856.996	21774
857.13	21911
857.263	21755
857.397	21987
857.53	21652
857.664	21755
857.797	21857
857.931	21899
858.064	21751
858.197	21869
858.331	21698
858.464	21755
858.597	21686
858.731	21671
858.864	21603
858.997	21747
859.13	21819
859.263	21743
859.396	21690
859.529	21713
859.662	21679
859.795	21679
859.928	21888
860.061	21907
860.194	22044
860.327	21819
860.46	21838
860.592	21915
860.725	21880
860.858	21937
860.99	21739
861.123	21720
861.256	21641
861.388	21618
861.521	22265
861.653	21549
861.786	21523
861.918	21583
862.05	21591
862.183	21698
862.315	21629
862.447	21705
862.58	21564
862.712	21408
862.844	21340
862.976	21485
863.108	21439
863.24	21846
863.372	21408
863.504	21351
863.636	21389
863.768	21583
863.9	21469
864.032	21256
864.164	21294
864.296	21454
864.428	21405
864.559	21492
864.691	21572
864.823	21485
864.954	21485
865.086	21481
865.217	21298
865.349	21298
865.48	21291
865.612	21443
865.743	21431
865.875	21386
866.006	21359
866.137	21344
866.269	21214
866.4	21344
866.531	21272
866.662	21291
866.793	21218
866.924	21317
867.055	21317
867.186	21222
867.317	21154
867.448	21138
867.579	21264
867.71	21252
867.841	21203
867.972	21222
868.103	21302
868.233	21298
868.364	21359
868.495	21378
868.625	21325
868.756	21572
868.886	21439
869.017	21412
869.147	21690
869.278	21667
869.408	21545
869.539	21519
869.669	21595
869.799	21561
869.929	21736
870.06	21751
870.19	21907
870.32	21831
870.45	21953
870.58	21934
870.71	22051
870.84	21937
870.97	22002
871.1	21865
871.23	22090
871.36	22219
871.489	22074
871.619	22025
871.749	22082
871.879	22150
872.008	22185
872.138	22169
872.267	22169
872.397	22002
872.526	21865
872.656	21907
872.785	21979
872.915	22181
873.044	22242
873.173	22006
873.303	22128
873.432	22143
873.561	22097
873.69	22234
873.819	22162
873.948	22246
874.077	22067
874.206	22147
874.335	22128
874.464	22257
874.593	22382
874.722	22314
874.851	22421
874.979	22291
875.108	22455
875.237	22223
875.365	22185
875.494	22268
875.623	22173
875.751	22234
875.88	22390
876.008	22436
876.136	22481
876.265	22717
876.393	22797
876.521	22831
876.65	22828
876.778	22793
876.906	22748
877.034	22725
877.162	22683
877.29	22599
877.418	22752
877.546	22790
877.674	22607
877.802	22573
877.93	22687
878.058	22694
878.185	22512
878.313	22618
878.441	22793
878.568	22584
878.696	22691
878.824	22744
878.951	22816
879.079	22854
879.206	22965
879.333	22774
879.461	22698
879.588	22923
879.715	22896
879.842	23003
879.97	22862
880.097	22485
880.224	22584
880.351	22531
880.478	22474
880.605	22577
880.732	22531
880.859	22679
880.986	22603
881.112	22428
881.239	22455
881.366	22207
881.493	22112
881.619	22051
881.746	22101
881.872	22120
881.999	22002
882.125	22025
882.252	22078
882.378	22097
882.505	22265
882.631	22002
882.757	21759
882.883	21682
883.01	21705
883.136	21785
883.262	21663
883.388	21504
883.514	21705
883.64	21888
883.766	21797
883.892	21637
884.018	21591
884.143	21804
884.269	21842
884.395	21519
884.52	21450
884.646	21359
884.772	21317
884.897	21317
885.023	21348
885.148	21561
885.274	21595
885.399	21481
885.524	21340
885.65	21420
885.775	21412
885.9	21439
886.025	21458
886.15	21690
886.275	21294
886.4	21279
886.525	21329
886.65	21370
886.775	21310
886.9	21568
887.025	21542
887.149	21393
887.274	21268
887.399	21161
887.523	21154
887.648	21127
887.773	20998
887.897	21336
888.021	21287
888.146	21150
888.27	21230
888.395	21317
888.519	21279
888.643	21264
888.767	21157
888.891	21188
889.015	20948
889.139	21066
889.263	20746
889.387	21066
889.511	21195
889.635	21043
889.759	20883
889.883	20956
890.006	20861
890.13	20975
890.254	20891
890.377	20887
890.501	20693
890.624	20720
890.748	20769
890.871	20579
890.995	20594
891.118	20438
891.241	20503
891.364	20701
891.488	20598
891.611	20431
891.734	20579
891.857	20476
891.98	20644
892.103	20545
892.226	20541
892.349	20419
892.471	20317
892.594	20423
892.717	20518
892.839	20427
892.962	20503
893.085	20526
893.207	20434
893.33	20267
893.452	20446
893.575	20499
893.697	20465
893.819	20640
893.941	20655
894.064	20556
894.186	20385
894.308	20301
894.43	20507
894.552	20549
894.674	20571
894.796	20476
894.918	20419
895.04	20389
895.161	20366
895.283	20488
895.405	20309
895.526	20374
895.648	20454
895.769	20549
895.891	20609
896.012	20495
896.134	20545
896.255	20488
896.376	20385
896.498	20396
896.619	20514
896.74	20400
896.861	20511
896.982	20754
897.103	20849
897.224	20777
897.345	20636
897.466	20731
897.587	20682
897.708	20655
897.828	20663
897.949	20667
898.07	20492
898.19	20674
898.311	20663
898.431	20568
898.552	20613
898.672	20682
898.792	20674
898.913	20659
899.033	20602
899.153	20343
899.273	20339
899.393	20358
899.513	20507
899.633	20336
899.753	20412
899.873	20206
899.993	20320
900.113	20278
900.232	20362
900.352	20320
900.472	20317
900.591	20176
900.711	20130
900.83	20092
900.95	20218
901.069	20263
901.189	20058
901.308	19780
901.427	19753
901.546	19814
901.665	19776
901.784	19807
901.904	19655
902.023	19540
902.141	19346
902.26	19228
902.379	19407
902.498	19198
902.617	19187
902.735	19259
902.854	19236
902.973	19145
903.091	18939
903.21	18901
903.328	18890
903.446	18810
903.565	18738
903.683	18677
903.801	18532
903.919	18715
904.038	18620
904.156	18452
904.274	18502
904.392	18445
904.51	18502
904.627	18445
904.745	18639
904.863	18555
904.981	18190
905.098	18201
905.216	18155
905.334	18155
905.451	18270
905.569	18117
905.686	18315
905.803	18114
905.921	18015
906.038	18022
906.155	17996
906.272	17824
906.389	17954
906.506	17684
906.623	17790
906.74	17672
906.857	17680
906.974	17741
907.091	17691
907.208	17863
907.324	17726
907.441	17551
907.557	17505
907.674	17501
907.79	17326
907.907	17356
908.023	17509
908.139	17379
908.256	17383
908.372	17326
908.488	17311
908.604	17151
908.72	17033
908.836	17197
908.952	17136
909.068	17128
909.184	17216
909.3	17159
909.415	17231
909.531	17174
909.647	16881
909.762	16892
909.878	16858
909.993	16835
910.108	16835
910.224	16729
910.339	16835
910.454	16786
910.57	16637
910.685	16618
910.8	16866
910.915	16816
911.03	16672
911.145	16535
911.259	16447
911.374	16455
911.489	16443
911.604	16405
911.718	16116
911.833	16147
911.947	16185
912.062	16131
912.176	16284
912.291	16234
912.405	16207
912.519	16333
912.633	16356
912.748	16135
912.862	16147
912.976	15930
913.09	15884
913.204	16044
913.318	16059
913.431	16120
913.545	15918
913.659	16112
913.772	16010
913.886	15903
914	15899
914.113	15854
914.226	15850
914.34	15812
914.453	15717
914.566	15835
914.68	15648
914.793	15660
914.906	15428
915.019	15500
915.132	15393
915.245	15412
915.358	15477
915.47	15428
915.583	15405
915.696	15477
915.809	15412
915.921	15549
916.034	15329
916.146	15230
916.259	15283
916.371	15313
916.483	15359
916.595	15211
916.708	15298
916.82	15150
916.932	15146
917.044	15165
917.156	15176
917.268	14960
917.38	15089
917.491	14872
917.603	15017
917.715	15077
917.826	15074
917.938	14895
918.049	14925
918.161	14971
918.272	15036
918.384	15055
918.495	14982
918.606	14773
918.717	14758
918.828	14834
918.939	14819
919.05	14678
919.161	14735
919.272	14632
919.383	14575
919.494	14838
919.604	14952
919.715	14842
919.826	14720
919.936	14758
920.047	14815
920.157	14804
920.267	14914
920.378	14750
920.488	14731
920.598	14902
920.708	15104
920.818	14902
920.928	14815
921.038	15055
921.148	14929
921.258	14727
921.368	14655
921.477	14438
921.587	14503
921.697	14393
921.806	14419
921.916	14374
922.025	14103
922.134	14092
922.244	14096
922.353	14092
922.462	13974
922.571	13936
922.68	13826
922.789	13757
922.898	13795
923.007	13723
923.116	13757
923.224	13837
923.333	13738
923.442	13666
923.55	13529
923.659	13559
923.767	13685
923.876	13601
923.984	13639
924.092	13480
924.201	13540
924.309	13525
924.417	13483
924.525	13396
924.633	13449
924.741	14313
924.849	13247
924.956	13354
925.064	13225
925.172	13057
925.279	13187
925.387	13175
925.494	13225
925.602	13274
925.709	13213
925.816	13095
925.924	13122
926.031	13206
926.138	13118
926.245	13118
926.352	13019
926.459	13171
926.566	13152
926.673	13015
926.779	12856
926.886	12852
926.993	12848
927.099	12798
927.206	12715
927.312	12658
927.419	12749
927.525	12692
927.631	12791
927.737	12669
927.843	12585
927.95	12388
928.056	12563
928.162	12532
928.267	12646
928.373	13145
928.479	12563
928.585	12384
928.69	12506
928.796	12563
928.901	12384
929.007	12334
929.112	12388
929.218	12384
929.323	12254
929.428	12266
929.533	12403
929.638	12171
929.743	12224
929.848	12213
929.953	12194
930.058	12117
930.163	11961
930.267	12026
930.372	12178
930.477	11874
930.581	12190
930.685	11923
930.79	11843
930.894	11798
930.998	11828
931.103	11885
931.207	11554
931.311	11535
931.415	11570
931.519	11193
931.623	11220
