Data from test_V78500241_2547.txt Node
Date: Fri Mar 25 15:59:26 CST 2022
User: usil
Spectrometer: V785-0024
Trigger mode: 0
Integration Time (sec): 4.000000E-1
Scans to average: 1
Nonlinearity correction enabled: false
Boxcar width: 0
Storing dark spectrum: false
XAxis mode: Wavelengths
Number of Pixels in Spectrum: 1024
>>>>>Begin Spectral Data<<<<<
801.071	28767
801.214	28702
801.356	28519
801.499	28459
801.641	28306
801.783	28272
801.926	28565
802.068	28325
802.211	28261
802.353	28291
802.496	28070
802.638	27873
802.78	28006
802.923	27857
803.065	27865
803.208	27838
803.35	27937
803.492	28055
803.635	28242
803.777	28101
803.919	28230
804.061	28645
804.204	28303
804.346	28223
804.488	28276
804.63	28249
804.773	28131
804.915	28341
805.057	28284
805.199	28265
805.341	28276
805.483	28401
805.626	28257
805.768	28261
805.91	28443
806.052	28325
806.194	28226
806.336	28584
806.478	28398
806.62	28421
806.762	28508
806.904	28519
807.046	28953
807.188	28900
807.33	28820
807.472	28797
807.614	28717
807.756	28908
807.898	28702
808.04	28607
808.182	28618
808.324	28672
808.465	28626
808.607	28972
808.749	29113
808.891	29269
809.033	29178
809.174	29132
809.316	29079
809.458	29090
809.6	29067
809.741	29086
809.883	29178
810.025	29471
810.166	29326
810.308	29383
810.45	29284
810.591	29307
810.733	29048
810.875	29204
811.016	29105
811.158	29056
811.299	29121
811.441	29261
811.582	29277
811.724	29113
811.865	29117
812.007	29064
812.148	28991
812.29	29117
812.431	29277
812.573	29421
812.714	29554
812.855	29551
812.997	29577
813.138	29824
813.279	29809
813.421	29718
813.562	29592
813.703	29364
813.845	29242
813.986	28995
814.127	28866
814.268	28839
814.41	28904
814.551	28801
814.692	28896
814.833	28725
814.974	28691
815.115	28615
815.256	28710
815.397	28763
815.539	28683
815.68	28508
815.821	28618
815.962	28554
816.103	28432
816.244	28504
816.385	28360
816.526	28341
816.666	28265
816.807	28131
816.948	28291
817.089	28246
817.23	28150
817.371	28173
817.512	28074
817.653	28044
817.793	27991
817.934	28173
818.075	28074
818.216	28055
818.356	28055
818.497	28021
818.638	27781
818.778	27804
818.919	27930
819.06	28029
819.2	27968
819.341	28040
819.481	28158
819.622	28196
819.762	28401
819.903	28424
820.043	28417
820.184	28101
820.324	28196
820.465	28325
820.605	28253
820.746	28249
820.886	28055
821.026	28154
821.167	28200
821.307	28234
821.447	28185
821.588	28074
821.728	27911
821.868	27785
822.008	27644
822.149	27610
822.289	27629
822.429	27374
822.569	27275
822.709	27275
822.849	27150
822.99	27058
823.13	27017
823.27	26960
823.41	27020
823.55	26670
823.69	26891
823.83	27009
823.97	26880
824.11	26792
824.25	26731
824.389	26731
824.529	26739
824.669	26773
824.809	26758
824.949	26861
825.089	26842
825.228	26830
825.368	26667
825.508	26621
825.648	26507
825.787	26678
825.927	26724
826.067	26549
826.206	26682
826.346	26792
826.485	26594
826.625	26651
826.765	26769
826.904	26659
827.044	26568
827.183	26412
827.323	26282
827.462	26381
827.601	26374
827.741	26313
827.88	26461
828.02	26294
828.159	26431
828.298	26336
828.437	26408
828.577	26233
828.716	26514
828.855	26214
828.994	26161
829.134	26069
829.273	26309
829.412	26111
829.551	26001
829.69	26046
829.829	26096
829.968	26115
830.107	26062
830.246	26183
830.385	26043
830.524	26001
830.663	25875
830.802	25674
830.941	25666
831.08	25525
831.219	25594
831.357	25761
831.496	25841
831.635	25571
831.774	25666
831.913	25518
832.051	25479
832.19	25449
832.329	25457
832.467	25400
832.606	25384
832.744	25293
832.883	25308
833.022	25209
833.16	25381
833.299	25365
833.437	25388
833.576	25316
833.714	25476
833.852	25312
833.991	25392
834.129	25415
834.267	25487
834.406	25438
834.544	25396
834.682	25373
834.821	25179
834.959	25643
835.097	25343
835.235	25373
835.373	25377
835.511	25495
835.65	25202
835.788	25381
835.926	25072
836.064	25084
836.202	25057
836.34	25312
836.478	25335
836.615	25175
836.753	25213
836.891	25190
837.029	25259
837.167	25179
837.305	25084
837.443	25110
837.58	24992
837.718	25076
837.856	25031
837.993	25034
838.131	25015
838.269	24977
838.406	24916
838.544	24783
838.681	24715
838.819	24764
838.956	24639
839.094	24426
839.231	24517
839.369	24597
839.506	24928
839.643	24745
839.781	24525
839.918	24429
840.055	24494
840.193	24422
840.33	24540
840.467	24395
840.604	24414
840.742	24597
840.879	24346
841.016	24376
841.153	24365
841.29	24467
841.427	24319
841.564	24391
841.701	24464
841.838	24323
841.975	24304
842.112	24327
842.249	24194
842.385	24190
842.522	24376
842.659	24171
842.796	24243
842.933	24110
843.069	24155
843.206	24228
843.343	24235
843.479	24076
843.616	24205
843.752	23889
843.889	23977
844.025	23996
844.162	23904
844.298	24079
844.435	23939
844.571	23901
844.708	23897
844.844	24034
844.98	24007
845.117	23942
845.253	23882
845.389	23855
845.525	23847
845.661	23748
845.798	23707
845.934	23691
846.07	23604
846.206	23726
846.342	23680
846.478	23642
846.614	23501
846.75	23421
846.886	23398
847.022	23436
847.158	23459
847.294	23417
847.429	23315
847.565	23311
847.701	23516
847.837	23060
847.972	23079
848.108	23326
848.244	23155
848.379	22961
848.515	22984
848.65	23014
848.786	23006
848.921	23022
849.057	23102
849.192	23014
849.328	22976
849.463	22968
849.598	22984
849.734	22900
849.869	22797
850.004	22763
850.14	22717
850.275	22668
850.41	22592
850.545	22717
850.68	22687
850.815	22736
850.95	22843
851.085	22908
851.22	22904
851.355	22744
851.49	22771
851.625	22679
851.76	22691
851.895	22478
852.03	22641
852.165	22740
852.299	22744
852.434	22889
852.569	22782
852.703	22683
852.838	22717
852.973	22927
853.107	22854
853.242	22748
853.376	22607
853.511	22455
853.645	22447
853.78	22622
853.914	22497
854.048	22592
854.183	22478
854.317	22622
854.451	22736
854.585	22653
854.72	22546
854.854	22691
854.988	22485
855.122	22592
855.256	22462
855.39	22634
855.524	22466
855.658	22664
855.792	22489
855.926	22649
856.06	22497
856.194	22717
856.327	22531
856.461	22451
856.595	22504
856.729	22679
856.862	22653
856.996	22653
857.13	22702
857.263	22634
857.397	22580
857.53	22481
857.664	22538
857.797	22634
857.931	22596
858.064	22588
858.197	22630
858.331	22519
858.464	22580
858.597	22451
858.731	22417
858.864	22485
858.997	22462
859.13	22554
859.263	22626
859.396	22691
859.529	22557
859.662	22535
859.795	22512
859.928	22615
860.061	22611
860.194	22740
860.327	22645
860.46	22622
860.592	22736
860.725	22752
860.858	22710
860.99	22626
861.123	22428
861.256	22554
861.388	22550
861.521	23242
861.653	22402
861.786	22341
861.918	22481
862.05	22382
862.183	22455
862.315	22596
862.447	22596
862.58	22424
862.712	22177
862.844	22215
862.976	22413
863.108	22360
863.24	22702
863.372	22211
863.504	22268
863.636	22196
863.768	22280
863.9	22363
864.032	22234
864.164	22177
864.296	22067
864.428	22371
864.559	22333
864.691	22394
864.823	22207
864.954	22154
865.086	22246
865.217	22284
865.349	22074
865.48	22230
865.612	22112
865.743	22322
865.875	22128
866.006	22078
866.137	22074
866.269	22188
866.4	22200
866.531	21979
866.662	22010
866.793	22067
866.924	21934
867.055	22185
867.186	22025
867.317	22055
867.448	22051
867.579	22192
867.71	21907
867.841	22048
867.972	22143
868.103	22124
868.233	22139
868.364	22112
868.495	22143
868.625	22238
868.756	22394
868.886	22238
869.017	22325
869.147	22337
869.278	22405
869.408	22295
869.539	22276
869.669	22367
869.799	22306
869.929	22478
870.06	22474
870.19	22645
870.32	22554
870.45	22645
870.58	22611
870.71	22748
870.84	22759
870.97	22717
871.1	22634
871.23	22839
871.36	22999
871.489	22862
871.619	22782
871.749	22892
871.879	22862
872.008	23071
872.138	22930
872.267	22831
872.397	22881
872.526	22713
872.656	22725
872.785	22702
872.915	22984
873.044	23018
873.173	23121
873.303	23098
873.432	22987
873.561	23022
873.69	22889
873.819	22812
873.948	23010
874.077	22938
874.206	22774
874.335	22930
874.464	23121
874.593	23159
874.722	23105
874.851	23086
874.979	23200
875.108	23151
875.237	23136
875.365	23094
875.494	23181
875.623	23155
875.751	23067
875.88	23269
876.008	23140
876.136	23284
876.265	23455
876.393	23577
876.521	23672
876.65	23501
876.778	23486
876.906	23360
877.034	23433
877.162	23482
877.29	23490
877.418	23535
877.546	23414
877.674	23482
877.802	23547
877.93	23467
878.058	23429
878.185	23330
878.313	23414
878.441	23459
878.568	23417
878.696	23353
878.824	23551
878.951	23558
879.079	23668
879.206	23813
879.333	23554
879.461	23467
879.588	23562
879.715	23684
879.842	23722
879.97	23589
880.097	23414
880.224	23330
880.351	23387
880.478	23280
880.605	23181
880.732	23364
880.859	23539
880.986	23448
881.112	23212
881.239	23109
881.366	23071
881.493	22980
881.619	22759
881.746	22946
881.872	22858
881.999	22744
882.125	22782
882.252	22816
882.378	22782
882.505	22980
882.631	22656
882.757	22622
882.883	22679
883.01	22546
883.136	22519
883.262	22306
883.388	22314
883.514	22371
883.64	22538
883.766	22390
883.892	22226
884.018	22379
884.143	22428
884.269	22611
884.395	22272
884.52	22204
884.646	22246
884.772	22131
884.897	22067
885.023	22211
885.148	22276
885.274	22329
885.399	22375
885.524	22223
885.65	22120
885.775	22207
885.9	22173
886.025	22280
886.15	22147
886.275	22128
886.4	22143
886.525	22074
886.65	21949
886.775	22158
886.9	22310
887.025	22333
887.149	22105
887.274	21915
887.399	21911
887.523	21880
887.648	21857
887.773	21812
887.897	21991
888.021	21922
888.146	21892
888.27	22044
888.395	21991
888.519	21899
888.643	21991
888.767	21838
888.891	21694
889.015	21698
889.139	21682
889.263	21766
889.387	21751
889.511	21949
889.635	21747
889.759	21694
889.883	21724
890.006	21713
890.13	21701
890.254	21610
890.377	21603
890.501	21389
890.624	21359
890.748	21462
890.871	21264
890.995	21245
891.118	21222
891.241	21313
891.364	21256
891.488	21370
891.611	21256
891.734	21294
891.857	21256
891.98	21279
892.103	21340
892.226	21252
892.349	21214
892.471	20952
892.594	21123
892.717	21233
892.839	21272
892.962	21192
893.085	21184
893.207	21252
893.33	21036
893.452	21077
893.575	21195
893.697	21195
893.819	21302
893.941	21317
894.064	21370
894.186	21203
894.308	20971
894.43	21310
894.552	21291
894.674	21169
894.796	20967
894.918	21173
895.04	21032
895.161	21199
895.283	21150
895.405	21055
895.526	21226
895.648	21161
895.769	21169
895.891	20994
896.012	21332
896.134	21146
896.255	21039
896.376	21058
896.498	20990
896.619	21096
896.74	21176
896.861	21245
896.982	21386
897.103	21496
897.224	21382
897.345	21302
897.466	21294
897.587	21283
897.708	21382
897.828	21386
897.949	21329
898.07	21165
898.19	21199
898.311	21450
898.431	21291
898.552	21367
898.672	21382
898.792	21412
898.913	21348
899.033	21207
899.153	21089
899.273	20979
899.393	21100
899.513	21028
899.633	21036
899.753	21138
899.873	21058
899.993	21135
900.113	21005
900.232	20956
900.352	20956
900.472	20944
900.591	20750
900.711	20872
900.83	20689
900.95	20853
901.069	20899
901.189	20609
901.308	20454
901.427	20389
901.546	20442
901.665	20370
901.784	20457
901.904	20191
902.023	20161
902.141	20035
902.26	20046
902.379	19841
902.498	19902
902.617	19864
902.735	19898
902.854	19921
902.973	19871
903.091	19662
903.21	19590
903.328	19571
903.446	19464
903.565	19324
903.683	19297
903.801	19244
903.919	19247
904.038	19255
904.156	19232
904.274	19187
904.392	19179
904.51	19065
904.627	19027
904.745	19103
904.863	19137
904.981	18814
905.098	18791
905.216	18768
905.334	18700
905.451	18700
905.569	18745
905.686	18817
905.803	18768
905.921	18574
906.038	18719
906.155	18677
906.272	18479
906.389	18502
906.506	18391
906.623	18403
906.74	18300
906.857	18205
906.974	18254
907.091	18403
907.208	18414
907.324	18292
907.441	18144
907.557	18007
907.674	18140
907.79	18019
907.907	17927
908.023	18019
908.139	18060
908.256	17897
908.372	17882
908.488	17874
908.604	17764
908.72	17707
908.836	17691
908.952	17623
909.068	17726
909.184	17790
909.3	17668
909.415	17710
909.531	17718
909.647	17372
909.762	17410
909.878	17410
909.993	17421
910.108	17326
910.224	17307
910.339	17383
910.454	17277
910.57	17174
910.685	17094
910.8	17421
910.915	17170
911.03	17216
911.145	17147
911.259	16987
911.374	16911
911.489	16847
911.604	16748
911.718	16675
911.833	16831
911.947	16710
912.062	16535
912.176	16694
912.291	16710
912.405	16656
912.519	16892
912.633	16991
912.748	16691
912.862	16702
912.976	16466
913.09	16466
913.204	16478
913.318	16504
913.431	16645
913.545	16573
913.659	16664
913.772	16561
913.886	16356
914	16367
914.113	16363
914.226	16398
914.34	16402
914.453	16162
914.566	16253
914.68	16196
914.793	16181
914.906	15998
915.019	15983
915.132	15861
915.245	15911
915.358	15899
915.47	15968
915.583	15907
915.696	15918
915.809	16010
915.921	16063
916.034	15819
916.146	15736
916.259	15652
916.371	15823
916.483	15819
916.595	15774
916.708	15800
916.82	15641
916.932	15759
917.044	15694
917.156	15591
917.268	15625
917.38	15694
917.491	15519
917.603	15530
917.715	15633
917.826	15698
917.938	15401
918.049	15367
918.161	15507
918.272	15580
918.384	15523
918.495	15367
918.606	15294
918.717	15100
918.828	15283
918.939	15370
919.05	15123
919.161	15249
919.272	15013
919.383	15036
919.494	15279
919.604	15534
919.715	15260
919.826	15176
919.936	15169
920.047	15252
920.157	15310
920.267	15275
920.378	15173
920.488	15127
920.598	15351
920.708	15507
920.818	15420
920.928	15447
921.038	15523
921.148	15454
921.258	15161
921.368	15176
921.477	14918
921.587	14944
921.697	14735
921.806	14975
921.916	14785
922.025	14617
922.134	14575
922.244	14507
922.353	14579
922.462	14431
922.571	14393
922.68	14161
922.789	14206
922.898	14237
923.007	14153
923.116	14199
923.224	14221
923.333	14126
923.442	14027
923.55	13982
923.659	13982
923.767	14020
923.876	13928
923.984	14100
924.092	13814
924.201	13940
924.309	13959
924.417	13875
924.525	13845
924.633	13845
924.741	14876
924.849	13662
924.956	13864
925.064	13662
925.172	13540
925.279	13544
925.387	13597
925.494	13643
925.602	13685
925.709	13662
925.816	13457
925.924	13502
926.031	13506
926.138	13483
926.245	13540
926.352	13369
926.459	13582
926.566	13567
926.673	13384
926.779	13426
926.886	13358
926.993	13171
927.099	13122
927.206	13141
927.312	13164
927.419	13107
927.525	13088
927.631	13160
927.737	13015
927.843	12867
927.95	12932
928.056	12897
928.162	12977
928.267	12954
928.373	13571
928.479	13019
928.585	12802
928.69	12905
928.796	12962
928.901	12768
929.007	12677
929.112	12715
929.218	12798
929.323	12662
929.428	12639
929.533	12817
929.638	12578
929.743	12585
929.848	12627
929.953	12574
930.058	12494
930.163	12384
930.267	12254
930.372	12426
930.477	12330
930.581	12521
930.685	12403
930.79	12201
930.894	12243
930.998	12171
931.103	12285
931.207	11923
931.311	11882
931.415	11729
931.519	11627
931.623	11573
