Data from test_V78500241_3090.txt Node
Date: Fri Mar 25 16:03:12 CST 2022
User: usil
Spectrometer: V785-0024
Trigger mode: 0
Integration Time (sec): 4.000000E-1
Scans to average: 1
Nonlinearity correction enabled: false
Boxcar width: 0
Storing dark spectrum: false
XAxis mode: Wavelengths
Number of Pixels in Spectrum: 1024
>>>>>Begin Spectral Data<<<<<
801.071	28303
801.214	28257
801.356	28150
801.499	27975
801.641	27854
801.783	27930
801.926	27987
802.068	27960
802.211	27914
802.353	27899
802.496	27606
802.638	27485
802.78	27675
802.923	27564
803.065	27473
803.208	27652
803.35	27610
803.492	27770
803.635	27892
803.777	27679
803.919	27808
804.061	28097
804.204	27865
804.346	27667
804.488	27797
804.63	27759
804.773	27751
804.915	27804
805.057	27937
805.199	27686
805.341	27953
805.483	27949
805.626	27873
805.768	27899
805.91	27972
806.052	27953
806.194	27759
806.336	28074
806.478	28044
806.62	27850
806.762	28086
806.904	28249
807.046	28287
807.188	28386
807.33	28310
807.472	28409
807.614	28333
807.756	28440
807.898	28344
808.04	28234
808.182	28246
808.324	28196
808.465	28238
808.607	28508
808.749	28607
808.891	28611
809.033	28721
809.174	28561
809.316	28729
809.458	28489
809.6	28630
809.741	28763
809.883	28774
810.025	28847
810.166	28900
810.308	28953
810.45	28908
810.591	28778
810.733	28675
810.875	28535
811.016	28653
811.158	28508
811.299	28805
811.441	28759
811.582	28771
811.724	28611
811.865	28569
812.007	28656
812.148	28759
812.29	28649
812.431	28805
812.573	28968
812.714	29143
812.855	29239
812.997	29242
813.138	29406
813.279	29318
813.421	29200
813.562	29113
813.703	28949
813.845	28706
813.986	28592
814.127	28436
814.268	28246
814.41	28371
814.551	28379
814.692	28413
814.833	28276
814.974	28303
815.115	28253
815.256	28265
815.397	28188
815.539	28207
815.68	28074
815.821	28128
815.962	28105
816.103	28067
816.244	28013
816.385	27914
816.526	27850
816.666	27720
816.807	27576
816.948	27800
817.089	27720
817.23	27667
817.371	27641
817.512	27519
817.653	27591
817.793	27572
817.934	27679
818.075	27572
818.216	27511
818.356	27576
818.497	27526
818.638	27344
818.778	27291
818.919	27462
819.06	27454
819.2	27576
819.341	27572
819.481	27644
819.622	27819
819.762	27994
819.903	27979
820.043	27679
820.184	27774
820.324	27823
820.465	27739
820.605	27880
820.746	27713
820.886	27644
821.026	27751
821.167	27549
821.307	27884
821.447	27599
821.588	27447
821.728	27462
821.868	27313
822.008	27074
822.149	27233
822.289	27024
822.429	26834
822.569	26735
822.709	26754
822.849	26568
822.99	26724
823.13	26606
823.27	26549
823.41	26419
823.55	26275
823.69	26476
823.83	26385
823.97	26404
824.11	26206
824.25	26271
824.389	26176
824.529	26366
824.669	26229
824.809	26415
824.949	26305
825.089	26381
825.228	26214
825.368	26077
825.508	26024
825.648	26183
825.787	26081
825.927	26233
826.067	26168
826.206	26153
826.346	26126
826.485	26275
826.625	26172
826.765	26111
826.904	26221
827.044	25780
827.183	25860
827.323	25780
827.462	25818
827.601	25966
827.741	25894
827.88	25818
828.02	25731
828.159	25830
828.298	25894
828.437	25906
828.577	25826
828.716	25837
828.855	25658
828.994	25499
829.134	25582
829.273	25537
829.412	25430
829.551	25476
829.69	25628
829.829	25571
829.968	25704
830.107	25438
830.246	25571
830.385	25411
830.524	25449
830.663	25297
830.802	25316
830.941	25225
831.08	25160
831.219	25168
831.357	25148
831.496	25445
831.635	25114
831.774	25091
831.913	24962
832.051	24894
832.19	24935
832.329	24932
832.467	24856
832.606	24825
832.744	24783
832.883	24829
833.022	24741
833.16	24741
833.299	24745
833.437	24909
833.576	24932
833.714	24882
833.852	24863
833.991	24863
834.129	24947
834.267	24973
834.406	24989
834.544	24916
834.682	24829
834.821	24814
834.959	25103
835.097	24703
835.235	24856
835.373	24943
835.511	24913
835.65	24760
835.788	24673
835.926	24722
836.064	24483
836.202	24525
836.34	24734
836.478	24810
836.615	24593
836.753	24593
836.891	24726
837.029	24779
837.167	24673
837.305	24597
837.443	24509
837.58	24623
837.718	24677
837.856	24654
837.993	24433
838.131	24479
838.269	24410
838.406	24467
838.544	24380
838.681	24292
838.819	24144
838.956	24072
839.094	23977
839.231	24003
839.369	24068
839.506	24407
839.643	24289
839.781	24117
839.918	23866
840.055	24045
840.193	24011
840.33	23999
840.467	23912
840.604	24083
840.742	24106
840.879	23783
841.016	23817
841.153	23767
841.29	23939
841.427	23931
841.564	23954
841.701	23866
841.838	23916
841.975	23828
842.112	23794
842.249	23752
842.385	23710
842.522	23950
842.659	23893
842.796	23680
842.933	23646
843.069	23691
843.206	23615
843.343	23668
843.479	23714
843.616	23661
843.752	23410
843.889	23467
844.025	23604
844.162	23360
844.298	23452
844.435	23337
844.571	23410
844.708	23520
844.844	23524
844.98	23596
845.117	23520
845.253	23303
845.389	23398
845.525	23429
845.661	23337
845.798	23121
845.934	23128
846.07	23064
846.206	23105
846.342	23223
846.478	23143
846.614	22965
846.75	22889
846.886	22934
847.022	22934
847.158	23014
847.294	22949
847.429	22904
847.565	22786
847.701	23140
847.837	22596
847.972	22599
848.108	22702
848.244	22710
848.379	22596
848.515	22447
848.65	22481
848.786	22481
848.921	22527
849.057	22546
849.192	22672
849.328	22557
849.463	22535
849.598	22360
849.734	22390
849.869	22318
850.004	22371
850.14	22272
850.275	22310
850.41	22207
850.545	22116
850.68	22272
850.815	22246
850.95	22246
851.085	22478
851.22	22344
851.355	22230
851.49	22234
851.625	22219
851.76	22169
851.895	22253
852.03	22246
852.165	22344
852.299	22196
852.434	22314
852.569	22181
852.703	22261
852.838	22318
852.973	22344
853.107	22322
853.242	22154
853.376	22067
853.511	22120
853.645	22131
853.78	22101
853.914	22173
854.048	21975
854.183	22105
854.317	22090
854.451	22219
854.585	21994
854.72	22063
854.854	22177
854.988	22074
855.122	22101
855.256	21941
855.39	22025
855.524	22204
855.658	22048
855.792	22200
855.926	22154
856.06	22105
856.194	22181
856.327	21968
856.461	22078
856.595	21964
856.729	22059
856.862	22207
856.996	22147
857.13	22154
857.263	22131
857.397	22166
857.53	22120
857.664	22173
857.797	22219
857.931	22230
858.064	22006
858.197	22261
858.331	22032
858.464	21991
858.597	21975
858.731	21998
858.864	22036
858.997	22044
859.13	22112
859.263	22074
859.396	22223
859.529	22192
859.662	21930
859.795	22086
859.928	22169
860.061	22280
860.194	22268
860.327	22185
860.46	22169
860.592	22322
860.725	22329
860.858	22333
860.99	22036
861.123	22036
861.256	22032
861.388	22238
861.521	22710
861.653	21964
861.786	21819
861.918	21937
862.05	21975
862.183	22013
862.315	21991
862.447	22112
862.58	22025
862.712	21736
862.844	21652
862.976	21876
863.108	21819
863.24	22139
863.372	21766
863.504	21812
863.636	21819
863.768	21804
863.9	21865
864.032	21690
864.164	21827
864.296	21739
864.428	21842
864.559	21835
864.691	21907
864.823	21884
864.954	21797
865.086	21652
865.217	21854
865.349	21663
865.48	21652
865.612	21690
865.743	21857
865.875	21625
866.006	21618
866.137	21690
866.269	21762
866.4	21690
866.531	21557
866.662	21633
866.793	21564
866.924	21675
867.055	21557
867.186	21599
867.317	21652
867.448	21561
867.579	21511
867.71	21500
867.841	21530
867.972	21648
868.103	21599
868.233	21610
868.364	21557
868.495	21694
868.625	21800
868.756	21987
868.886	21785
869.017	21831
869.147	21979
869.278	22029
869.408	21831
869.539	21762
869.669	21903
869.799	21778
869.929	21899
870.06	22025
870.19	22147
870.32	22234
870.45	22166
870.58	22253
870.71	22284
870.84	22280
870.97	22314
871.1	22325
871.23	22394
871.36	22405
871.489	22470
871.619	22436
871.749	22550
871.879	22618
872.008	22573
872.138	22554
872.267	22493
872.397	22325
872.526	22310
872.656	22230
872.785	22363
872.915	22531
873.044	22618
873.173	22565
873.303	22649
873.432	22672
873.561	22592
873.69	22550
873.819	22474
873.948	22538
874.077	22603
874.206	22394
874.335	22432
874.464	22672
874.593	22744
874.722	22622
874.851	22679
874.979	22641
875.108	22877
875.237	22778
875.365	22637
875.494	22786
875.623	22786
875.751	22603
875.88	22618
876.008	22805
876.136	22892
876.265	23151
876.393	23250
876.521	23170
876.65	23193
876.778	23041
876.906	22976
877.034	23029
877.162	23098
877.29	23010
877.418	23162
877.546	23022
877.674	23060
877.802	23124
877.93	23025
878.058	23041
878.185	22930
878.313	22995
878.441	23090
878.568	22923
878.696	23086
878.824	22987
878.951	23086
879.079	23220
879.206	23307
879.333	23189
879.461	23128
879.588	23124
879.715	23140
879.842	23353
879.97	23098
880.097	22991
880.224	22820
880.351	23018
880.478	22946
880.605	22839
880.732	22896
880.859	23147
880.986	22904
881.112	23014
881.239	22668
881.366	22596
881.493	22569
881.619	22394
881.746	22554
881.872	22470
881.999	22386
882.125	22249
882.252	22451
882.378	22428
882.505	22580
882.631	22356
882.757	22021
882.883	22268
883.01	22055
883.136	22006
883.262	21968
883.388	21827
883.514	22185
883.64	22196
883.766	22093
883.892	21903
884.018	21812
884.143	22006
884.269	22196
884.395	21785
884.52	21694
884.646	21686
884.772	21732
884.897	21671
885.023	21682
885.148	21899
885.274	21842
885.399	21743
885.524	21873
885.65	21838
885.775	21770
885.9	21797
886.025	21835
886.15	21831
886.275	21633
886.4	21720
886.525	21770
886.65	21553
886.775	21545
886.9	21953
887.025	21945
887.149	21800
887.274	21652
887.399	21462
887.523	21420
887.648	21435
887.773	21469
887.897	21526
888.021	21447
888.146	21504
888.27	21591
888.395	21618
888.519	21500
888.643	21523
888.767	21606
888.891	21462
889.015	21374
889.139	21416
889.263	21264
889.387	21363
889.511	21443
889.635	21469
889.759	21283
889.883	21211
890.006	21211
890.13	21424
890.254	21180
890.377	21249
890.501	21058
890.624	21036
890.748	21085
890.871	20853
890.995	20883
891.118	20800
891.241	20819
891.364	20944
891.488	20887
891.611	20853
891.734	20781
891.857	20834
891.98	20876
892.103	20819
892.226	20838
892.349	20876
892.471	20629
892.594	20796
892.717	20891
892.839	20838
892.962	20872
893.085	20864
893.207	20708
893.33	20705
893.452	20594
893.575	20830
893.697	20773
893.819	20906
893.941	20967
894.064	20849
894.186	20682
894.308	20651
894.43	20857
894.552	20895
894.674	20765
894.796	20678
894.918	20807
895.04	20788
895.161	20785
895.283	20807
895.405	20682
895.526	20762
895.648	20663
895.769	20716
895.891	20830
896.012	20845
896.134	20712
896.255	20796
896.376	20670
896.498	20918
896.619	20629
896.74	20792
896.861	20792
896.982	21100
897.103	21131
897.224	20990
897.345	20937
897.466	20941
897.587	21028
897.708	21036
897.828	21009
897.949	20853
898.07	20823
898.19	20933
898.311	20971
898.431	20918
898.552	20925
898.672	21028
898.792	20994
898.913	20941
899.033	20701
899.153	20712
899.273	20663
899.393	20682
899.513	20686
899.633	20640
899.753	20769
899.873	20655
899.993	20758
900.113	20503
900.232	20682
900.352	20507
900.472	20514
900.591	20552
900.711	20476
900.83	20480
900.95	20560
901.069	20514
901.189	20298
901.308	20149
901.427	20008
901.546	20122
901.665	20024
901.784	20084
901.904	19909
902.023	19795
902.141	19605
902.26	19540
902.379	19674
902.498	19639
902.617	19537
902.735	19491
902.854	19453
902.973	19381
903.091	19251
903.21	19187
903.328	19152
903.446	19072
903.565	19027
903.683	19050
903.801	18814
903.919	18951
904.038	18973
904.156	18760
904.274	18897
904.392	18779
904.51	18795
904.627	18734
904.745	18783
904.863	18787
904.981	18563
905.098	18388
905.216	18448
905.334	18448
905.451	18467
905.569	18410
905.686	18467
905.803	18452
905.921	18152
906.038	18429
906.155	18235
906.272	18095
906.389	18148
906.506	17958
906.623	17984
906.74	18003
906.857	17840
906.974	17931
907.091	18034
907.208	18133
907.324	17882
907.441	17901
907.557	17764
907.674	17638
907.79	17604
907.907	17752
908.023	17729
908.139	17748
908.256	17524
908.372	17642
908.488	17543
908.604	17497
908.72	17372
908.836	17315
908.952	17292
909.068	17471
909.184	17391
909.3	17353
909.415	17398
909.531	17334
909.647	17102
909.762	17193
909.878	17075
909.993	17102
910.108	17151
910.224	17022
910.339	17098
910.454	17033
910.57	16980
910.685	16805
910.8	17022
910.915	16980
911.03	16892
911.145	16759
911.259	16634
911.374	16672
911.489	16664
911.604	16607
911.718	16462
911.833	16341
911.947	16257
912.062	16314
912.176	16470
912.291	16455
912.405	16462
912.519	16622
912.633	16573
912.748	16436
912.862	16249
912.976	16261
913.09	16131
913.204	16238
913.318	16204
913.431	16451
913.545	16409
913.659	16325
913.772	16204
913.886	16055
914	15949
914.113	16086
914.226	16017
914.34	16006
914.453	15884
914.566	15998
914.68	16002
914.793	15831
914.906	15637
915.019	15568
915.132	15584
915.245	15568
915.358	15717
915.47	15625
915.583	15629
915.696	15663
915.809	15622
915.921	15660
916.034	15690
916.146	15523
916.259	15412
916.371	15538
916.483	15523
916.595	15416
916.708	15458
916.82	15523
916.932	15401
917.044	15344
917.156	15424
917.268	15268
917.38	15241
917.491	15226
917.603	15188
917.715	15291
917.826	15359
917.938	15146
918.049	15093
918.161	15150
918.272	15310
918.384	15382
918.495	15237
918.606	15058
918.717	14910
918.828	15017
918.939	15058
919.05	14925
919.161	14982
919.272	14754
919.383	14815
919.494	14986
919.604	15146
919.715	14948
919.826	14804
919.936	14883
920.047	14948
920.157	14944
920.267	15138
920.378	14925
920.488	14982
920.598	15123
920.708	15249
920.818	15089
920.928	15017
921.038	15230
921.148	15184
921.258	14872
921.368	14701
921.477	14830
921.587	14625
921.697	14575
921.806	14720
921.916	14488
922.025	14286
922.134	14358
922.244	14195
922.353	14374
922.462	14202
922.571	14176
922.68	14027
922.789	13928
922.898	14046
923.007	13837
923.116	13959
923.224	13940
923.333	13909
923.442	13818
923.55	13791
923.659	13830
923.767	13837
923.876	13704
923.984	13928
924.092	13674
924.201	13666
924.309	13738
924.417	13772
924.525	13590
924.633	13658
924.741	14336
924.849	13430
924.956	13518
925.064	13285
925.172	13403
925.279	13274
925.387	13373
925.494	13324
925.602	13415
925.709	13426
925.816	13316
925.924	13274
926.031	13377
926.138	13304
926.245	13388
926.352	13160
926.459	13324
926.566	13373
926.673	13213
926.779	13110
926.886	13164
926.993	12993
927.099	12871
927.206	12886
927.312	12840
927.419	12962
927.525	12932
927.631	12863
927.737	12764
927.843	12635
927.95	12608
928.056	12753
928.162	12749
928.267	12776
928.373	13362
928.479	12776
928.585	12563
928.69	12631
928.796	12650
928.901	12563
929.007	12448
929.112	12570
929.218	12593
929.323	12517
929.428	12422
929.533	12559
929.638	12372
929.743	12361
929.848	12467
929.953	12410
930.058	12216
930.163	12026
930.267	12053
930.372	12247
930.477	12011
930.581	12334
930.685	12083
930.79	12076
930.894	12083
930.998	11984
931.103	12098
931.207	11737
931.311	11577
931.415	11543
931.519	11379
931.623	11269
