Data from test_V78500241_921.txt Node
Date: Fri Mar 25 15:48:10 CST 2022
User: usil
Spectrometer: V785-0024
Trigger mode: 0
Integration Time (sec): 4.000000E-1
Scans to average: 1
Nonlinearity correction enabled: false
Boxcar width: 0
Storing dark spectrum: false
XAxis mode: Wavelengths
Number of Pixels in Spectrum: 1024
>>>>>Begin Spectral Data<<<<<
801.071	27831
801.214	27705
801.356	27439
801.499	27302
801.641	27222
801.783	27351
801.926	27412
802.068	27447
802.211	27325
802.353	27195
802.496	27093
802.638	27142
802.78	27020
802.923	27047
803.065	26967
803.208	26929
803.35	26918
803.492	27066
803.635	27036
803.777	27104
803.919	27211
804.061	27462
804.204	27260
804.346	27142
804.488	27062
804.63	27157
804.773	27036
804.915	27135
805.057	27351
805.199	27199
805.341	27222
805.483	27344
805.626	27329
805.768	27195
805.91	27310
806.052	27378
806.194	27283
806.336	27519
806.478	27325
806.62	27279
806.762	27462
806.904	27477
807.046	27846
807.188	27709
807.33	27819
807.472	27671
807.614	27637
807.756	27728
807.898	27675
808.04	27469
808.182	27447
808.324	27648
808.465	27625
808.607	27861
808.749	28139
808.891	27972
809.033	28139
809.174	28105
809.316	27941
809.458	27914
809.6	27876
809.741	28188
809.883	28185
810.025	28238
810.166	28401
810.308	28348
810.45	28188
810.591	28185
810.733	27972
810.875	28021
811.016	27797
811.158	27930
811.299	28029
811.441	28150
811.582	28116
811.724	28029
811.865	27884
812.007	27918
812.148	27998
812.29	28017
812.431	28173
812.573	28219
812.714	28481
812.855	28550
812.997	28569
813.138	28634
813.279	28637
813.421	28523
813.562	28512
813.703	28306
813.845	28249
813.986	27922
814.127	27823
814.268	27648
814.41	27743
814.551	27652
814.692	27637
814.833	27622
814.974	27606
815.115	27869
815.256	27458
815.397	27485
815.539	27561
815.68	27370
815.821	27424
815.962	27374
816.103	27488
816.244	27348
816.385	27321
816.526	27207
816.666	27131
816.807	26982
816.948	26979
817.089	27241
817.23	27039
817.371	26998
817.512	26940
817.653	27020
817.793	26937
817.934	27009
818.075	27074
818.216	26880
818.356	26811
818.497	26872
818.638	26739
818.778	26674
818.919	26667
819.06	26762
819.2	26819
819.341	26998
819.481	26967
819.622	27192
819.762	27237
819.903	27287
820.043	27123
820.184	27127
820.324	27039
820.465	27169
820.605	27188
820.746	27173
820.886	26902
821.026	26967
821.167	27142
821.307	27036
821.447	27047
821.588	26864
821.728	26735
821.868	26606
822.008	26556
822.149	26526
822.289	26453
822.429	26100
822.569	26206
822.709	26119
822.849	25986
822.99	25921
823.13	25871
823.27	25875
823.41	25765
823.55	25700
823.69	25708
823.83	25795
823.97	25658
824.11	25567
824.25	25548
824.389	25666
824.529	25757
824.669	25655
824.809	25674
824.949	25814
825.089	25746
825.228	25662
825.368	25419
825.508	25468
825.648	25537
825.787	25559
825.927	25575
826.067	25483
826.206	25468
826.346	25594
826.485	25506
826.625	25419
826.765	25502
826.904	25479
827.044	25415
827.183	25362
827.323	25126
827.462	25259
827.601	25088
827.741	25156
827.88	25255
828.02	25038
828.159	25266
828.298	25179
828.437	25327
828.577	25160
828.716	25293
828.855	25076
828.994	24821
829.134	24901
829.273	25000
829.412	24920
829.551	24791
829.69	24901
829.829	24981
829.968	25065
830.107	24890
830.246	24943
830.385	24848
830.524	24905
830.663	24768
830.802	24692
830.941	24635
831.08	24494
831.219	24525
831.357	24486
831.496	24673
831.635	24494
831.774	24403
831.913	24429
832.051	24216
832.19	24311
832.329	24346
832.467	24254
832.606	24190
832.744	24095
832.883	24209
833.022	24178
833.16	24266
833.299	24182
833.437	24243
833.576	24205
833.714	24220
833.852	24391
833.991	24270
834.129	24338
834.267	24350
834.406	24159
834.544	24384
834.682	24292
834.821	24163
834.959	24429
835.097	24213
835.235	24174
835.373	24235
835.511	24155
835.65	24083
835.788	24148
835.926	23992
836.064	23870
836.202	23912
836.34	24038
836.478	24129
836.615	24095
836.753	24007
836.891	24064
837.029	24079
837.167	24053
837.305	23980
837.443	23817
837.58	23935
837.718	24110
837.856	23939
837.993	23923
838.131	23946
838.269	23741
838.406	23851
838.544	23691
838.681	23573
838.819	23497
838.956	23455
839.094	23345
839.231	23436
839.369	23608
839.506	23771
839.643	23691
839.781	23303
839.918	23349
840.055	23429
840.193	23436
840.33	23372
840.467	23277
840.604	23410
840.742	23535
840.879	23132
841.016	23303
841.153	23212
841.29	23296
841.427	23239
841.564	23277
841.701	23280
841.838	23223
841.975	23113
842.112	23174
842.249	23083
842.385	23075
842.522	23170
842.659	23212
842.796	23060
842.933	23067
843.069	23018
843.206	22987
843.343	23014
843.479	22938
843.616	23044
843.752	22873
843.889	22866
844.025	22995
844.162	22778
844.298	22919
844.435	22793
844.571	22645
844.708	22790
844.844	22835
844.98	22915
845.117	22934
845.253	22778
845.389	22656
845.525	22679
845.661	22706
845.798	22607
845.934	22542
846.07	22462
846.206	22470
846.342	22592
846.478	22557
846.614	22299
846.75	22238
846.886	22109
847.022	22348
847.158	22371
847.294	22284
847.429	22284
847.565	22344
847.701	22508
847.837	21960
847.972	21975
848.108	22036
848.244	22135
848.379	21732
848.515	21873
848.65	21888
848.786	21873
848.921	21994
849.057	21949
849.192	22013
849.328	21953
849.463	21816
849.598	21831
849.734	21732
849.869	21713
850.004	21686
850.14	21701
850.275	21625
850.41	21644
850.545	21519
850.68	21488
850.815	21580
850.95	21526
851.085	21793
851.22	21759
851.355	21660
851.49	21652
851.625	21549
851.76	21542
851.895	21564
852.03	21622
852.165	21633
852.299	21663
852.434	21755
852.569	21698
852.703	21606
852.838	21709
852.973	21713
853.107	21747
853.242	21538
853.376	21469
853.511	21302
853.645	21370
853.78	21488
853.914	21545
854.048	21473
854.183	21382
854.317	21412
854.451	21591
854.585	21462
854.72	21348
854.854	21557
854.988	21344
855.122	21340
855.256	21226
855.39	21359
855.524	21447
855.658	21462
855.792	21454
855.926	21466
856.06	21447
856.194	21367
856.327	21344
856.461	21363
856.595	21321
856.729	21534
856.862	21473
856.996	21405
857.13	21523
857.263	21500
857.397	21614
857.53	21447
857.664	21504
857.797	21599
857.931	21481
858.064	21488
858.197	21606
858.331	21450
858.464	21325
858.597	21332
858.731	21370
858.864	21435
858.997	21378
859.13	21378
859.263	21405
859.396	21572
859.529	21481
859.662	21382
859.795	21363
859.928	21523
860.061	21523
860.194	21682
860.327	21496
860.46	21572
860.592	21477
860.725	21526
860.858	21534
860.99	21469
861.123	21466
861.256	21412
861.388	21420
861.521	22143
861.653	21226
861.786	21146
861.918	21279
862.05	21298
862.183	21397
862.315	21424
862.447	21504
862.58	21359
862.712	21184
862.844	21043
862.976	21203
863.108	21150
863.24	21530
863.372	21146
863.504	21032
863.636	20994
863.768	21264
863.9	21195
864.032	21135
864.164	21096
864.296	21192
864.428	21279
864.559	21188
864.691	21161
864.823	21268
864.954	21138
865.086	21089
865.217	21036
865.349	20880
865.48	21043
865.612	21127
865.743	21135
865.875	21017
866.006	20933
866.137	21047
866.269	21051
866.4	21077
866.531	21020
866.662	20937
866.793	20929
866.924	21009
867.055	20960
867.186	21036
867.317	20986
867.448	20872
867.579	20880
867.71	20819
867.841	20929
867.972	20998
868.103	20948
868.233	20895
868.364	20948
868.495	21043
868.625	21264
868.756	21348
868.886	21135
869.017	21256
869.147	21393
869.278	21287
869.408	21306
869.539	21283
869.669	21291
869.799	21230
869.929	21378
870.06	21252
870.19	21637
870.32	21534
870.45	21644
870.58	21576
870.71	21739
870.84	21732
870.97	21625
871.1	21641
871.23	21660
871.36	21774
871.489	21785
871.619	21800
871.749	21751
871.879	21857
872.008	21956
872.138	21892
872.267	21857
872.397	21561
872.526	21603
872.656	21553
872.785	21637
872.915	21778
873.044	21899
873.173	21869
873.303	21972
873.432	21827
873.561	21991
873.69	21873
873.819	21869
873.948	21876
874.077	21835
874.206	21774
874.335	21873
874.464	21911
874.593	22048
874.722	22032
874.851	22086
874.979	22093
875.108	22131
875.237	21911
875.365	21960
875.494	22006
875.623	22204
875.751	22048
875.88	21884
876.008	22150
876.136	22265
876.265	22462
876.393	22618
876.521	22451
876.65	22527
876.778	22466
876.906	22379
877.034	22405
877.162	22447
877.29	22352
877.418	22421
877.546	22447
877.674	22390
877.802	22428
877.93	22443
878.058	22382
878.185	22268
878.313	22329
878.441	22337
878.568	22196
878.696	22417
878.824	22379
878.951	22443
879.079	22626
879.206	22793
879.333	22626
879.461	22474
879.588	22462
879.715	22550
879.842	22599
879.97	22409
880.097	22234
880.224	22154
880.351	22333
880.478	22169
880.605	22230
880.732	22158
880.859	22447
880.986	22329
881.112	22424
881.239	22101
881.366	21838
881.493	21884
881.619	21812
881.746	21930
881.872	21937
881.999	21888
882.125	21747
882.252	21793
882.378	21857
882.505	21880
882.631	21679
882.757	21583
882.883	21595
883.01	21492
883.136	21374
883.262	21340
883.388	21348
883.514	21466
883.64	21523
883.766	21458
883.892	21279
884.018	21370
884.143	21408
884.269	21481
884.395	21203
884.52	21055
884.646	21104
884.772	21142
884.897	20914
885.023	21138
885.148	21207
885.274	21351
885.399	21268
885.524	21154
885.65	21135
885.775	21192
885.9	21100
886.025	21283
886.15	21222
886.275	21062
886.4	21047
886.525	21074
886.65	21055
886.775	21062
886.9	21249
887.025	21272
887.149	21131
887.274	21009
887.399	20921
887.523	20899
887.648	20918
887.773	20735
887.897	21001
888.021	20990
888.146	20899
888.27	21108
888.395	21051
888.519	20830
888.643	20971
888.767	21020
888.891	20785
889.015	20701
889.139	20651
889.263	20769
889.387	20815
889.511	20883
889.635	20876
889.759	20883
889.883	20781
890.006	20735
890.13	20735
890.254	20560
890.377	20594
890.501	20324
890.624	20442
890.748	20503
890.871	20320
890.995	20259
891.118	20210
891.241	20332
891.364	20267
891.488	20396
891.611	20168
891.734	20214
891.857	20309
891.98	20309
892.103	20244
892.226	20301
892.349	20172
892.471	20126
892.594	20180
892.717	20172
892.839	20115
892.962	20164
893.085	20233
893.207	20210
893.33	20024
893.452	20119
893.575	20149
893.697	20290
893.819	20187
893.941	20374
894.064	20339
894.186	20138
894.308	20027
894.43	20240
894.552	20377
894.674	20256
894.796	20164
894.918	20153
895.04	20164
895.161	20195
895.283	20301
895.405	19993
895.526	20233
895.648	20168
895.769	20142
895.891	20305
896.012	20221
896.134	20244
896.255	20256
896.376	20240
896.498	20263
896.619	20210
896.74	20195
896.861	20271
896.982	20564
897.103	20678
897.224	20415
897.345	20431
897.466	20484
897.587	20370
897.708	20590
897.828	20415
897.949	20415
898.07	20210
898.19	20199
898.311	20469
898.431	20339
898.552	20278
898.672	20396
898.792	20602
898.913	20450
899.033	20301
899.153	20199
899.273	20206
899.393	20092
899.513	20218
899.633	20225
899.753	20210
899.873	20081
899.993	20172
900.113	20100
900.232	20134
900.352	20115
900.472	20103
900.591	19860
900.711	19955
900.83	19894
900.95	19986
901.069	19932
901.189	19837
901.308	19582
901.427	19419
901.546	19430
901.665	19518
901.784	19662
901.904	19502
902.023	19362
902.141	19023
902.26	19141
902.379	19088
902.498	19103
902.617	18814
902.735	18996
902.854	19004
902.973	18989
903.091	18677
903.21	18772
903.328	18639
903.446	18623
903.565	18494
903.683	18547
903.801	18407
903.919	18448
904.038	18517
904.156	18194
904.274	18266
904.392	18262
904.51	18228
904.627	18254
904.745	18304
904.863	18304
904.981	18110
905.098	17832
905.216	17992
905.334	17927
905.451	17939
905.569	17935
905.686	17977
905.803	17836
905.921	17722
906.038	17870
906.155	17729
906.272	17687
906.389	17729
906.506	17444
906.623	17512
906.74	17520
906.857	17410
906.974	17391
907.091	17417
907.208	17627
907.324	17493
907.441	17379
907.557	17159
907.674	17212
907.79	17037
907.907	17117
908.023	17231
908.139	17121
908.256	17083
908.372	16995
908.488	17086
908.604	16915
908.72	16869
908.836	16869
908.952	16911
909.068	16900
909.184	17029
909.3	16896
909.415	16858
909.531	16866
909.647	16698
909.762	16653
909.878	16645
909.993	16702
910.108	16481
910.224	16637
910.339	16611
910.454	16470
910.57	16428
910.685	16344
910.8	16771
910.915	16558
911.03	16306
911.145	16169
911.259	16238
911.374	16299
911.489	16177
911.604	16010
911.718	15873
911.833	15964
911.947	15880
912.062	15808
912.176	16013
912.291	15911
912.405	15972
912.519	16112
912.633	16181
912.748	15972
912.862	15911
912.976	15823
913.09	15610
913.204	15595
913.318	15728
913.431	15892
913.545	15842
913.659	15838
913.772	15732
913.886	15599
914	15629
914.113	15644
914.226	15599
914.34	15637
914.453	15477
914.566	15595
914.68	15462
914.793	15496
914.906	15275
915.019	15157
915.132	15077
915.245	15077
915.358	15093
915.47	15195
915.583	15268
915.696	15214
915.809	15359
915.921	15386
916.034	15169
916.146	15135
916.259	15070
916.371	15146
916.483	15173
916.595	14979
916.708	14929
916.82	14967
916.932	15017
917.044	15017
917.156	14937
917.268	14800
917.38	14842
917.491	14739
917.603	14838
917.715	14845
917.826	14971
917.938	14746
918.049	14697
918.161	14777
918.272	14861
918.384	14921
918.495	14746
918.606	14568
918.717	14473
918.828	14564
918.939	14613
919.05	14457
919.161	14602
919.272	14267
919.383	14347
919.494	14651
919.604	14724
919.715	14575
919.826	14434
919.936	14533
920.047	14583
920.157	14480
920.267	14746
920.378	14522
920.488	14537
920.598	14667
920.708	14891
920.818	14697
920.928	14530
921.038	14754
921.148	14769
921.258	14560
921.368	14374
921.477	14324
921.587	14294
921.697	14149
921.806	14187
921.916	14130
922.025	13879
922.134	13864
922.244	13890
922.353	13955
922.462	13841
922.571	13769
922.68	13590
922.789	13521
922.898	13575
923.007	13464
923.116	13582
923.224	13548
923.333	13518
923.442	13430
923.55	13422
923.659	13419
923.767	13480
923.876	13263
923.984	13312
924.092	13327
924.201	13297
924.309	13343
924.417	13297
924.525	13202
924.633	13198
924.741	14138
924.849	13061
924.956	13145
925.064	13027
925.172	12916
925.279	12993
925.387	12989
925.494	12989
925.602	13065
925.709	12886
925.816	12802
925.924	12932
926.031	12981
926.138	12958
926.245	13088
926.352	12867
926.459	12867
926.566	12886
926.673	12913
926.779	12722
926.886	12787
926.993	12703
927.099	12544
927.206	12513
927.312	12517
927.419	12559
927.525	12513
927.631	12574
927.737	12486
927.843	12407
927.95	12262
928.056	12323
928.162	12418
928.267	12395
928.373	12996
928.479	12441
928.585	12194
928.69	12273
928.796	12319
928.901	12167
929.007	12064
929.112	12342
929.218	12197
929.323	12083
929.428	11992
929.533	12232
929.638	12079
929.743	12007
929.848	12087
929.953	12076
930.058	11863
930.163	11756
930.267	11779
930.372	11904
930.477	11767
930.581	11996
930.685	11821
930.79	11699
930.894	11619
930.998	11630
931.103	11783
931.207	11474
931.311	11322
931.415	11212
931.519	11052
931.623	10999
