Data from test_V78500241_2917.txt Node
Date: Fri Mar 25 16:02:00 CST 2022
User: usil
Spectrometer: V785-0024
Trigger mode: 0
Integration Time (sec): 4.000000E-1
Scans to average: 1
Nonlinearity correction enabled: false
Boxcar width: 0
Storing dark spectrum: false
XAxis mode: Wavelengths
Number of Pixels in Spectrum: 1024
>>>>>Begin Spectral Data<<<<<
801.071	28805
801.214	28797
801.356	28421
801.499	28577
801.641	28367
801.783	28443
801.926	28360
802.068	28204
802.211	28188
802.353	28333
802.496	28139
802.638	28074
802.78	28051
802.923	28048
803.065	27941
803.208	27998
803.35	28188
803.492	28253
803.635	28352
803.777	28090
803.919	28325
804.061	28508
804.204	28447
804.346	28287
804.488	28363
804.63	28226
804.773	28329
804.915	28489
805.057	28367
805.199	28303
805.341	28428
805.483	28497
805.626	28379
805.768	28379
805.91	28363
806.052	28447
806.194	28440
806.336	28599
806.478	28504
806.62	28447
806.762	28660
806.904	28816
807.046	28976
807.188	28980
807.33	28908
807.472	28885
807.614	28900
807.756	28881
807.898	28812
808.04	28797
808.182	28793
808.324	28946
808.465	28881
808.607	29102
808.749	29113
808.891	29311
809.033	29292
809.174	29292
809.316	29284
809.458	29140
809.6	29170
809.741	29334
809.883	29379
810.025	29638
810.166	29520
810.308	29497
810.45	29364
810.591	29452
810.733	29261
810.875	29178
811.016	29162
811.158	29132
811.299	29239
811.441	29239
811.582	29398
811.724	29159
811.865	29246
812.007	29193
812.148	29265
812.29	29330
812.431	29493
812.573	29604
812.714	29554
812.855	29634
812.997	29874
813.138	29950
813.279	29901
813.421	29714
813.562	29882
813.703	29528
813.845	29364
813.986	29113
814.127	29014
814.268	28946
814.41	28942
814.551	28824
814.692	28953
814.833	28793
814.974	28824
815.115	28934
815.256	28835
815.397	28843
815.539	28767
815.68	28805
815.821	28843
815.962	28694
816.103	28778
816.244	28618
816.385	28504
816.526	28428
816.666	28173
816.807	28272
816.948	28253
817.089	28299
817.23	28196
817.371	28268
817.512	28166
817.653	28363
817.793	28143
817.934	28230
818.075	28367
818.216	28219
818.356	28257
818.497	28036
818.638	27991
818.778	28097
818.919	28135
819.06	28211
819.2	28097
819.341	28341
819.481	28188
819.622	28409
819.762	28580
819.903	28352
820.043	28538
820.184	28230
820.324	28409
820.465	28424
820.605	28341
820.746	28314
820.886	28246
821.026	28371
821.167	28382
821.307	28360
821.447	28310
821.588	28150
821.728	27888
821.868	27979
822.008	27717
822.149	27751
822.289	27755
822.429	27473
822.569	27386
822.709	27435
822.849	27275
822.99	27218
823.13	27241
823.27	27313
823.41	27192
823.55	26868
823.69	27142
823.83	26883
823.97	27047
824.11	26670
824.25	26773
824.389	26929
824.529	27058
824.669	26948
824.809	26899
824.949	27013
825.089	26918
825.228	26830
825.368	26781
825.508	26686
825.648	26705
825.787	26937
825.927	26937
826.067	26750
826.206	26739
826.346	26834
826.485	26762
826.625	26720
826.765	26895
826.904	26746
827.044	26606
827.183	26457
827.323	26549
827.462	26632
827.601	26533
827.741	26518
827.88	26461
828.02	26431
828.159	26381
828.298	26556
828.437	26511
828.577	26495
828.716	26552
828.855	26423
828.994	26107
829.134	26294
829.273	26176
829.412	26183
829.551	26138
829.69	26119
829.829	26229
829.968	26320
830.107	26214
830.246	26092
830.385	26126
830.524	26050
830.663	26183
830.802	25879
830.941	25708
831.08	25734
831.219	25826
831.357	25849
831.496	26035
831.635	25811
831.774	25769
831.913	25765
832.051	25696
832.19	25559
832.329	25559
832.467	25495
832.606	25445
832.744	25491
832.883	25411
833.022	25293
833.16	25350
833.299	25616
833.437	25422
833.576	25628
833.714	25392
833.852	25529
833.991	25510
834.129	25658
834.267	25578
834.406	25540
834.544	25571
834.682	25567
834.821	25377
834.959	25552
835.097	25476
835.235	25655
835.373	25479
835.511	25544
835.65	25400
835.788	25369
835.926	25232
836.064	25099
836.202	25179
836.34	25304
836.478	25419
836.615	25343
836.753	25278
836.891	25445
837.029	25289
837.167	25251
837.305	25274
837.443	25213
837.58	25126
837.718	25327
837.856	25137
837.993	25160
838.131	25110
838.269	25004
838.406	25046
838.544	25027
838.681	24886
838.819	24726
838.956	24555
839.094	24563
839.231	24684
839.369	24890
839.506	24924
839.643	24817
839.781	24627
839.918	24665
840.055	24563
840.193	24517
840.33	24475
840.467	24505
840.604	24547
840.742	24791
840.879	24376
841.016	24403
841.153	24384
841.29	24639
841.427	24642
841.564	24544
841.701	24578
841.838	24365
841.975	24372
842.112	24483
842.249	24224
842.385	24277
842.522	24639
842.659	24410
842.796	24205
842.933	24277
843.069	24194
843.206	24224
843.343	24445
843.479	24277
843.616	24228
843.752	24076
843.889	24129
844.025	24144
844.162	23992
844.298	24011
844.435	24117
844.571	24018
844.708	24133
844.844	24117
844.98	24311
845.117	24140
845.253	23927
845.389	23969
845.525	23931
845.661	23965
845.798	23729
845.934	24022
846.07	23703
846.206	23840
846.342	23840
846.478	23783
846.614	23512
846.75	23543
846.886	23501
847.022	23573
847.158	23570
847.294	23566
847.429	23535
847.565	23528
847.701	23707
847.837	23246
847.972	23315
848.108	23269
848.244	23239
848.379	23227
848.515	23105
848.65	23060
848.786	23166
848.921	23075
849.057	23181
849.192	23208
849.328	23143
849.463	23143
849.598	23102
849.734	22946
849.869	23003
850.004	22904
850.14	22885
850.275	22995
850.41	22831
850.545	22862
850.68	22828
850.815	22991
850.95	22843
851.085	23044
851.22	23033
851.355	22854
851.49	22782
851.625	22805
851.76	22858
851.895	22710
852.03	22820
852.165	22915
852.299	23056
852.434	22942
852.569	22976
852.703	22835
852.838	23006
852.973	22965
853.107	23014
853.242	22729
853.376	22706
853.511	22584
853.645	22790
853.78	22850
853.914	22668
854.048	22698
854.183	22615
854.317	22717
854.451	22759
854.585	22622
854.72	22702
854.854	22782
854.988	22630
855.122	22626
855.256	22478
855.39	22637
855.524	22759
855.658	22694
855.792	22653
855.926	22668
856.06	22752
856.194	22847
856.327	22755
856.461	22592
856.595	22653
856.729	22767
856.862	22938
856.996	22767
857.13	22664
857.263	22740
857.397	22801
857.53	22664
857.664	22653
857.797	22824
857.931	22752
858.064	22748
858.197	22793
858.331	22485
858.464	22637
858.597	22516
858.731	22706
858.864	22527
858.997	22660
859.13	22778
859.263	22656
859.396	22809
859.529	22664
859.662	22565
859.795	22721
859.928	22721
860.061	22885
860.194	22869
860.327	22649
860.46	22683
860.592	22843
860.725	22896
860.858	22790
860.99	22790
861.123	22656
861.256	22660
861.388	22702
861.521	23356
861.653	22592
861.786	22478
861.918	22569
862.05	22611
862.183	22592
862.315	22565
862.447	22713
862.58	22599
862.712	22421
862.844	22356
862.976	22402
863.108	22565
863.24	22885
863.372	22424
863.504	22485
863.636	22485
863.768	22504
863.9	22363
864.032	22379
864.164	22455
864.296	22565
864.428	22508
864.559	22459
864.691	22421
864.823	22325
864.954	22382
865.086	22352
865.217	22356
865.349	22166
865.48	22158
865.612	22219
865.743	22375
865.875	22257
866.006	22341
866.137	22329
866.269	22257
866.4	22348
866.531	22207
866.662	22162
866.793	22055
866.924	22185
867.055	22253
867.186	22226
867.317	22101
867.448	22192
867.579	22188
867.71	22150
867.841	22059
867.972	22169
868.103	22177
868.233	22242
868.364	22204
868.495	22325
868.625	22367
868.756	22489
868.886	22375
869.017	22291
869.147	22546
869.278	22535
869.408	22421
869.539	22390
869.669	22508
869.799	22481
869.929	22443
870.06	22538
870.19	22691
870.32	22679
870.45	22759
870.58	22915
870.71	22835
870.84	22976
870.97	22839
871.1	22824
871.23	23044
871.36	22946
871.489	23003
871.619	22854
871.749	22999
871.879	23029
872.008	23067
872.138	23029
872.267	23033
872.397	22987
872.526	22873
872.656	23010
872.785	22930
872.915	23090
873.044	23155
873.173	23113
873.303	23128
873.432	23075
873.561	23159
873.69	23109
873.819	23155
873.948	23162
874.077	23086
874.206	22900
874.335	23037
874.464	23204
874.593	23322
874.722	23231
874.851	23337
874.979	23341
875.108	23334
875.237	23220
875.365	23010
875.494	23341
875.623	23368
875.751	23277
875.88	23341
876.008	23353
876.136	23471
876.265	23642
876.393	23585
876.521	23547
876.65	23726
876.778	23699
876.906	23505
877.034	23589
877.162	23619
877.29	23604
877.418	23665
877.546	23604
877.674	23649
877.802	23543
877.93	23668
878.058	23543
878.185	23531
878.313	23493
878.441	23543
878.568	23379
878.696	23433
878.824	23714
878.951	23653
879.079	23771
879.206	23843
879.333	23813
879.461	23570
879.588	23783
879.715	23779
879.842	23965
879.97	23596
880.097	23467
880.224	23406
880.351	23535
880.478	23376
880.605	23486
880.732	23341
880.859	23566
880.986	23547
881.112	23436
881.239	23223
881.366	23162
881.493	23067
881.619	23052
881.746	23041
881.872	22999
881.999	22854
882.125	22854
882.252	22873
882.378	23003
882.505	22946
882.631	22809
882.757	22771
882.883	22687
883.01	22664
883.136	22531
883.262	22542
883.388	22504
883.514	22588
883.64	22668
883.766	22546
883.892	22500
884.018	22531
884.143	22660
884.269	22698
884.395	22371
884.52	22230
884.646	22318
884.772	22261
884.897	22230
885.023	22287
885.148	22325
885.274	22382
885.399	22325
885.524	22325
885.65	22287
885.775	22249
885.9	22204
886.025	22386
886.15	22356
886.275	22139
886.4	22158
886.525	22185
886.65	22234
886.775	22169
886.9	22306
887.025	22588
887.149	22272
887.274	22017
887.399	21972
887.523	22173
887.648	22032
887.773	21987
887.897	22112
888.021	22067
888.146	21964
888.27	22032
888.395	22158
888.519	22101
888.643	22162
888.767	22093
888.891	21991
889.015	21793
889.139	21960
889.263	21808
889.387	22040
889.511	21915
889.635	21892
889.759	21778
889.883	21918
890.006	21762
890.13	21972
890.254	21816
890.377	21717
890.501	21660
890.624	21523
890.748	21595
890.871	21591
890.995	21386
891.118	21359
891.241	21386
891.364	21294
891.488	21397
891.611	21412
891.734	21428
891.857	21469
891.98	21420
892.103	21401
892.226	21412
892.349	21340
892.471	21089
892.594	21237
892.717	21294
892.839	21203
892.962	21188
893.085	21374
893.207	21222
893.33	21169
893.452	21241
893.575	21283
893.697	21279
893.819	21405
893.941	21408
894.064	21313
894.186	21272
894.308	21112
894.43	21382
894.552	21287
894.674	21294
894.796	21260
894.918	21249
895.04	21176
895.161	21351
895.283	21340
895.405	21188
895.526	21317
895.648	21195
895.769	21249
895.891	21211
896.012	21351
896.134	21142
896.255	21230
896.376	21150
896.498	21184
896.619	21306
896.74	21188
896.861	21218
896.982	21526
897.103	21644
897.224	21443
897.345	21382
897.466	21332
897.587	21405
897.708	21644
897.828	21359
897.949	21393
898.07	21207
898.19	21386
898.311	21538
898.431	21416
898.552	21458
898.672	21439
898.792	21325
898.913	21450
899.033	21363
899.153	21199
899.273	21116
899.393	21127
899.513	21275
899.633	21203
899.753	21287
899.873	21119
899.993	21222
900.113	21192
900.232	21062
900.352	21100
900.472	20963
900.591	20933
900.711	20883
900.83	20834
900.95	21028
901.069	20952
901.189	20769
901.308	20503
901.427	20545
901.546	20549
901.665	20575
901.784	20450
901.904	20419
902.023	20240
902.141	20058
902.26	20031
902.379	20031
902.498	19993
902.617	19963
902.735	19925
902.854	19963
902.973	19883
903.091	19696
903.21	19632
903.328	19609
903.446	19525
903.565	19491
903.683	19449
903.801	19278
903.919	19343
904.038	19304
904.156	19209
904.274	19179
904.392	19297
904.51	19259
904.627	19244
904.745	19209
904.863	19156
904.981	19042
905.098	18894
905.216	18932
905.334	18905
905.451	18985
905.569	18958
905.686	18947
905.803	18779
905.921	18703
906.038	18810
906.155	18696
906.272	18566
906.389	18479
906.506	18513
906.623	18422
906.74	18334
906.857	18395
906.974	18357
907.091	18399
907.208	18570
907.324	18528
907.441	18251
907.557	18201
907.674	18159
907.79	18091
907.907	18045
908.023	18186
908.139	18098
908.256	18091
908.372	18019
908.488	18087
908.604	17775
908.72	17802
908.836	17783
908.952	17786
909.068	17760
909.184	17923
909.3	17836
909.415	17897
909.531	17794
909.647	17638
909.762	17539
909.878	17543
909.993	17398
910.108	17589
910.224	17497
910.339	17554
910.454	17334
910.57	17322
910.685	17242
910.8	17543
910.915	17512
911.03	17318
911.145	17060
911.259	17064
911.374	17033
911.489	17003
911.604	17010
911.718	16873
911.833	16767
911.947	16702
912.062	16622
912.176	16892
912.291	16889
912.405	16900
912.519	17064
912.633	17014
912.748	16847
912.862	16793
912.976	16668
913.09	16611
913.204	16504
913.318	16630
913.431	16774
913.545	16649
913.659	16702
913.772	16580
913.886	16455
914	16382
914.113	16421
914.226	16611
914.34	16379
914.453	16249
914.566	16421
914.68	16238
914.793	16211
914.906	16124
915.019	16010
915.132	15991
915.245	15922
915.358	16055
915.47	16029
915.583	16055
915.696	16006
915.809	16181
915.921	16082
916.034	16010
916.146	15854
916.259	15823
916.371	15838
916.483	15949
916.595	15770
916.708	15800
916.82	15884
916.932	15774
917.044	15781
917.156	15629
917.268	15751
917.38	15709
917.491	15610
917.603	15686
917.715	15739
917.826	15663
917.938	15606
918.049	15454
918.161	15545
918.272	15759
918.384	15618
918.495	15530
918.606	15408
918.717	15412
918.828	15405
918.939	15416
919.05	15317
919.161	15268
919.272	15112
919.383	15116
919.494	15321
919.604	15507
919.715	15332
919.826	15203
919.936	15226
920.047	15302
920.157	15260
920.267	15443
920.378	15287
920.488	15218
920.598	15416
920.708	15454
920.818	15420
920.928	15469
921.038	15618
921.148	15526
921.258	15325
921.368	15241
921.477	15138
921.587	15058
921.697	14899
921.806	15032
921.916	14830
922.025	14777
922.134	14598
922.244	14678
922.353	14762
922.462	14522
922.571	14450
922.68	14419
922.789	14278
922.898	14187
923.007	14240
923.116	14305
923.224	14206
923.333	14275
923.442	14134
923.55	14195
923.659	14126
923.767	14183
923.876	14008
923.984	14084
924.092	13974
924.201	14111
924.309	14039
924.417	13928
924.525	13841
924.633	13936
924.741	14819
924.849	13772
924.956	13913
925.064	13677
925.172	13662
925.279	13658
925.387	13712
925.494	13727
925.602	13814
925.709	13632
925.816	13548
925.924	13605
926.031	13723
926.138	13518
926.245	13590
926.352	13472
926.459	13540
926.566	13636
926.673	13506
926.779	13327
926.886	13377
926.993	13213
927.099	13194
927.206	13209
927.312	13095
927.419	13232
927.525	13206
927.631	13228
927.737	13179
927.843	13061
927.95	13012
928.056	13057
928.162	13050
928.267	13034
928.373	13742
928.479	13072
928.585	12924
928.69	12973
928.796	13000
928.901	12886
929.007	12730
929.112	12863
929.218	12749
929.323	12677
929.428	12692
929.533	12840
929.638	12631
929.743	12665
929.848	12684
929.953	12715
930.058	12566
930.163	12441
930.267	12330
930.372	12521
930.477	12308
930.581	12547
930.685	12479
930.79	12350
930.894	12361
930.998	12243
931.103	12388
931.207	12045
931.311	11920
931.415	11904
931.519	11627
931.623	11611
