Data from test_V78500241_2784.txt Node
Date: Fri Mar 25 16:01:05 CST 2022
User: usil
Spectrometer: V785-0024
Trigger mode: 0
Integration Time (sec): 4.000000E-1
Scans to average: 1
Nonlinearity correction enabled: false
Boxcar width: 0
Storing dark spectrum: false
XAxis mode: Wavelengths
Number of Pixels in Spectrum: 1024
>>>>>Begin Spectral Data<<<<<
801.071	29037
801.214	28930
801.356	28896
801.499	28805
801.641	28801
801.783	28615
801.926	28672
802.068	28596
802.211	28626
802.353	28618
802.496	28337
802.638	28451
802.78	28481
802.923	28265
803.065	28333
803.208	28478
803.35	28379
803.492	28424
803.635	28637
803.777	28592
803.919	28664
804.061	29052
804.204	28634
804.346	28675
804.488	28584
804.63	28641
804.773	28565
804.915	28710
805.057	28694
805.199	28691
805.341	28854
805.483	28729
805.626	28892
805.768	28679
805.91	28793
806.052	28828
806.194	28721
806.336	29044
806.478	28820
806.62	28809
806.762	28911
806.904	29124
807.046	29452
807.188	29250
807.33	29341
807.472	29254
807.614	29124
807.756	29212
807.898	29254
808.04	29147
808.182	29075
808.324	29052
808.465	29360
808.607	29558
808.749	29528
808.891	29474
809.033	29847
809.174	29649
809.316	29520
809.458	29554
809.6	29395
809.741	29684
809.883	29843
810.025	29920
810.166	29745
810.308	29885
810.45	29760
810.591	29726
810.733	29585
810.875	29558
811.016	29627
811.158	29414
811.299	29638
811.441	29748
811.582	29866
811.724	29577
811.865	29509
812.007	29722
812.148	29684
812.29	29512
812.431	29710
812.573	29885
812.714	29973
812.855	30117
812.997	30148
813.138	30300
813.279	30315
813.421	30136
813.562	29961
813.703	29874
813.845	29802
813.986	29608
814.127	29429
814.268	29311
814.41	29387
814.551	29140
814.692	29318
814.833	29212
814.974	29250
815.115	29391
815.256	29250
815.397	29174
815.539	29094
815.68	29185
815.821	29075
815.962	29022
816.103	29079
816.244	28946
816.385	29006
816.526	28927
816.666	28740
816.807	28573
816.948	28744
817.089	28748
817.23	28554
817.371	28516
817.512	28679
817.653	28641
817.793	28577
817.934	28565
818.075	28641
818.216	28634
818.356	28577
818.497	28561
818.638	28421
818.778	28440
818.919	28299
819.06	28417
819.2	28481
819.341	28588
819.481	28611
819.622	28873
819.762	28915
819.903	29025
820.043	28908
820.184	28835
820.324	28748
820.465	28835
820.605	28793
820.746	28713
820.886	28725
821.026	28641
821.167	28694
821.307	28869
821.447	28698
821.588	28516
821.728	28538
821.868	28272
822.008	28067
822.149	28093
822.289	28166
822.429	27892
822.569	27766
822.709	27778
822.849	27663
822.99	27595
823.13	27526
823.27	27595
823.41	27454
823.55	27370
823.69	27515
823.83	27481
823.97	27382
824.11	27123
824.25	27138
824.389	27264
824.529	27264
824.669	27313
824.809	27397
824.949	27317
825.089	27348
825.228	27408
825.368	27222
825.508	27017
825.648	27264
825.787	27169
825.927	27119
826.067	27135
826.206	27264
826.346	27180
826.485	27195
826.625	27214
826.765	27275
826.904	27146
827.044	26952
827.183	26758
827.323	26811
827.462	26975
827.601	26902
827.741	26861
827.88	26910
828.02	26769
828.159	26899
828.298	26944
828.437	26952
828.577	26811
828.716	26967
828.855	26693
828.994	26609
829.134	26606
829.273	26659
829.412	26552
829.551	26476
829.69	26590
829.829	26602
829.968	26556
830.107	26735
830.246	26549
830.385	26385
830.524	26450
830.663	26400
830.802	26385
830.941	26248
831.08	26122
831.219	26229
831.357	26180
831.496	26396
831.635	25993
831.774	26115
831.913	26092
832.051	26027
832.19	25989
832.329	25966
832.467	25925
832.606	25868
832.744	25833
832.883	25715
833.022	25833
833.16	25822
833.299	25864
833.437	25811
833.576	25978
833.714	25864
833.852	25940
833.991	25940
834.129	25906
834.267	25871
834.406	25955
834.544	25906
834.682	25986
834.821	25986
834.959	26069
835.097	25921
835.235	26058
835.373	25864
835.511	25750
835.65	25689
835.788	25746
835.926	25742
836.064	25628
836.202	25483
836.34	25647
836.478	25795
836.615	25750
836.753	25666
836.891	25841
837.029	25594
837.167	25708
837.305	25597
837.443	25578
837.58	25537
837.718	25578
837.856	25575
837.993	25407
838.131	25407
838.269	25263
838.406	25445
838.544	25365
838.681	25190
838.819	25156
838.956	24970
839.094	24966
839.231	25091
839.369	25198
839.506	25438
839.643	25228
839.781	25038
839.918	25042
840.055	24920
840.193	25133
840.33	25019
840.467	24882
840.604	24875
840.742	25129
840.879	24779
841.016	24871
841.153	24681
841.29	24947
841.427	24935
841.564	24833
841.701	24871
841.838	24901
841.975	24806
842.112	24909
842.249	24730
842.385	24665
842.522	24913
842.659	24802
842.796	24658
842.933	24692
843.069	24646
843.206	24593
843.343	24623
843.479	24612
843.616	24620
843.752	24471
843.889	24494
844.025	24635
844.162	24361
844.298	24513
844.435	24357
844.571	24452
844.708	24441
844.844	24559
844.98	24547
845.117	24456
845.253	24517
845.389	24258
845.525	24407
845.661	24243
845.798	24194
845.934	24110
846.07	24197
846.206	24163
846.342	24308
846.478	24251
846.614	24034
846.75	23794
846.886	23851
847.022	23878
847.158	23908
847.294	23939
847.429	24076
847.565	23779
847.701	24007
847.837	23630
847.972	23608
848.108	23604
848.244	23733
848.379	23543
848.515	23493
848.65	23417
848.786	23505
848.921	23391
849.057	23554
849.192	23433
849.328	23512
849.463	23440
849.598	23356
849.734	23395
849.869	23273
850.004	23220
850.14	23265
850.275	23254
850.41	23132
850.545	23189
850.68	23280
850.815	23250
850.95	23299
851.085	23486
851.22	23322
851.355	23277
851.49	23185
851.625	23212
851.76	23189
851.895	23208
852.03	23147
852.165	23223
852.299	23185
852.434	23379
852.569	23265
852.703	23356
852.838	23277
852.973	23197
853.107	23223
853.242	23162
853.376	23037
853.511	22984
853.645	23010
853.78	23174
853.914	23090
854.048	22961
854.183	22984
854.317	23052
854.451	23273
854.585	23014
854.72	23109
854.854	22995
854.988	22911
855.122	23147
855.256	22965
855.39	23105
855.524	23064
855.658	23083
855.792	23060
855.926	23102
856.06	23265
856.194	23162
856.327	22995
856.461	23086
856.595	23060
856.729	23102
856.862	23044
856.996	23102
857.13	23151
857.263	23231
857.397	23220
857.53	23018
857.664	23105
857.797	23170
857.931	23174
858.064	23067
858.197	23212
858.331	22984
858.464	22942
858.597	22995
858.731	23060
858.864	23037
858.997	22976
859.13	22968
859.263	23185
859.396	23151
859.529	23029
859.662	22987
859.795	23071
859.928	23071
860.061	23208
860.194	23337
860.327	23075
860.46	23124
860.592	23147
860.725	23132
860.858	23185
860.99	23124
861.123	23079
861.256	23147
861.388	23105
861.521	23661
861.653	22919
861.786	22900
861.918	22843
862.05	22942
862.183	22900
862.315	22995
862.447	23113
862.58	22866
862.712	22767
862.844	22744
862.976	22942
863.108	22752
863.24	23204
863.372	22771
863.504	22809
863.636	22850
863.768	22896
863.9	22710
864.032	22740
864.164	22710
864.296	22835
864.428	22938
864.559	22740
864.691	22733
864.823	22828
864.954	22649
865.086	22694
865.217	22687
865.349	22516
865.48	22577
865.612	22713
865.743	22755
865.875	22691
866.006	22500
866.137	22577
866.269	22645
866.4	22611
866.531	22603
866.662	22573
866.793	22516
866.924	22569
867.055	22542
867.186	22462
867.317	22523
867.448	22451
867.579	22565
867.71	22485
867.841	22554
867.972	22519
868.103	22561
868.233	22497
868.364	22538
868.495	22744
868.625	22850
868.756	22755
868.886	22793
869.017	22885
869.147	22885
869.278	22839
869.408	22843
869.539	22740
869.669	22828
869.799	22885
869.929	22927
870.06	22812
870.19	23109
870.32	23056
870.45	23075
870.58	23094
870.71	23254
870.84	23318
870.97	23216
871.1	23193
871.23	23307
871.36	23406
871.489	23322
871.619	23284
871.749	23558
871.879	23417
872.008	23414
872.138	23406
872.267	23368
872.397	23303
872.526	23322
872.656	23345
872.785	23250
872.915	23471
873.044	23395
873.173	23490
873.303	23547
873.432	23433
873.561	23474
873.69	23459
873.819	23410
873.948	23459
874.077	23433
874.206	23433
874.335	23345
874.464	23501
874.593	23627
874.722	23516
874.851	23657
874.979	23535
875.108	23657
875.237	23741
875.365	23505
875.494	23547
875.623	23703
875.751	23554
875.88	23566
876.008	23646
876.136	23824
876.265	24091
876.393	24087
876.521	24159
876.65	24114
876.778	23958
876.906	23923
877.034	23958
877.162	23874
877.29	23874
877.418	23897
877.546	23980
877.674	23901
877.802	24007
877.93	23912
878.058	23843
878.185	23805
878.313	24018
878.441	23931
878.568	23771
878.696	23878
878.824	23912
878.951	24079
879.079	24197
879.206	24133
879.333	24117
879.461	23969
879.588	24174
879.715	24144
879.842	24125
879.97	24026
880.097	23760
880.224	23741
880.351	23912
880.478	23745
880.605	23813
880.732	23798
880.859	24148
880.986	23809
881.112	23828
881.239	23589
881.366	23539
881.493	23543
881.619	23345
881.746	23372
881.872	23391
881.999	23337
882.125	23261
882.252	23345
882.378	23353
882.505	23444
882.631	23094
882.757	23098
882.883	23041
883.01	22949
883.136	22991
883.262	22835
883.388	22774
883.514	22953
883.64	23003
883.766	23048
883.892	22820
884.018	22748
884.143	22850
884.269	22999
884.395	22645
884.52	22580
884.646	22687
884.772	22542
884.897	22390
885.023	22694
885.148	22752
885.274	22744
885.399	22577
885.524	22668
885.65	22500
885.775	22660
885.9	22675
886.025	22767
886.15	22702
886.275	22634
886.4	22508
886.525	22656
886.65	22656
886.775	22660
886.9	22782
887.025	22862
887.149	22565
887.274	22413
887.399	22371
887.523	22413
887.648	22379
887.773	22257
887.897	22500
888.021	22371
888.146	22188
888.27	22481
888.395	22436
888.519	22344
888.643	22371
888.767	22341
888.891	22188
889.015	22204
889.139	22238
889.263	22196
889.387	22169
889.511	22455
889.635	22272
889.759	22097
889.883	22112
890.006	22158
890.13	22261
890.254	22036
890.377	22097
890.501	22017
890.624	21793
890.748	22021
890.871	21804
890.995	21656
891.118	21694
891.241	21724
891.364	21698
891.488	21873
891.611	21720
891.734	21576
891.857	21793
891.98	21743
892.103	21827
892.226	21663
892.349	21644
892.471	21599
892.594	21606
892.717	21705
892.839	21500
892.962	21606
893.085	21545
893.207	21591
893.33	21576
893.452	21450
893.575	21580
893.697	21583
893.819	21671
893.941	21694
894.064	21724
894.186	21549
894.308	21435
894.43	21705
894.552	21713
894.674	21557
894.796	21515
894.918	21439
895.04	21523
895.161	21637
895.283	21610
895.405	21431
895.526	21511
895.648	21606
895.769	21622
895.891	21591
896.012	21542
896.134	21610
896.255	21504
896.376	21549
896.498	21542
896.619	21526
896.74	21500
896.861	21629
896.982	21918
897.103	21956
897.224	21770
897.345	21675
897.466	21641
897.587	21679
897.708	21823
897.828	21797
897.949	21648
898.07	21523
898.19	21675
898.311	21827
898.431	21751
898.552	21732
898.672	21781
898.792	21762
898.913	21759
899.033	21477
899.153	21564
899.273	21367
899.393	21443
899.513	21534
899.633	21454
899.753	21424
899.873	21268
899.993	21473
900.113	21336
900.232	21393
900.352	21462
900.472	21211
900.591	21127
900.711	21291
900.83	21279
900.95	21245
901.069	21313
901.189	21058
901.308	20876
901.427	20804
901.546	20800
901.665	20823
901.784	20697
901.904	20667
902.023	20522
902.141	20275
902.26	20454
902.379	20446
902.498	20328
902.617	20180
902.735	20355
902.854	20259
902.973	20187
903.091	19955
903.21	19997
903.328	20012
903.446	19833
903.565	19719
903.683	19791
903.801	19651
903.919	19715
904.038	19689
904.156	19548
904.274	19651
904.392	19529
904.51	19422
904.627	19422
904.745	19529
904.863	19495
904.981	19316
905.098	19053
905.216	19118
905.334	19179
905.451	19122
905.569	19072
905.686	19027
905.803	19091
905.921	18939
906.038	19015
906.155	18852
906.272	18795
906.389	18840
906.506	18635
906.623	18620
906.74	18726
906.857	18559
906.974	18604
907.091	18696
907.208	18681
907.324	18627
907.441	18570
907.557	18418
907.674	18342
907.79	18391
907.907	18273
908.023	18414
908.139	18437
908.256	18296
908.372	18346
908.488	18277
908.604	18034
908.72	18117
908.836	18197
908.952	18060
909.068	18049
909.184	18152
909.3	17999
909.415	18076
909.531	17992
909.647	17840
909.762	17832
909.878	17718
909.993	17707
910.108	17824
910.224	17703
910.339	17748
910.454	17638
910.57	17676
910.685	17512
910.8	17821
910.915	17703
911.03	17490
911.145	17429
911.259	17330
911.374	17299
911.489	17250
911.604	17227
911.718	17045
911.833	17155
911.947	16984
912.062	16927
912.176	17025
912.291	17052
912.405	17105
912.519	17326
912.633	17212
912.748	17128
912.862	16961
912.976	16953
913.09	16733
913.204	16869
913.318	16854
913.431	16911
913.545	16942
913.659	17060
913.772	16797
913.886	16653
914	16656
914.113	16710
914.226	16729
914.34	16717
914.453	16561
914.566	16752
914.68	16607
914.793	16474
914.906	16352
915.019	16303
915.132	16158
915.245	16253
915.358	16253
915.47	16204
915.583	16207
915.696	16192
915.809	16379
915.921	16455
916.034	16090
916.146	16048
916.259	16196
916.371	16162
916.483	16265
916.595	16120
916.708	16074
916.82	16048
916.932	15953
917.044	16032
917.156	16021
917.268	15827
917.38	15949
917.491	15850
917.603	15785
917.715	15876
917.826	15956
917.938	15800
918.049	15701
918.161	15778
918.272	15918
918.384	15903
918.495	15709
918.606	15656
918.717	15561
918.828	15606
918.939	15511
919.05	15435
919.161	15473
919.272	15351
919.383	15332
919.494	15614
919.604	15770
919.715	15656
919.826	15416
919.936	15523
920.047	15561
920.157	15580
920.267	15629
920.378	15462
920.488	15511
920.598	15793
920.708	15812
920.818	15622
920.928	15698
921.038	15739
921.148	15766
921.258	15496
921.368	15374
921.477	15233
921.587	15165
921.697	15161
921.806	15211
921.916	15108
922.025	14887
922.134	14830
922.244	14788
922.353	14944
922.462	14712
922.571	14750
922.68	14568
922.789	14473
922.898	14511
923.007	14457
923.116	14590
923.224	14431
923.333	14495
923.442	14237
923.55	14317
923.659	14343
923.767	14438
923.876	14248
923.984	14412
924.092	14206
924.201	14218
924.309	14176
924.417	14233
924.525	14183
924.633	14176
924.741	15028
924.849	14008
924.956	14016
925.064	13925
925.172	13780
925.279	13944
925.387	13925
925.494	13871
925.602	14096
925.709	13902
925.816	13826
925.924	13780
926.031	13940
926.138	13788
926.245	13753
926.352	13693
926.459	13750
926.566	13772
926.673	13605
926.779	13636
926.886	13647
926.993	13457
927.099	13400
927.206	13308
927.312	13324
927.419	13381
927.525	13350
927.631	13472
927.737	13247
927.843	13293
927.95	13122
928.056	13179
928.162	13194
928.267	13278
928.373	13757
928.479	13221
928.585	13061
928.69	13050
928.796	13126
928.901	13110
929.007	12947
929.112	13027
929.218	13133
929.323	13019
929.428	12897
929.533	13034
929.638	12901
929.743	12840
929.848	12859
929.953	12871
930.058	12772
930.163	12612
930.267	12696
930.372	12700
930.477	12582
930.581	12719
930.685	12601
930.79	12502
930.894	12467
930.998	12506
931.103	12566
931.207	12140
931.311	12098
931.415	11946
931.519	11840
931.623	11756
