Data from test_V78500241_3253.txt Node
Date: Fri Mar 25 16:04:20 CST 2022
User: usil
Spectrometer: V785-0024
Trigger mode: 0
Integration Time (sec): 4.000000E-1
Scans to average: 1
Nonlinearity correction enabled: false
Boxcar width: 0
Storing dark spectrum: false
XAxis mode: Wavelengths
Number of Pixels in Spectrum: 1024
>>>>>Begin Spectral Data<<<<<
801.071	28656
801.214	28717
801.356	28428
801.499	28386
801.641	28382
801.783	28451
801.926	28451
802.068	28295
802.211	28223
802.353	28238
802.496	28215
802.638	28070
802.78	27987
802.923	27991
803.065	27911
803.208	27918
803.35	27987
803.492	28169
803.635	28192
803.777	28253
803.919	28154
804.061	28577
804.204	28215
804.346	28116
804.488	28124
804.63	28200
804.773	28253
804.915	28265
805.057	28348
805.199	28234
805.341	28120
805.483	28516
805.626	28455
805.768	28363
805.91	28367
806.052	28546
806.194	28344
806.336	28565
806.478	28569
806.62	28497
806.762	28653
806.904	28786
807.046	28847
807.188	28957
807.33	28850
807.472	28869
807.614	28839
807.756	28869
807.898	28847
808.04	28656
808.182	28679
808.324	28698
808.465	28721
808.607	28995
808.749	29124
808.891	29117
809.033	29406
809.174	29147
809.316	29143
809.458	28976
809.6	29147
809.741	29246
809.883	29299
810.025	29433
810.166	29543
810.308	29364
810.45	29471
810.591	29356
810.733	29136
810.875	29071
811.016	29071
811.158	29128
811.299	29124
811.441	29227
811.582	29254
811.724	29208
811.865	29086
812.007	29033
812.148	29159
812.29	29166
812.431	29452
812.573	29349
812.714	29600
812.855	29691
812.997	29760
813.138	29802
813.279	29729
813.421	29615
813.562	29592
813.703	29471
813.845	29383
813.986	29010
814.127	29048
814.268	28824
814.41	28797
814.551	28854
814.692	28812
814.833	28809
814.974	28877
815.115	28904
815.256	28641
815.397	28797
815.539	28698
815.68	28607
815.821	28698
815.962	28649
816.103	28596
816.244	28523
816.385	28573
816.526	28451
816.666	28253
816.807	28219
816.948	28109
817.089	28352
817.23	28181
817.371	28204
817.512	28207
817.653	28162
817.793	28086
817.934	28131
818.075	28238
818.216	28318
818.356	28124
818.497	28120
818.638	27873
818.778	27892
818.919	27979
819.06	28002
819.2	28166
819.341	28158
819.481	28158
819.622	28398
819.762	28527
819.903	28455
820.043	28462
820.184	28238
820.324	28310
820.465	28314
820.605	28303
820.746	28242
820.886	28124
821.026	28276
821.167	28246
821.307	28352
821.447	28074
821.588	28055
821.728	27911
821.868	27838
822.008	27576
822.149	27766
822.289	27633
822.429	27469
822.569	27473
822.709	27249
822.849	27222
822.99	27112
823.13	27100
823.27	27036
823.41	26853
823.55	26830
823.69	26960
823.83	26895
823.97	26910
824.11	26777
824.25	26735
824.389	26857
824.529	26948
824.669	26804
824.809	26864
824.949	26891
825.089	26929
825.228	26864
825.368	26651
825.508	26674
825.648	26743
825.787	26689
825.927	26708
826.067	26613
826.206	26693
826.346	26769
826.485	26754
826.625	26716
826.765	26876
826.904	26686
827.044	26389
827.183	26594
827.323	26336
827.462	26587
827.601	26507
827.741	26434
827.88	26328
828.02	26362
828.159	26434
828.298	26358
828.437	26541
828.577	26434
828.716	26453
828.855	26328
828.994	26122
829.134	26081
829.273	26157
829.412	26111
829.551	26039
829.69	26157
829.829	26046
829.968	26229
830.107	26134
830.246	26153
830.385	25997
830.524	25947
830.663	26035
830.802	25750
830.941	25666
831.08	25620
831.219	25837
831.357	25734
831.496	25970
831.635	25757
831.774	25712
831.913	25525
832.051	25529
832.19	25556
832.329	25518
832.467	25434
832.606	25190
832.744	25396
832.883	25293
833.022	25266
833.16	25362
833.299	25434
833.437	25331
833.576	25339
833.714	25422
833.852	25483
833.991	25479
834.129	25518
834.267	25567
834.406	25415
834.544	25525
834.682	25422
834.821	25502
834.959	25571
835.097	25392
835.235	25407
835.373	25255
835.511	25544
835.65	25324
835.788	25278
835.926	25179
836.064	24996
836.202	25091
836.34	25350
836.478	25301
836.615	25308
836.753	25255
836.891	25297
837.029	25289
837.167	25141
837.305	25103
837.443	25107
837.58	25148
837.718	25107
837.856	25107
837.993	24996
838.131	25103
838.269	24863
838.406	25019
838.544	24871
838.681	24745
838.819	24677
838.956	24448
839.094	24559
839.231	24578
839.369	24719
839.506	24958
839.643	24757
839.781	24566
839.918	24483
840.055	24509
840.193	24604
840.33	24399
840.467	24452
840.604	24471
840.742	24703
840.879	24327
841.016	24448
841.153	24232
841.29	24486
841.427	24448
841.564	24437
841.701	24410
841.838	24365
841.975	24330
842.112	24372
842.249	24262
842.385	24068
842.522	24475
842.659	24216
842.796	24125
842.933	24262
843.069	24144
843.206	24205
843.343	24281
843.479	24216
843.616	24114
843.752	23988
843.889	24072
844.025	24167
844.162	23920
844.298	24152
844.435	23961
844.571	23832
844.708	24144
844.844	24182
844.98	24136
845.117	24072
845.253	23840
845.389	23783
845.525	23870
845.661	23836
845.798	23836
845.934	23745
846.07	23634
846.206	23809
846.342	23851
846.478	23642
846.614	23577
846.75	23391
846.886	23395
847.022	23554
847.158	23372
847.294	23440
847.429	23474
847.565	23448
847.701	23627
847.837	23140
847.972	23242
848.108	23151
848.244	23212
848.379	23010
848.515	22976
848.65	23022
848.786	23090
848.921	22976
849.057	23052
849.192	23166
849.328	23033
849.463	23044
849.598	22946
849.734	22942
849.869	22885
850.004	22744
850.14	22748
850.275	22809
850.41	22668
850.545	22713
850.68	22694
850.815	22755
850.95	22767
851.085	22862
851.22	22881
851.355	22801
851.49	22790
851.625	22850
851.76	22812
851.895	22626
852.03	22733
852.165	22831
852.299	22889
852.434	22854
852.569	22816
852.703	22908
852.838	22847
852.973	23041
853.107	22790
853.242	22710
853.376	22736
853.511	22527
853.645	22630
853.78	22744
853.914	22615
854.048	22527
854.183	22645
854.317	22573
854.451	22801
854.585	22557
854.72	22675
854.854	22721
854.988	22584
855.122	22637
855.256	22440
855.39	22744
855.524	22748
855.658	22637
855.792	22538
855.926	22531
856.06	22603
856.194	22740
856.327	22546
856.461	22611
856.595	22622
856.729	22599
856.862	22691
856.996	22725
857.13	22630
857.263	22653
857.397	22634
857.53	22478
857.664	22618
857.797	22706
857.931	22812
858.064	22607
858.197	22660
858.331	22470
858.464	22588
858.597	22493
858.731	22713
858.864	22535
858.997	22729
859.13	22565
859.263	22626
859.396	22675
859.529	22485
859.662	22599
859.795	22588
859.928	22519
860.061	22729
860.194	22801
860.327	22706
860.46	22630
860.592	22755
860.725	22767
860.858	22641
860.99	22691
861.123	22607
861.256	22519
861.388	22565
861.521	23307
861.653	22512
861.786	22257
861.918	22322
862.05	22504
862.183	22470
862.315	22535
862.447	22596
862.58	22470
862.712	22322
862.844	22284
862.976	22459
863.108	22398
863.24	22660
863.372	22371
863.504	22337
863.636	22310
863.768	22322
863.9	22322
864.032	22207
864.164	22268
864.296	22272
864.428	22379
864.559	22363
864.691	22223
864.823	22306
864.954	22280
865.086	22268
865.217	22238
865.349	22173
865.48	22192
865.612	22234
865.743	22398
865.875	22181
866.006	22200
866.137	22257
866.269	22257
866.4	22150
866.531	22162
866.662	22074
866.793	22238
866.924	22124
867.055	22192
867.186	22135
867.317	22082
867.448	22010
867.579	22105
867.71	22074
867.841	22006
867.972	22074
868.103	22017
868.233	22097
868.364	22097
868.495	22105
868.625	22284
868.756	22451
868.886	22379
869.017	22440
869.147	22527
869.278	22462
869.408	22348
869.539	22409
869.669	22329
869.799	22493
869.929	22344
870.06	22462
870.19	22771
870.32	22592
870.45	22748
870.58	22649
870.71	22866
870.84	22877
870.97	22736
871.1	22752
871.23	22797
871.36	22949
871.489	22824
871.619	22866
871.749	22866
871.879	22923
872.008	23029
872.138	22972
872.267	23022
872.397	22759
872.526	22854
872.656	22752
872.785	22873
872.915	23029
873.044	23014
873.173	22930
873.303	22980
873.432	22961
873.561	23170
873.69	23041
873.819	22850
873.948	23014
874.077	22968
874.206	22820
874.335	22968
874.464	23090
874.593	23140
874.722	23200
874.851	23311
874.979	23124
875.108	23231
875.237	23235
875.365	23121
875.494	23071
875.623	23284
875.751	23273
875.88	23193
876.008	23246
876.136	23436
876.265	23471
876.393	23767
876.521	23657
876.65	23642
876.778	23627
876.906	23611
877.034	23471
877.162	23562
877.29	23410
877.418	23646
877.546	23554
877.674	23577
877.802	23455
877.93	23410
878.058	23429
878.185	23417
878.313	23433
878.441	23486
878.568	23349
878.696	23501
878.824	23539
878.951	23672
879.079	23680
879.206	23786
879.333	23718
879.461	23452
879.588	23653
879.715	23741
879.842	23817
879.97	23672
880.097	23326
880.224	23349
880.351	23330
880.478	23372
880.605	23349
880.732	23277
880.859	23630
880.986	23326
881.112	23448
881.239	23064
881.366	23086
881.493	22938
881.619	22892
881.746	22885
881.872	23079
881.999	22831
882.125	22900
882.252	23033
882.378	22771
882.505	22984
882.631	22759
882.757	22626
882.883	22717
883.01	22565
883.136	22451
883.262	22447
883.388	22569
883.514	22470
883.64	22519
883.766	22481
883.892	22394
884.018	22405
884.143	22462
884.269	22512
884.395	22325
884.52	22135
884.646	22325
884.772	22025
884.897	22093
885.023	22219
885.148	22325
885.274	22386
885.399	22371
885.524	22093
885.65	22105
885.775	22310
885.9	22204
886.025	22329
886.15	22242
886.275	22116
886.4	22196
886.525	22215
886.65	22070
886.775	22093
886.9	22276
887.025	22405
887.149	22238
887.274	22044
887.399	21876
887.523	22032
887.648	21854
887.773	21873
887.897	22036
888.021	22021
888.146	21842
888.27	22074
888.395	22139
888.519	22044
888.643	22017
888.767	22116
888.891	21804
889.015	21713
889.139	21774
889.263	21781
889.387	21869
889.511	21857
889.635	21922
889.759	21808
889.883	21732
890.006	21831
890.13	21899
890.254	21755
890.377	21766
890.501	21530
890.624	21477
890.748	21583
890.871	21329
890.995	21462
891.118	21268
891.241	21329
891.364	21348
891.488	21485
891.611	21329
891.734	21275
891.857	21370
891.98	21317
892.103	21378
892.226	21378
892.349	21313
892.471	21100
892.594	21241
892.717	21272
892.839	21188
892.962	21291
893.085	21306
893.207	21256
893.33	21199
893.452	21176
893.575	21077
893.697	21165
893.819	21218
893.941	21332
894.064	21291
894.186	21089
894.308	21157
894.43	21374
894.552	21397
894.674	21241
894.796	21188
894.918	21157
895.04	21203
895.161	21283
895.283	21233
895.405	21142
895.526	21214
895.648	21154
895.769	21192
895.891	21173
896.012	21173
896.134	21283
896.255	21154
896.376	21192
896.498	21150
896.619	21173
896.74	21085
896.861	21135
896.982	21431
897.103	21450
897.224	21370
897.345	21325
897.466	21207
897.587	21450
897.708	21595
897.828	21355
897.949	21386
898.07	21203
898.19	21275
898.311	21393
898.431	21264
898.552	21439
898.672	21469
898.792	21428
898.913	21367
899.033	21199
899.153	21157
899.273	21039
899.393	21096
899.513	21074
899.633	21043
899.753	21062
899.873	21013
899.993	21119
900.113	21081
900.232	21233
900.352	21028
900.472	20979
900.591	20849
900.711	20823
900.83	20800
900.95	20883
901.069	21100
901.189	20785
901.308	20438
901.427	20575
901.546	20461
901.665	20495
901.784	20480
901.904	20362
902.023	20240
902.141	20115
902.26	20005
902.379	20046
902.498	20073
902.617	19936
902.735	20031
902.854	19913
902.973	19788
903.091	19647
903.21	19639
903.328	19559
903.446	19472
903.565	19403
903.683	19430
903.801	19259
903.919	19392
904.038	19225
904.156	19156
904.274	19247
904.392	19187
904.51	19110
904.627	19126
904.745	19091
904.863	19179
904.981	18901
905.098	18772
905.216	18844
905.334	18806
905.451	18757
905.569	18875
905.686	18829
905.803	18798
905.921	18669
906.038	18608
906.155	18601
906.272	18448
906.389	18486
906.506	18327
906.623	18228
906.74	18471
906.857	18247
906.974	18106
907.091	18323
907.208	18441
907.324	18258
907.441	18220
907.557	18140
907.674	18049
907.79	17923
907.907	18072
908.023	18034
908.139	17969
908.256	17954
908.372	17973
908.488	17931
908.604	17832
908.72	17756
908.836	17729
908.952	17866
909.068	17805
909.184	17859
909.3	17729
909.415	17775
909.531	17722
909.647	17425
909.762	17448
909.878	17524
909.993	17440
910.108	17402
910.224	17440
910.339	17360
910.454	17303
910.57	17299
910.685	17284
910.8	17455
910.915	17391
911.03	17162
911.145	17178
911.259	16968
911.374	16961
911.489	16934
911.604	16885
911.718	16873
911.833	16869
911.947	16725
912.062	16694
912.176	16710
912.291	16797
912.405	16698
912.519	16919
912.633	16923
912.748	16847
912.862	16748
912.976	16542
913.09	16367
913.204	16618
913.318	16706
913.431	16752
913.545	16630
913.659	16729
913.772	16584
913.886	16504
914	16360
914.113	16402
914.226	16424
914.34	16493
914.453	16287
914.566	16394
914.68	16341
914.793	16215
914.906	15922
915.019	15903
915.132	15895
915.245	15968
915.358	15975
915.47	15915
915.583	15968
915.696	15945
915.809	16135
915.921	16109
916.034	15884
916.146	15838
916.259	15778
916.371	15926
916.483	15869
916.595	15831
916.708	15755
916.82	15717
916.932	15705
917.044	15694
917.156	15591
917.268	15587
917.38	15675
917.491	15656
917.603	15488
917.715	15606
917.826	15576
917.938	15439
918.049	15431
918.161	15538
918.272	15610
918.384	15663
918.495	15401
918.606	15344
918.717	15241
918.828	15382
918.939	15336
919.05	15169
919.161	15325
919.272	15165
919.383	15184
919.494	15310
919.604	15374
919.715	15302
919.826	15218
919.936	15176
920.047	15332
920.157	15192
920.267	15443
920.378	15268
920.488	15294
920.598	15450
920.708	15545
920.818	15378
920.928	15439
921.038	15492
921.148	15477
921.258	15199
921.368	15154
921.477	14948
921.587	15001
921.697	14819
921.806	14918
921.916	14842
922.025	14773
922.134	14720
922.244	14568
922.353	14663
922.462	14480
922.571	14446
922.68	14336
922.789	14259
922.898	14164
923.007	14145
923.116	14199
923.224	14294
923.333	14313
923.442	14142
923.55	14092
923.659	14119
923.767	14069
923.876	14043
923.984	14035
924.092	13928
924.201	13989
924.309	14027
924.417	13936
924.525	13795
924.633	13856
924.741	14659
924.849	13708
924.956	13849
925.064	13681
925.172	13457
925.279	13601
925.387	13685
925.494	13666
925.602	13674
925.709	13670
925.816	13586
925.924	13578
926.031	13624
926.138	13502
926.245	13609
926.352	13460
926.459	13597
926.566	13582
926.673	13487
926.779	13403
926.886	13327
926.993	13164
927.099	13137
927.206	13046
927.312	13114
927.419	13179
927.525	13156
927.631	13118
927.737	13099
927.843	13080
927.95	12947
928.056	12840
928.162	12996
928.267	12985
928.373	13506
928.479	13012
928.585	12745
928.69	12878
928.796	13008
928.901	12863
929.007	12677
929.112	12882
929.218	12768
929.323	12684
929.428	12654
929.533	12802
929.638	12627
929.743	12612
929.848	12696
929.953	12665
930.058	12513
930.163	12399
930.267	12441
930.372	12532
930.477	12281
930.581	12506
930.685	12369
930.79	12235
930.894	12235
930.998	12175
931.103	12323
931.207	11954
931.311	11931
931.415	11775
931.519	11554
931.623	11573
