Data from test_V78500241_528.txt Node
Date: Fri Mar 25 15:45:27 CST 2022
User: usil
Spectrometer: V785-0024
Trigger mode: 0
Integration Time (sec): 4.000000E-1
Scans to average: 1
Nonlinearity correction enabled: false
Boxcar width: 0
Storing dark spectrum: false
XAxis mode: Wavelengths
Number of Pixels in Spectrum: 1024
>>>>>Begin Spectral Data<<<<<
801.071	28109
801.214	27797
801.356	27663
801.499	27690
801.641	27485
801.783	27427
801.926	27701
802.068	27488
802.211	27367
802.353	27469
802.496	27317
802.638	27302
802.78	27230
802.923	27180
803.065	27119
803.208	27207
803.35	27245
803.492	27207
803.635	27412
803.777	27450
803.919	27291
804.061	27625
804.204	27466
804.346	27287
804.488	27199
804.63	27272
804.773	27272
804.915	27561
805.057	27386
805.199	27481
805.341	27507
805.483	27504
805.626	27443
805.768	27637
805.91	27599
806.052	27545
806.194	27462
806.336	27770
806.478	27492
806.62	27519
806.762	27671
806.904	27762
807.046	27941
807.188	27914
807.33	27994
807.472	27994
807.614	27812
807.756	27934
807.898	27861
808.04	27743
808.182	27816
808.324	27823
808.465	27819
808.607	28017
808.749	28242
808.891	28265
809.033	28413
809.174	28253
809.316	28230
809.458	28234
809.6	28143
809.741	28333
809.883	28200
810.025	28333
810.166	28516
810.308	28424
810.45	28512
810.591	28413
810.733	28128
810.875	28074
811.016	28090
811.158	28166
811.299	28246
811.441	28455
811.582	28424
811.724	28234
811.865	28082
812.007	28040
812.148	28158
812.29	28223
812.431	28428
812.573	28523
812.714	28599
812.855	28668
812.997	28771
813.138	29029
813.279	28961
813.421	28653
813.562	28653
813.703	28470
813.845	28478
813.986	28177
814.127	27949
814.268	27922
814.41	28093
814.551	27865
814.692	27983
814.833	27778
814.974	27751
815.115	27960
815.256	27648
815.397	27694
815.539	27781
815.68	27705
815.821	27606
815.962	27755
816.103	27690
816.244	27629
816.385	27504
816.526	27351
816.666	27283
816.807	27131
816.948	27131
817.089	27332
817.23	27321
817.371	27272
817.512	27252
817.653	27165
817.793	27222
817.934	27043
818.075	27116
818.216	27203
818.356	27089
818.497	27055
818.638	26883
818.778	26891
818.919	26982
819.06	26895
819.2	27119
819.341	27138
819.481	27104
819.622	27275
819.762	27351
819.903	27405
820.043	27298
820.184	27332
820.324	27317
820.465	27260
820.605	27317
820.746	27176
820.886	27207
821.026	27260
821.167	27245
821.307	27279
821.447	27241
821.588	27116
821.728	27001
821.868	26887
822.008	26708
822.149	26735
822.289	26530
822.429	26419
822.569	26438
822.709	26332
822.849	26278
822.99	26164
823.13	26122
823.27	26115
823.41	25978
823.55	25826
823.69	26016
823.83	25909
823.97	26008
824.11	25772
824.25	25696
824.389	25731
824.529	25917
824.669	25738
824.809	25955
824.949	25974
825.089	25890
825.228	25944
825.368	25681
825.508	25624
825.648	25666
825.787	25788
825.927	25609
826.067	25674
826.206	25811
826.346	25704
826.485	25651
826.625	25693
826.765	25712
826.904	25738
827.044	25464
827.183	25407
827.323	25384
827.462	25460
827.601	25438
827.741	25354
827.88	25377
828.02	25343
828.159	25327
828.298	25483
828.437	25373
828.577	25263
828.716	25460
828.855	25278
828.994	25027
829.134	25122
829.273	25004
829.412	24989
829.551	25031
829.69	25076
829.829	25065
829.968	25152
830.107	25065
830.246	25107
830.385	25164
830.524	24840
830.663	24829
830.802	24726
830.941	24635
831.08	24665
831.219	24745
831.357	24639
831.496	24867
831.635	24589
831.774	24589
831.913	24422
832.051	24494
832.19	24448
832.329	24559
832.467	24300
832.606	24376
832.744	24273
832.883	24186
833.022	24235
833.16	24361
833.299	24327
833.437	24448
833.576	24445
833.714	24448
833.852	24422
833.991	24509
834.129	24505
834.267	24456
834.406	24353
834.544	24467
834.682	24498
834.821	24380
834.959	24551
835.097	24380
835.235	24414
835.373	24357
835.511	24376
835.65	24186
835.788	24197
835.926	24045
836.064	24068
836.202	24087
836.34	24251
836.478	24380
836.615	24197
836.753	24258
836.891	24319
837.029	24350
837.167	24174
837.305	24079
837.443	24057
837.58	23999
837.718	24129
837.856	24083
837.993	24121
838.131	24060
838.269	23950
838.406	23931
838.544	23950
838.681	23695
838.819	23623
838.956	23490
839.094	23493
839.231	23562
839.369	23779
839.506	23908
839.643	23699
839.781	23482
839.918	23459
840.055	23562
840.193	23512
840.33	23360
840.467	23596
840.604	23558
840.742	23771
840.879	23284
841.016	23318
841.153	23402
841.29	23535
841.427	23414
841.564	23497
841.701	23360
841.838	23368
841.975	23341
842.112	23383
842.249	23315
842.385	23200
842.522	23387
842.659	23174
842.796	23010
842.933	23208
843.069	23162
843.206	23113
843.343	23277
843.479	23159
843.616	23060
843.752	22976
843.889	22949
844.025	23079
844.162	22930
844.298	23067
844.435	22919
844.571	23048
844.708	22930
844.844	23132
844.98	23136
845.117	23105
845.253	22946
845.389	22805
845.525	22850
845.661	22850
845.798	22763
845.934	22683
846.07	22660
846.206	22729
846.342	22679
846.478	22786
846.614	22577
846.75	22375
846.886	22413
847.022	22523
847.158	22398
847.294	22314
847.429	22459
847.565	22325
847.701	22577
847.837	22093
847.972	21937
848.108	22158
848.244	22318
848.379	22105
848.515	22048
848.65	21960
848.786	22017
848.921	22051
849.057	22101
849.192	22154
849.328	22032
849.463	21857
849.598	21994
849.734	21945
849.869	21846
850.004	21686
850.14	21865
850.275	21816
850.41	21713
850.545	21728
850.68	21759
850.815	21835
850.95	21751
851.085	21819
851.22	21838
851.355	21781
851.49	21755
851.625	21827
851.76	21797
851.895	21743
852.03	21766
852.165	21804
852.299	21869
852.434	21941
852.569	21857
852.703	21781
852.838	21850
852.973	21956
853.107	21831
853.242	21682
853.376	21641
853.511	21545
853.645	21519
853.78	21736
853.914	21671
854.048	21663
854.183	21469
854.317	21751
854.451	21766
854.585	21648
854.72	21481
854.854	21755
854.988	21519
855.122	21663
855.256	21454
855.39	21538
855.524	21629
855.658	21561
855.792	21545
855.926	21622
856.06	21701
856.194	21682
856.327	21580
856.461	21580
856.595	21526
856.729	21515
856.862	21679
856.996	21686
857.13	21656
857.263	21770
857.397	21652
857.53	21618
857.664	21732
857.797	21599
857.931	21785
858.064	21717
858.197	21762
858.331	21447
858.464	21614
858.597	21481
858.731	21595
858.864	21587
858.997	21576
859.13	21705
859.263	21641
859.396	21739
859.529	21526
859.662	21580
859.795	21614
859.928	21603
860.061	21759
860.194	21808
860.327	21587
860.46	21644
860.592	21648
860.725	21701
860.858	21819
860.99	21667
861.123	21523
861.256	21553
861.388	21523
861.521	22284
861.653	21389
861.786	21416
861.918	21454
862.05	21481
862.183	21557
862.315	21595
862.447	21595
862.58	21401
862.712	21336
862.844	21237
862.976	21408
863.108	21454
863.24	21755
863.372	21294
863.504	21332
863.636	21279
863.768	21291
863.9	21355
864.032	21188
864.164	21241
864.296	21237
864.428	21447
864.559	21313
864.691	21408
864.823	21268
864.954	21249
865.086	21291
865.217	21169
865.349	21104
865.48	21173
865.612	21237
865.743	21287
865.875	21329
866.006	21077
866.137	21169
866.269	21104
866.4	21131
866.531	21157
866.662	21169
866.793	21081
866.924	21188
867.055	21222
867.186	21203
867.317	21062
867.448	21138
867.579	21165
867.71	20918
867.841	21062
867.972	21077
868.103	21131
868.233	21096
868.364	21055
868.495	21348
868.625	21405
868.756	21564
868.886	21230
869.017	21363
869.147	21526
869.278	21469
869.408	21496
869.539	21431
869.669	21466
869.799	21359
869.929	21477
870.06	21351
870.19	21736
870.32	21713
870.45	21751
870.58	21747
870.71	21930
870.84	21861
870.97	21797
871.1	21705
871.23	21975
871.36	21979
871.489	21880
871.619	21922
871.749	22086
871.879	21903
872.008	21968
872.138	21941
872.267	21926
872.397	21934
872.526	21789
872.656	21838
872.785	21797
872.915	21918
873.044	21964
873.173	21941
873.303	22074
873.432	22074
873.561	22093
873.69	22006
873.819	22013
873.948	22055
874.077	22074
874.206	21949
874.335	21945
874.464	22158
874.593	22223
874.722	22150
874.851	22295
874.979	22246
875.108	22291
875.237	22154
875.365	22048
875.494	22105
875.623	22310
875.751	22177
875.88	22306
876.008	22310
876.136	22379
876.265	22531
876.393	22618
876.521	22546
876.65	22729
876.778	22577
876.906	22523
877.034	22618
877.162	22615
877.29	22584
877.418	22535
877.546	22687
877.674	22626
877.802	22607
877.93	22668
878.058	22455
878.185	22379
878.313	22550
878.441	22546
878.568	22424
878.696	22489
878.824	22630
878.951	22683
879.079	22717
879.206	22866
879.333	22736
879.461	22653
879.588	22713
879.715	22683
879.842	22790
879.97	22451
880.097	22287
880.224	22390
880.351	22379
880.478	22352
880.605	22226
880.732	22371
880.859	22493
880.986	22375
881.112	22402
881.239	22234
881.366	22173
881.493	22021
881.619	21998
881.746	21972
881.872	21937
881.999	21850
882.125	21918
882.252	22105
882.378	21930
882.505	22135
882.631	21686
882.757	21656
882.883	21717
883.01	21762
883.136	21682
883.262	21485
883.388	21424
883.514	21679
883.64	21682
883.766	21587
883.892	21401
884.018	21447
884.143	21682
884.269	21629
884.395	21336
884.52	21283
884.646	21416
884.772	21207
884.897	21154
885.023	21317
885.148	21359
885.274	21412
885.399	21367
885.524	21310
885.65	21329
885.775	21367
885.9	21241
886.025	21389
886.15	21325
886.275	21249
886.4	21127
886.525	21184
886.65	21268
886.775	21123
886.9	21458
887.025	21583
887.149	21336
887.274	21100
887.399	21123
887.523	21032
887.648	21062
887.773	21005
887.897	21150
888.021	21142
888.146	20994
888.27	21074
888.395	21184
888.519	21116
888.643	21104
888.767	21157
888.891	20861
889.015	20941
889.139	20956
889.263	20910
889.387	20960
889.511	21001
889.635	20952
889.759	20769
889.883	20868
890.006	20891
890.13	20899
890.254	20777
890.377	20750
890.501	20609
890.624	20644
890.748	20739
890.871	20480
890.995	20438
891.118	20259
891.241	20408
891.364	20457
891.488	20507
891.611	20442
891.734	20473
891.857	20480
891.98	20522
892.103	20522
892.226	20419
892.349	20374
892.471	20161
892.594	20343
892.717	20320
892.839	20271
892.962	20377
893.085	20450
893.207	20366
893.33	20195
893.452	20351
893.575	20317
893.697	20339
893.819	20370
893.941	20488
894.064	20469
894.186	20183
894.308	20324
894.43	20263
894.552	20499
894.674	20370
894.796	20195
894.918	20157
895.04	20259
895.161	20423
895.283	20351
895.405	20328
895.526	20393
895.648	20313
895.769	20305
895.891	20259
896.012	20389
896.134	20434
896.255	20351
896.376	20218
896.498	20484
896.619	20385
896.74	20298
896.861	20377
896.982	20644
897.103	20746
897.224	20511
897.345	20636
897.466	20404
897.587	20697
897.708	20617
897.828	20537
897.949	20514
898.07	20393
898.19	20473
898.311	20651
898.431	20389
898.552	20511
898.672	20689
898.792	20598
898.913	20465
899.033	20438
899.153	20347
899.273	20229
899.393	20202
899.513	20332
899.633	20278
899.753	20339
899.873	20248
899.993	20286
900.113	20210
900.232	20248
900.352	20161
900.472	20046
900.591	19978
900.711	20119
900.83	20100
900.95	20092
901.069	19978
901.189	19883
901.308	19750
901.427	19567
901.546	19628
901.665	19597
901.784	19757
901.904	19540
902.023	19346
902.141	19339
902.26	19168
902.379	19232
902.498	19278
902.617	19015
902.735	19221
902.854	19065
902.973	19012
903.091	18806
903.21	18787
903.328	18817
903.446	18833
903.565	18673
903.683	18646
903.801	18410
903.919	18551
904.038	18661
904.156	18365
904.274	18445
904.392	18334
904.51	18323
904.627	18479
904.745	18384
904.863	18456
904.981	18125
905.098	18049
905.216	18041
905.334	18060
905.451	18083
905.569	18019
905.686	17965
905.803	18098
905.921	17828
906.038	17817
906.155	17885
906.272	17710
906.389	17714
906.506	17608
906.623	17619
906.74	17642
906.857	17474
906.974	17391
907.091	17687
907.208	17684
907.324	17642
907.441	17562
907.557	17345
907.674	17429
907.79	17261
907.907	17258
908.023	17337
908.139	17311
908.256	17204
908.372	17204
908.488	17197
908.604	17067
908.72	17045
908.836	17033
908.952	16934
909.068	17079
909.184	17105
909.3	16991
909.415	17143
909.531	17067
909.647	16740
909.762	16664
909.878	16774
909.993	16675
910.108	16721
910.224	16577
910.339	16698
910.454	16546
910.57	16535
910.685	16432
910.8	16805
910.915	16596
911.03	16512
911.145	16299
911.259	16261
911.374	16303
911.489	16219
911.604	16234
911.718	16082
911.833	16139
911.947	16002
912.062	15831
912.176	16078
912.291	16025
912.405	16067
912.519	16257
912.633	16249
912.748	15991
912.862	16025
912.976	15915
913.09	15884
913.204	15842
913.318	15873
913.431	15949
913.545	16029
913.659	15888
913.772	15846
913.886	15656
914	15686
914.113	15690
914.226	15724
914.34	15823
914.453	15576
914.566	15690
914.68	15557
914.793	15545
914.906	15458
915.019	15382
915.132	15256
915.245	15256
915.358	15291
915.47	15252
915.583	15298
915.696	15252
915.809	15367
915.921	15447
916.034	15252
916.146	15214
916.259	15093
916.371	15264
916.483	15226
916.595	15138
916.708	15070
916.82	15081
916.932	15013
917.044	15074
917.156	15001
917.268	14872
917.38	14891
917.491	14902
917.603	14925
917.715	15051
917.826	14941
917.938	14811
918.049	14765
918.161	14800
918.272	14948
918.384	14967
918.495	14861
918.606	14648
918.717	14503
918.828	14693
918.939	14682
919.05	14564
919.161	14655
919.272	14552
919.383	14530
919.494	14701
919.604	14864
919.715	14667
919.826	14457
919.936	14613
920.047	14724
920.157	14769
920.267	14769
920.378	14689
920.488	14636
920.598	14800
920.708	14887
920.818	14720
920.928	14750
921.038	14883
921.148	14887
921.258	14564
921.368	14522
921.477	14400
921.587	14313
921.697	14202
921.806	14393
921.916	14252
922.025	14077
922.134	14054
922.244	13940
922.353	14092
922.462	13856
922.571	13841
922.68	13738
922.789	13651
922.898	13670
923.007	13636
923.116	13708
923.224	13567
923.333	13529
923.442	13590
923.55	13502
923.659	13563
923.767	13525
923.876	13464
923.984	13434
924.092	13358
924.201	13441
924.309	13434
924.417	13441
924.525	13320
924.633	13255
924.741	14001
924.849	13095
924.956	13274
925.064	13088
925.172	13019
925.279	13023
925.387	13133
925.494	12939
925.602	13160
925.709	13091
925.816	13015
925.924	13012
926.031	13126
926.138	13103
926.245	13110
926.352	12890
926.459	13057
926.566	12973
926.673	12901
926.779	12833
926.886	12840
926.993	12627
927.099	12616
927.206	12555
927.312	12601
927.419	12585
927.525	12620
927.631	12593
927.737	12479
927.843	12391
927.95	12323
928.056	12471
928.162	12483
928.267	12486
928.373	13050
928.479	12517
928.585	12277
928.69	12437
928.796	12357
928.901	12292
929.007	12117
929.112	12216
929.218	12266
929.323	12224
929.428	12159
929.533	12365
929.638	12114
929.743	12148
929.848	12216
929.953	12182
930.058	11958
930.163	11840
930.267	11927
930.372	11999
930.477	11885
930.581	12053
930.685	11946
930.79	11775
930.894	11756
930.998	11737
931.103	11794
931.207	11425
931.311	11482
931.415	11322
931.519	11151
931.623	11159
