Data from test_V78500241_634.txt Node
Date: Fri Mar 25 15:46:11 CST 2022
User: usil
Spectrometer: V785-0024
Trigger mode: 0
Integration Time (sec): 4.000000E-1
Scans to average: 1
Nonlinearity correction enabled: false
Boxcar width: 0
Storing dark spectrum: false
XAxis mode: Wavelengths
Number of Pixels in Spectrum: 1024
>>>>>Begin Spectral Data<<<<<
801.071	28284
801.214	28139
801.356	28006
801.499	27949
801.641	27857
801.783	27724
801.926	27835
802.068	27876
802.211	27637
802.353	27720
802.496	27538
802.638	27515
802.78	27473
802.923	27420
803.065	27287
803.208	27500
803.35	27458
803.492	27496
803.635	27633
803.777	27507
803.919	27766
804.061	27998
804.204	27736
804.346	27660
804.488	27572
804.63	27587
804.773	27622
804.915	27538
805.057	27876
805.199	27667
805.341	27827
805.483	27789
805.626	27762
805.768	27511
805.91	27762
806.052	27770
806.194	27846
806.336	27994
806.478	27880
806.62	27854
806.762	27861
806.904	28181
807.046	28348
807.188	28310
807.33	28272
807.472	28303
807.614	28238
807.756	28154
807.898	28051
808.04	27945
808.182	28067
808.324	28017
808.465	28112
808.607	28363
808.749	28417
808.891	28592
809.033	28736
809.174	28474
809.316	28428
809.458	28413
809.6	28405
809.741	28717
809.883	28603
810.025	28679
810.166	28668
810.308	28733
810.45	28580
810.591	28691
810.733	28451
810.875	28493
811.016	28470
811.158	28561
811.299	28725
811.441	28691
811.582	28778
811.724	28527
811.865	28401
812.007	28519
812.148	28398
812.29	28516
812.431	28653
812.573	28755
812.714	28881
812.855	29105
812.997	29208
813.138	29356
813.279	29159
813.421	29064
813.562	28980
813.703	28744
813.845	28596
813.986	28367
814.127	28246
814.268	28131
814.41	28249
814.551	28204
814.692	28169
814.833	28284
814.974	28158
815.115	28207
815.256	28101
815.397	28090
815.539	28044
815.68	28063
815.821	27842
815.962	27895
816.103	28040
816.244	27949
816.385	27743
816.526	27751
816.666	27781
816.807	27568
816.948	27709
817.089	27572
817.23	27622
817.371	27431
817.512	27515
817.653	27488
817.793	27599
817.934	27462
818.075	27526
818.216	27500
818.356	27393
818.497	27374
818.638	27397
818.778	27176
818.919	27302
819.06	27332
819.2	27431
819.341	27526
819.481	27515
819.622	27804
819.762	27941
819.903	27580
820.043	27694
820.184	27561
820.324	27576
820.465	27778
820.605	27526
820.746	27614
820.886	27515
821.026	27545
821.167	27572
821.307	27835
821.447	27488
821.588	27321
821.728	27272
821.868	26971
822.008	26887
822.149	27055
822.289	27001
822.429	26735
822.569	26594
822.709	26655
822.849	26465
822.99	26511
823.13	26427
823.27	26317
823.41	26313
823.55	26138
823.69	26431
823.83	26229
823.97	26168
824.11	26149
824.25	26012
824.389	26157
824.529	26191
824.669	26153
824.809	26240
824.949	26256
825.089	26263
825.228	26161
825.368	26092
825.508	26001
825.648	26153
825.787	26115
825.927	26210
826.067	26027
826.206	26016
826.346	25974
826.485	26180
826.625	26035
826.765	26191
826.904	26054
827.044	25818
827.183	25746
827.323	25639
827.462	25620
827.601	25620
827.741	25700
827.88	25628
828.02	25571
828.159	25693
828.298	25662
828.437	25868
828.577	25632
828.716	25909
828.855	25613
828.994	25403
829.134	25350
829.273	25430
829.412	25354
829.551	25346
829.69	25411
829.829	25460
829.968	25411
830.107	25468
830.246	25312
830.385	25282
830.524	25263
830.663	25312
830.802	25091
830.941	25065
831.08	25069
831.219	25050
831.357	25103
831.496	25285
831.635	25050
831.774	24871
831.913	24825
832.051	24760
832.19	24901
832.329	24932
832.467	24654
832.606	24642
832.744	24684
832.883	24673
833.022	24612
833.16	24612
833.299	24817
833.437	24768
833.576	24654
833.714	24722
833.852	24848
833.991	24848
834.129	24905
834.267	24844
834.406	24726
834.544	24817
834.682	24597
834.821	24681
834.959	24848
835.097	24559
835.235	24749
835.373	24833
835.511	24677
835.65	24665
835.788	24464
835.926	24410
836.064	24304
836.202	24479
836.34	24684
836.478	24677
836.615	24479
836.753	24536
836.891	24642
837.029	24658
837.167	24589
837.305	24544
837.443	24460
837.58	24441
837.718	24517
837.856	24448
837.993	24251
838.131	24395
838.269	24266
838.406	24213
838.544	24201
838.681	24091
838.819	23961
838.956	23859
839.094	23824
839.231	23999
839.369	24129
839.506	24266
839.643	23996
839.781	23908
839.918	23893
840.055	23794
840.193	23878
840.33	23813
840.467	23824
840.604	23824
840.742	24057
840.879	23699
841.016	23627
841.153	23661
841.29	23821
841.427	23665
841.564	23790
841.701	23756
841.838	23642
841.975	23615
842.112	23703
842.249	23570
842.385	23471
842.522	23786
842.659	23680
842.796	23482
842.933	23467
843.069	23486
843.206	23417
843.343	23585
843.479	23505
843.616	23486
843.752	23326
843.889	23311
844.025	23440
844.162	23242
844.298	23322
844.435	23318
844.571	23269
844.708	23383
844.844	23421
844.98	23463
845.117	23414
845.253	23265
845.389	23261
845.525	23216
845.661	23136
845.798	22965
845.934	23102
846.07	23044
846.206	23090
846.342	23121
846.478	22858
846.614	22752
846.75	22656
846.886	22805
847.022	22900
847.158	22744
847.294	22721
847.429	22771
847.565	22694
847.701	22980
847.837	22421
847.972	22371
848.108	22577
848.244	22618
848.379	22481
848.515	22344
848.65	22394
848.786	22379
848.921	22466
849.057	22466
849.192	22436
849.328	22371
849.463	22322
849.598	22352
849.734	22261
849.869	22322
850.004	22002
850.14	22078
850.275	22059
850.41	22002
850.545	22147
850.68	22090
850.815	22112
850.95	22105
851.085	22246
851.22	22318
851.355	22112
851.49	22116
851.625	21987
851.76	22002
851.895	22002
852.03	21991
852.165	22105
852.299	22093
852.434	22234
852.569	22257
852.703	22128
852.838	22154
852.973	22181
853.107	22306
853.242	22105
853.376	21960
853.511	21880
853.645	21838
853.78	22029
853.914	21926
854.048	21869
854.183	21960
854.317	21964
854.451	22029
854.585	21956
854.72	21949
854.854	21979
854.988	21770
855.122	22051
855.256	21709
855.39	21930
855.524	21956
855.658	21865
855.792	21998
855.926	21941
856.06	21899
856.194	22032
856.327	21835
856.461	21739
856.595	21808
856.729	21892
856.862	22090
856.996	21987
857.13	22040
857.263	22036
857.397	21991
857.53	21964
857.664	21998
857.797	21956
857.931	22090
858.064	21899
858.197	21994
858.331	21918
858.464	21911
858.597	21819
858.731	21892
858.864	21926
858.997	21865
859.13	22048
859.263	21972
859.396	22059
859.529	21922
859.662	21968
859.795	21812
859.928	21964
860.061	22051
860.194	22128
860.327	21926
860.46	21934
860.592	22116
860.725	22120
860.858	21956
860.99	21941
861.123	21823
861.256	21812
861.388	22044
861.521	22634
861.653	21770
861.786	21671
861.918	21728
862.05	21789
862.183	21800
862.315	21743
862.447	21850
862.58	21846
862.712	21587
862.844	21690
862.976	21637
863.108	21709
863.24	22074
863.372	21652
863.504	21587
863.636	21667
863.768	21766
863.9	21618
864.032	21526
864.164	21698
864.296	21648
864.428	21667
864.559	21705
864.691	21732
864.823	21549
864.954	21618
865.086	21599
865.217	21519
865.349	21439
865.48	21428
865.612	21545
865.743	21622
865.875	21469
866.006	21466
866.137	21458
866.269	21511
866.4	21477
866.531	21526
866.662	21348
866.793	21416
866.924	21386
867.055	21530
867.186	21549
867.317	21462
867.448	21420
867.579	21401
867.71	21408
867.841	21412
867.972	21382
868.103	21534
868.233	21374
868.364	21389
868.495	21652
868.625	21587
868.756	21720
868.886	21538
869.017	21686
869.147	21709
869.278	21789
869.408	21701
869.539	21743
869.669	21842
869.799	21812
869.929	21842
870.06	21755
870.19	21972
870.32	22105
870.45	22109
870.58	21987
870.71	22048
870.84	22097
870.97	21991
871.1	22002
871.23	22280
871.36	22268
871.489	22105
871.619	22226
871.749	22223
871.879	22325
872.008	22299
872.138	22344
872.267	22310
872.397	22120
872.526	22032
872.656	22109
872.785	22147
872.915	22284
873.044	22390
873.173	22398
873.303	22333
873.432	22417
873.561	22341
873.69	22344
873.819	22325
873.948	22363
874.077	22382
874.206	22337
874.335	22352
874.464	22470
874.593	22535
874.722	22474
874.851	22500
874.979	22500
875.108	22478
875.237	22466
875.365	22382
875.494	22341
875.623	22611
875.751	22417
875.88	22618
876.008	22626
876.136	22653
876.265	22968
876.393	22980
876.521	22965
876.65	22911
876.778	22949
876.906	22831
877.034	22824
877.162	22889
877.29	22725
877.418	22850
877.546	22835
877.674	22809
877.802	22869
877.93	22869
878.058	22759
878.185	22691
878.313	22763
878.441	22911
878.568	22733
878.696	22873
878.824	22744
878.951	22930
879.079	23124
879.206	23083
879.333	22984
879.461	23010
879.588	23094
879.715	22908
879.842	23239
879.97	22904
880.097	22710
880.224	22683
880.351	22786
880.478	22668
880.605	22557
880.732	22683
880.859	22919
880.986	22721
881.112	22656
881.239	22554
881.366	22470
881.493	22276
881.619	22284
881.746	22329
881.872	22249
881.999	22169
882.125	22268
882.252	22299
882.378	22128
882.505	22257
882.631	22048
882.757	21918
882.883	22082
883.01	21979
883.136	21854
883.262	21705
883.388	21797
883.514	22025
883.64	21926
883.766	21766
883.892	21686
884.018	21838
884.143	21827
884.269	22002
884.395	21663
884.52	21660
884.646	21648
884.772	21462
884.897	21332
885.023	21561
885.148	21648
885.274	21675
885.399	21739
885.524	21530
885.65	21675
885.775	21526
885.9	21549
886.025	21793
886.15	21583
886.275	21591
886.4	21481
886.525	21538
886.65	21416
886.775	21530
886.9	21648
887.025	21838
887.149	21492
887.274	21443
887.399	21370
887.523	21287
887.648	21306
887.773	21192
887.897	21496
888.021	21420
888.146	21325
888.27	21435
888.395	21462
888.519	21321
888.643	21431
888.767	21378
888.891	21150
889.015	21032
889.139	21275
889.263	21146
889.387	21173
889.511	21367
889.635	21298
889.759	21157
889.883	21066
890.006	21028
890.13	21173
890.254	20994
890.377	21089
890.501	20853
890.624	20891
890.748	20982
890.871	20815
890.995	20689
891.118	20708
891.241	20606
891.364	20796
891.488	20769
891.611	20682
891.734	20701
891.857	20746
891.98	20739
892.103	20632
892.226	20655
892.349	20727
892.471	20503
892.594	20587
892.717	20556
892.839	20629
892.962	20606
893.085	20682
893.207	20651
893.33	20503
893.452	20594
893.575	20575
893.697	20438
893.819	20781
893.941	20762
894.064	20682
894.186	20465
894.308	20484
894.43	20594
894.552	20750
894.674	20556
894.796	20473
894.918	20663
895.04	20549
895.161	20667
895.283	20769
895.405	20503
895.526	20549
895.648	20579
895.769	20552
895.891	20636
896.012	20754
896.134	20655
896.255	20575
896.376	20507
896.498	20552
896.619	20556
896.74	20606
896.861	20613
896.982	20952
897.103	21062
897.224	20914
897.345	20777
897.466	20807
897.587	20804
897.708	20823
897.828	20895
897.949	20724
898.07	20621
898.19	20640
898.311	20800
898.431	20796
898.552	20910
898.672	20864
898.792	20895
898.913	20807
899.033	20720
899.153	20537
899.273	20419
899.393	20537
899.513	20609
899.633	20507
899.753	20495
899.873	20431
899.993	20533
900.113	20446
900.232	20564
900.352	20507
900.472	20358
900.591	20263
900.711	20408
900.83	20218
900.95	20305
901.069	20408
901.189	20271
901.308	20020
901.427	19807
901.546	19894
901.665	19814
901.784	20035
901.904	19852
902.023	19784
902.141	19403
902.26	19415
902.379	19464
902.498	19540
902.617	19400
902.735	19472
902.854	19438
902.973	19232
903.091	19046
903.21	19107
903.328	19133
903.446	18962
903.565	18848
903.683	18856
903.801	18798
903.919	18791
904.038	18688
904.156	18627
904.274	18749
904.392	18574
904.51	18547
904.627	18604
904.745	18692
904.863	18741
904.981	18289
905.098	18338
905.216	18285
905.334	18353
905.451	18247
905.569	18220
905.686	18285
905.803	18266
905.921	18019
906.038	18304
906.155	18148
906.272	17935
906.389	17961
906.506	17745
906.623	17874
906.74	17741
906.857	17771
906.974	17748
907.091	17897
907.208	17916
907.324	17935
907.441	17687
907.557	17577
907.674	17524
907.79	17501
907.907	17551
908.023	17474
908.139	17547
908.256	17486
908.372	17414
908.488	17345
908.604	17330
908.72	17254
908.836	17330
908.952	17162
909.068	17208
909.184	17239
909.3	17174
909.415	17330
909.531	17189
909.647	16991
909.762	16938
909.878	16854
909.993	17010
910.108	16972
910.224	16900
910.339	16908
910.454	16862
910.57	16797
910.685	16740
910.8	17090
910.915	16885
911.03	16622
911.145	16519
911.259	16538
911.374	16615
911.489	16459
911.604	16421
911.718	16318
911.833	16337
911.947	16287
912.062	16188
912.176	16215
912.291	16348
912.405	16246
912.519	16405
912.633	16474
912.748	16249
912.862	16246
912.976	16101
913.09	15880
913.204	16025
913.318	16124
913.431	16097
913.545	16086
913.659	16105
913.772	15880
913.886	15941
914	15861
914.113	16029
914.226	16025
914.34	16010
914.453	15789
914.566	15899
914.68	15724
914.793	15675
914.906	15648
915.019	15496
915.132	15405
915.245	15378
915.358	15443
915.47	15557
915.583	15526
915.696	15542
915.809	15675
915.921	15606
916.034	15416
916.146	15545
916.259	15294
916.371	15454
916.483	15408
916.595	15294
916.708	15340
916.82	15340
916.932	15214
917.044	15146
917.156	15245
917.268	15089
917.38	15207
917.491	15058
917.603	15089
917.715	15074
917.826	15237
917.938	15020
918.049	14994
918.161	15058
918.272	15192
918.384	15188
918.495	15093
918.606	14910
918.717	14834
918.828	14979
918.939	14929
919.05	14777
919.161	14929
919.272	14735
919.383	14796
919.494	14902
919.604	15097
919.715	14842
919.826	14815
919.936	14773
920.047	14868
920.157	14853
920.267	14952
920.378	14842
920.488	14773
920.598	15100
920.708	15093
920.818	14994
920.928	14921
921.038	15135
921.148	15039
921.258	14785
921.368	14629
921.477	14484
921.587	14579
921.697	14518
921.806	14629
921.916	14370
922.025	14157
922.134	14221
922.244	14149
922.353	14298
922.462	14138
922.571	14077
922.68	13906
922.789	13845
922.898	13909
923.007	13769
923.116	13841
923.224	13852
923.333	13715
923.442	13753
923.55	13666
923.659	13734
923.767	13784
923.876	13533
923.984	13708
924.092	13499
924.201	13548
924.309	13620
924.417	13582
924.525	13544
924.633	13552
924.741	14221
924.849	13293
924.956	13430
925.064	13240
925.172	13198
925.279	13149
925.387	13259
925.494	13255
925.602	13369
925.709	13324
925.816	13126
925.924	13194
926.031	13259
926.138	13187
926.245	13225
926.352	13027
926.459	13126
926.566	13255
926.673	13072
926.779	12928
926.886	12977
926.993	12829
927.099	12810
927.206	12749
927.312	12730
927.419	12833
927.525	12867
927.631	12878
927.737	12692
927.843	12662
927.95	12563
928.056	12620
928.162	12578
928.267	12692
928.373	13335
928.479	12612
928.585	12502
928.69	12536
928.796	12616
928.901	12486
929.007	12330
929.112	12464
929.218	12460
929.323	12429
929.428	12334
929.533	12506
929.638	12296
929.743	12289
929.848	12429
929.953	12232
930.058	12175
930.163	12030
930.267	12045
930.372	12136
930.477	12034
930.581	12220
930.685	12125
930.79	11901
930.894	11882
930.998	11851
931.103	12034
931.207	11649
931.311	11585
931.415	11535
931.519	11258
931.623	11201
