Data from test_V78500241_683.txt Node
Date: Fri Mar 25 15:46:31 CST 2022
User: usil
Spectrometer: V785-0024
Trigger mode: 0
Integration Time (sec): 4.000000E-1
Scans to average: 1
Nonlinearity correction enabled: false
Boxcar width: 0
Storing dark spectrum: false
XAxis mode: Wavelengths
Number of Pixels in Spectrum: 1024
>>>>>Begin Spectral Data<<<<<
801.071	28082
801.214	28120
801.356	27732
801.499	27804
801.641	27720
801.783	27781
801.926	27873
802.068	27629
802.211	27545
802.353	27606
802.496	27439
802.638	27443
802.78	27344
802.923	27439
803.065	27165
803.208	27340
803.35	27420
803.492	27587
803.635	27561
803.777	27473
803.919	27595
804.061	27736
804.204	27648
804.346	27576
804.488	27526
804.63	27485
804.773	27359
804.915	27694
805.057	27633
805.199	27557
805.341	27686
805.483	27789
805.626	27709
805.768	27652
805.91	27781
806.052	27618
806.194	27618
806.336	27819
806.478	27644
806.62	27739
806.762	27937
806.904	28013
807.046	28219
807.188	28188
807.33	28048
807.472	28234
807.614	28013
807.756	28253
807.898	27926
808.04	27960
808.182	27941
808.324	28070
808.465	28090
808.607	28284
808.749	28318
808.891	28451
809.033	28462
809.174	28542
809.316	28379
809.458	28322
809.6	28417
809.741	28333
809.883	28535
810.025	28607
810.166	28698
810.308	28725
810.45	28656
810.591	28622
810.733	28344
810.875	28280
811.016	28253
811.158	28249
811.299	28584
811.441	28538
811.582	28497
811.724	28188
811.865	28390
812.007	28493
812.148	28409
812.29	28375
812.431	28641
812.573	28812
812.714	28778
812.855	28972
812.997	28999
813.138	29143
813.279	28923
813.421	28816
813.562	28896
813.703	28691
813.845	28729
813.986	28291
814.127	28082
814.268	28112
814.41	28013
814.551	27998
814.692	28185
814.833	28185
814.974	28082
815.115	28032
815.256	27937
815.397	27949
815.539	27895
815.68	27994
815.821	27819
815.962	27956
816.103	28006
816.244	27671
816.385	27709
816.526	27808
816.666	27466
816.807	27348
816.948	27534
817.089	27359
817.23	27389
817.371	27340
817.512	27447
817.653	27313
817.793	27336
817.934	27397
818.075	27393
818.216	27313
818.356	27321
818.497	27268
818.638	27131
818.778	27184
818.919	27184
819.06	27157
819.2	27351
819.341	27294
819.481	27458
819.622	27625
819.762	27819
819.903	27778
820.043	27614
820.184	27587
820.324	27599
820.465	27420
820.605	27587
820.746	27519
820.886	27466
821.026	27538
821.167	27462
821.307	27583
821.447	27420
821.588	27332
821.728	27321
821.868	26971
822.008	26823
822.149	26849
822.289	26849
822.429	26629
822.569	26465
822.709	26590
822.849	26385
822.99	26366
823.13	26343
823.27	26248
823.41	26172
823.55	26084
823.69	26256
823.83	26240
823.97	26183
824.11	25989
824.25	25970
824.389	26058
824.529	26122
824.669	26031
824.809	26218
824.949	26031
825.089	26161
825.228	26069
825.368	25917
825.508	25811
825.648	26001
825.787	25894
825.927	25925
826.067	25978
826.206	25974
826.346	25951
826.485	25982
826.625	25890
826.765	26092
826.904	25871
827.044	25594
827.183	25655
827.323	25510
827.462	25590
827.601	25556
827.741	25628
827.88	25620
828.02	25537
828.159	25548
828.298	25613
828.437	25666
828.577	25651
828.716	25704
828.855	25434
828.994	25354
829.134	25255
829.273	25266
829.412	25362
829.551	25270
829.69	25160
829.829	25255
829.968	25369
830.107	25525
830.246	25285
830.385	25285
830.524	25072
830.663	25251
830.802	25050
830.941	24817
831.08	24928
831.219	24970
831.357	24943
831.496	25114
831.635	24848
831.774	24779
831.913	24875
832.051	24642
832.19	24688
832.329	24730
832.467	24608
832.606	24544
832.744	24467
832.883	24646
833.022	24509
833.16	24566
833.299	24639
833.437	24494
833.576	24642
833.714	24601
833.852	24623
833.991	24612
834.129	24776
834.267	24620
834.406	24806
834.544	24654
834.682	24559
834.821	24604
834.959	24642
835.097	24753
835.235	24715
835.373	24597
835.511	24616
835.65	24513
835.788	24551
835.926	24422
836.064	24357
836.202	24308
836.34	24608
836.478	24547
836.615	24525
836.753	24521
836.891	24509
837.029	24570
837.167	24502
837.305	24384
837.443	24361
837.58	24201
837.718	24380
837.856	24384
837.993	24190
838.131	24353
838.269	24273
838.406	24194
838.544	24182
838.681	23996
838.819	23973
838.956	23984
839.094	23714
839.231	23703
839.369	23927
839.506	24148
839.643	24133
839.781	23805
839.918	23756
840.055	23824
840.193	23623
840.33	23699
840.467	23767
840.604	23710
840.742	23996
840.879	23566
841.016	23623
841.153	23634
841.29	23748
841.427	23767
841.564	23729
841.701	23577
841.838	23665
841.975	23764
842.112	23406
842.249	23516
842.385	23444
842.522	23512
842.659	23577
842.796	23402
842.933	23429
843.069	23436
843.206	23364
843.343	23292
843.479	23383
843.616	23433
843.752	23197
843.889	23117
844.025	23330
844.162	23208
844.298	23360
844.435	23204
844.571	23159
844.708	23330
844.844	23284
844.98	23318
845.117	23178
845.253	23159
845.389	23162
845.525	23094
845.661	23025
845.798	22843
845.934	23037
846.07	22938
846.206	23071
846.342	23022
846.478	22885
846.614	22797
846.75	22519
846.886	22546
847.022	22744
847.158	22702
847.294	22774
847.429	22634
847.565	22580
847.701	22854
847.837	22443
847.972	22405
848.108	22474
848.244	22516
848.379	22322
848.515	22318
848.65	22150
848.786	22352
848.921	22230
849.057	22363
849.192	22344
849.328	22257
849.463	22226
849.598	22131
849.734	22177
849.869	22097
850.004	22090
850.14	22116
850.275	22013
850.41	21876
850.545	22002
850.68	21907
850.815	21994
850.95	21915
851.085	22154
851.22	22196
851.355	22063
851.49	21983
851.625	22010
851.76	21998
851.895	21964
852.03	21949
852.165	21941
852.299	21968
852.434	22150
852.569	22017
852.703	21960
852.838	22017
852.973	22154
853.107	22147
853.242	22036
853.376	21759
853.511	21770
853.645	21819
853.78	21903
853.914	21762
854.048	21743
854.183	21778
854.317	21888
854.451	21922
854.585	21895
854.72	21808
854.854	21736
854.988	21804
855.122	21785
855.256	21652
855.39	21778
855.524	21968
855.658	21842
855.792	21804
855.926	21846
856.06	21945
856.194	21915
856.327	21785
856.461	21793
856.595	21679
856.729	21888
856.862	21842
856.996	21789
857.13	22025
857.263	22013
857.397	21895
857.53	21873
857.664	21854
857.797	21869
857.931	21857
858.064	21907
858.197	21880
858.331	21823
858.464	21759
858.597	21816
858.731	21808
858.864	21724
858.997	21800
859.13	21812
859.263	21842
859.396	21903
859.529	21831
859.662	21846
859.795	21793
859.928	21930
860.061	21918
860.194	22017
860.327	21816
860.46	21895
860.592	21895
860.725	21949
860.858	21907
860.99	21785
861.123	21705
861.256	21823
861.388	21926
861.521	22436
861.653	21622
861.786	21728
861.918	21694
862.05	21728
862.183	21808
862.315	21747
862.447	21842
862.58	21808
862.712	21538
862.844	21450
862.976	21564
863.108	21595
863.24	21888
863.372	21397
863.504	21542
863.636	21542
863.768	21595
863.9	21587
864.032	21447
864.164	21507
864.296	21603
864.428	21667
864.559	21599
864.691	21705
864.823	21644
864.954	21485
865.086	21447
865.217	21542
865.349	21329
865.48	21500
865.612	21428
865.743	21648
865.875	21477
866.006	21370
866.137	21431
866.269	21344
866.4	21412
866.531	21428
866.662	21313
866.793	21336
866.924	21233
867.055	21412
867.186	21370
867.317	21325
867.448	21317
867.579	21298
867.71	21199
867.841	21260
867.972	21428
868.103	21329
868.233	21420
868.364	21424
868.495	21488
868.625	21458
868.756	21713
868.886	21530
869.017	21545
869.147	21759
869.278	21804
869.408	21675
869.539	21622
869.669	21641
869.799	21701
869.929	21717
870.06	21705
870.19	21903
870.32	22048
870.45	21945
870.58	21994
870.71	22074
870.84	22112
870.97	21907
871.1	21934
871.23	22169
871.36	22188
871.489	22036
871.619	22093
871.749	22055
871.879	22223
872.008	22257
872.138	22177
872.267	22204
872.397	22124
872.526	22002
872.656	22040
872.785	22078
872.915	22154
873.044	22226
873.173	22181
873.303	22386
873.432	22291
873.561	22200
873.69	22215
873.819	22329
873.948	22306
874.077	22246
874.206	22093
874.335	22287
874.464	22234
874.593	22451
874.722	22443
874.851	22314
874.979	22443
875.108	22535
875.237	22363
875.365	22253
875.494	22382
875.623	22402
875.751	22348
875.88	22367
876.008	22615
876.136	22565
876.265	22869
876.393	22915
876.521	22911
876.65	22999
876.778	22881
876.906	22683
877.034	22721
877.162	22729
877.29	22664
877.418	22885
877.546	22740
877.674	22782
877.802	22790
877.93	22702
878.058	22774
878.185	22683
878.313	22782
878.441	22733
878.568	22554
878.696	22687
878.824	22824
878.951	22866
879.079	23018
879.206	23064
879.333	22927
879.461	22786
879.588	22904
879.715	23033
879.842	23025
879.97	22896
880.097	22550
880.224	22577
880.351	22584
880.478	22535
880.605	22531
880.732	22596
880.859	22858
880.986	22603
881.112	22622
881.239	22428
881.366	22295
881.493	22242
881.619	22306
881.746	22147
881.872	22284
881.999	22120
882.125	22078
882.252	22207
882.378	22124
882.505	22147
882.631	22021
882.757	21983
882.883	21903
883.01	21899
883.136	21732
883.262	21652
883.388	21679
883.514	21755
883.64	21880
883.766	21751
883.892	21648
884.018	21625
884.143	21736
884.269	21759
884.395	21587
884.52	21523
884.646	21545
884.772	21401
884.897	21302
885.023	21576
885.148	21519
885.274	21701
885.399	21526
885.524	21500
885.65	21545
885.775	21610
885.9	21500
886.025	21595
886.15	21507
886.275	21447
886.4	21218
886.525	21549
886.65	21447
886.775	21378
886.9	21595
887.025	21793
887.149	21481
887.274	21321
887.399	21275
887.523	21218
887.648	21279
887.773	21203
887.897	21355
888.021	21249
888.146	21199
888.27	21382
888.395	21241
888.519	21397
888.643	21192
888.767	21287
888.891	21146
889.015	21089
889.139	21252
889.263	21070
889.387	21279
889.511	21233
889.635	21150
889.759	21142
889.883	20979
890.006	21161
890.13	21180
890.254	20933
890.377	20990
890.501	20868
890.624	20674
890.748	20891
890.871	20792
890.995	20632
891.118	20674
891.241	20537
891.364	20716
891.488	20693
891.611	20693
891.734	20754
891.857	20739
891.98	20590
892.103	20765
892.226	20705
892.349	20560
892.471	20480
892.594	20651
892.717	20545
892.839	20473
892.962	20461
893.085	20545
893.207	20602
893.33	20541
893.452	20545
893.575	20609
893.697	20518
893.819	20602
893.941	20819
894.064	20606
894.186	20526
894.308	20469
894.43	20625
894.552	20606
894.674	20613
894.796	20465
894.918	20514
895.04	20533
895.161	20568
895.283	20587
895.405	20381
895.526	20476
895.648	20438
895.769	20530
895.891	20636
896.012	20625
896.134	20617
896.255	20530
896.376	20476
896.498	20473
896.619	20644
896.74	20442
896.861	20571
896.982	20910
897.103	21009
897.224	20819
897.345	20800
897.466	20788
897.587	20758
897.708	20857
897.828	20769
897.949	20735
898.07	20564
898.19	20632
898.311	20880
898.431	20758
898.552	20743
898.672	20807
898.792	20853
898.913	20678
899.033	20617
899.153	20556
899.273	20473
899.393	20552
899.513	20541
899.633	20552
899.753	20522
899.873	20488
899.993	20522
900.113	20492
900.232	20438
900.352	20389
900.472	20290
900.591	20252
900.711	20206
900.83	20210
900.95	20328
901.069	20347
901.189	20221
901.308	19894
901.427	19776
901.546	19906
901.665	19898
901.784	19795
901.904	19700
902.023	19575
902.141	19499
902.26	19327
902.379	19518
902.498	19297
902.617	19312
902.735	19457
902.854	19358
902.973	19209
903.091	19103
903.21	18958
903.328	18924
903.446	18935
903.565	18829
903.683	18791
903.801	18646
903.919	18749
904.038	18760
904.156	18650
904.274	18582
904.392	18445
904.51	18559
904.627	18456
904.745	18627
904.863	18601
904.981	18350
905.098	18220
905.216	18281
905.334	18346
905.451	18262
905.569	18167
905.686	18243
905.803	18167
905.921	18114
906.038	18125
906.155	17984
906.272	17999
906.389	18022
906.506	17802
906.623	17813
906.74	17794
906.857	17695
906.974	17684
907.091	17965
907.208	17893
907.324	17764
907.441	17608
907.557	17516
907.674	17440
907.79	17573
907.907	17486
908.023	17581
908.139	17528
908.256	17391
908.372	17368
908.488	17220
908.604	17265
908.72	17189
908.836	17273
908.952	17216
909.068	17242
909.184	17330
909.3	17216
909.415	17303
909.531	17227
909.647	16904
909.762	16976
909.878	16854
909.993	16965
910.108	16869
910.224	16869
910.339	17022
910.454	16744
910.57	16698
910.685	16523
910.8	16949
910.915	16980
911.03	16786
911.145	16493
911.259	16443
911.374	16596
911.489	16409
911.604	16409
911.718	16310
911.833	16253
911.947	16204
912.062	16097
912.176	16272
912.291	16295
912.405	16299
912.519	16440
912.633	16474
912.748	16348
912.862	16185
912.976	16059
913.09	15953
913.204	16002
913.318	16055
913.431	16067
913.545	16143
913.659	16036
913.772	15983
913.886	15838
914	15876
914.113	15975
914.226	15918
914.34	15991
914.453	15747
914.566	15804
914.68	15739
914.793	15781
914.906	15507
915.019	15511
915.132	15393
915.245	15545
915.358	15439
915.47	15439
915.583	15329
915.696	15416
915.809	15492
915.921	15675
916.034	15420
916.146	15325
916.259	15405
916.371	15397
916.483	15344
916.595	15294
916.708	15272
916.82	15252
916.932	15138
917.044	15233
917.156	15146
917.268	14994
917.38	15097
917.491	15047
917.603	15142
917.715	15173
917.826	15100
917.938	15039
918.049	14868
918.161	14986
918.272	15184
918.384	15184
918.495	15043
918.606	14861
918.717	14880
918.828	14918
918.939	14895
919.05	14743
919.161	14777
919.272	14606
919.383	14674
919.494	14823
919.604	15013
919.715	14883
919.826	14735
919.936	14765
920.047	14883
920.157	14762
920.267	14933
920.378	14796
920.488	14811
920.598	14891
920.708	15154
920.818	14880
920.928	14838
921.038	15218
921.148	15066
921.258	14735
921.368	14667
921.477	14545
921.587	14526
921.697	14454
921.806	14640
921.916	14347
922.025	14229
922.134	14161
922.244	14153
922.353	14298
922.462	13989
922.571	14012
922.68	13723
922.789	13799
922.898	13814
923.007	13727
923.116	13753
923.224	13780
923.333	13734
923.442	13632
923.55	13681
923.659	13696
923.767	13746
923.876	13575
923.984	13636
924.092	13559
924.201	13708
924.309	13434
924.417	13510
924.525	13472
924.633	13495
924.741	14442
924.849	13282
924.956	13426
925.064	13232
925.172	13217
925.279	13247
925.387	13304
925.494	13209
925.602	13335
925.709	13232
925.816	13126
925.924	13091
926.031	13236
926.138	13190
926.245	13289
926.352	13008
926.459	13213
926.566	13251
926.673	13126
926.779	12993
926.886	12985
926.993	12863
927.099	12772
927.206	12776
927.312	12654
927.419	12791
927.525	12787
927.631	12795
927.737	12783
927.843	12593
927.95	12555
928.056	12635
928.162	12654
928.267	12604
928.373	13327
928.479	12650
928.585	12380
928.69	12521
928.796	12559
928.901	12388
929.007	12357
929.112	12467
929.218	12372
929.323	12365
929.428	12289
929.533	12418
929.638	12175
929.743	12201
929.848	12330
929.953	12338
930.058	12197
930.163	11958
930.267	11965
930.372	12175
930.477	11870
930.581	12224
930.685	11969
930.79	11927
930.894	11969
930.998	11859
931.103	11935
931.207	11649
931.311	11623
931.415	11440
931.519	11318
931.623	11181
