Data from test_V78500241_689.txt Node
Date: Fri Mar 25 15:46:34 CST 2022
User: usil
Spectrometer: V785-0024
Trigger mode: 0
Integration Time (sec): 4.000000E-1
Scans to average: 1
Nonlinearity correction enabled: false
Boxcar width: 0
Storing dark spectrum: false
XAxis mode: Wavelengths
Number of Pixels in Spectrum: 1024
>>>>>Begin Spectral Data<<<<<
801.071	27424
801.214	27355
801.356	27047
801.499	27096
801.641	27028
801.783	27024
801.926	27108
802.068	27039
802.211	26876
802.353	26762
802.496	26674
802.638	26689
802.78	26514
802.923	26648
803.065	26480
803.208	26598
803.35	26617
803.492	26773
803.635	26769
803.777	26663
803.919	26891
804.061	27157
804.204	26853
804.346	26537
804.488	26590
804.63	26659
804.773	26743
804.915	26838
805.057	26975
805.199	26773
805.341	26880
805.483	26937
805.626	26857
805.768	26762
805.91	26834
806.052	26979
806.194	26777
806.336	26994
806.478	27001
806.62	26906
806.762	27188
806.904	27283
807.046	27427
807.188	27237
807.33	27313
807.472	27469
807.614	27378
807.756	27192
807.898	27146
808.04	27116
808.182	27058
808.324	27199
808.465	27294
808.607	27370
808.749	27599
808.891	27770
809.033	27743
809.174	27633
809.316	27542
809.458	27519
809.6	27523
809.741	27747
809.883	27690
810.025	27861
810.166	27831
810.308	27793
810.45	27831
810.591	27656
810.733	27564
810.875	27587
811.016	27500
811.158	27481
811.299	27576
811.441	27713
811.582	27728
811.724	27606
811.865	27492
812.007	27610
812.148	27564
812.29	27622
812.431	27759
812.573	27876
812.714	27922
812.855	28135
812.997	28150
813.138	28226
813.279	28268
813.421	28147
813.562	28059
813.703	27869
813.845	27770
813.986	27469
814.127	27283
814.268	27188
814.41	27241
814.551	27264
814.692	27275
814.833	27150
814.974	27184
815.115	27260
815.256	26944
815.397	27024
815.539	27100
815.68	27218
815.821	26838
815.962	27032
816.103	26990
816.244	27028
816.385	26823
816.526	26796
816.666	26636
816.807	26488
816.948	26587
817.089	26693
817.23	26541
817.371	26495
817.512	26473
817.653	26453
817.793	26404
817.934	26552
818.075	26488
818.216	26575
818.356	26571
818.497	26450
818.638	26221
818.778	26309
818.919	26233
819.06	26374
819.2	26446
819.341	26469
819.481	26317
819.622	26621
819.762	26823
819.903	26823
820.043	26511
820.184	26644
820.324	26636
820.465	26533
820.605	26602
820.746	26682
820.886	26442
821.026	26724
821.167	26568
821.307	26655
821.447	26609
821.588	26332
821.728	26484
821.868	26039
822.008	25986
822.149	25928
822.289	25833
822.429	25700
822.569	25731
822.709	25563
822.849	25407
822.99	25438
823.13	25571
823.27	25479
823.41	25320
823.55	25187
823.69	25339
823.83	25320
823.97	25301
824.11	25179
824.25	25069
824.389	25156
824.529	25152
824.669	25034
824.809	25304
824.949	25164
825.089	25202
825.228	25145
825.368	24996
825.508	24973
825.648	25042
825.787	25031
825.927	25050
826.067	25008
826.206	25042
826.346	24909
826.485	24981
826.625	24947
826.765	25152
826.904	25019
827.044	24623
827.183	24741
827.323	24677
827.462	24741
827.601	24620
827.741	24681
827.88	24741
828.02	24635
828.159	24673
828.298	24677
828.437	24753
828.577	24597
828.716	24798
828.855	24498
828.994	24422
829.134	24384
829.273	24407
829.412	24369
829.551	24300
829.69	24365
829.829	24380
829.968	24475
830.107	24426
830.246	24357
830.385	24308
830.524	24311
830.663	24247
830.802	24106
830.941	24041
831.08	23958
831.219	24083
831.357	23999
831.496	24194
831.635	24038
831.774	23771
831.913	23855
832.051	23786
832.19	23668
832.329	23821
832.467	23634
832.606	23649
832.744	23608
832.883	23722
833.022	23653
833.16	23722
833.299	23608
833.437	23592
833.576	23798
833.714	23726
833.852	23680
833.991	23756
834.129	23908
834.267	23897
834.406	23718
834.544	23786
834.682	23889
834.821	23653
834.959	23855
835.097	23733
835.235	23836
835.373	23665
835.511	23695
835.65	23577
835.788	23661
835.926	23326
836.064	23322
836.202	23516
836.34	23520
836.478	23665
836.615	23531
836.753	23471
836.891	23634
837.029	23627
837.167	23486
837.305	23524
837.443	23497
837.58	23433
837.718	23528
837.856	23356
837.993	23474
838.131	23425
838.269	23223
838.406	23311
838.544	23212
838.681	22972
838.819	23075
838.956	22885
839.094	22908
839.231	22987
839.369	23174
839.506	23341
839.643	23052
839.781	22896
839.918	22805
840.055	22957
840.193	22885
840.33	22790
840.467	22828
840.604	22850
840.742	23117
840.879	22683
841.016	22820
841.153	22618
841.29	22938
841.427	22809
841.564	22881
841.701	22812
841.838	22698
841.975	22740
842.112	22744
842.249	22618
842.385	22660
842.522	22915
842.659	22588
842.796	22504
842.933	22656
843.069	22409
843.206	22733
843.343	22653
843.479	22535
843.616	22516
843.752	22295
843.889	22367
844.025	22424
844.162	22489
844.298	22478
844.435	22185
844.571	22287
844.708	22356
844.844	22424
844.98	22428
845.117	22394
845.253	22325
845.389	22249
845.525	22124
845.661	22143
845.798	22006
845.934	22215
846.07	22036
846.206	22150
846.342	22120
846.478	22040
846.614	21930
846.75	21759
846.886	21751
847.022	21831
847.158	21755
847.294	21880
847.429	21888
847.565	21667
847.701	22017
847.837	21656
847.972	21523
848.108	21705
848.244	21591
848.379	21412
848.515	21401
848.65	21332
848.786	21306
848.921	21447
849.057	21534
849.192	21439
849.328	21450
849.463	21348
849.598	21359
849.734	21188
849.869	21211
850.004	21188
850.14	21180
850.275	21279
850.41	21131
850.545	21081
850.68	21066
850.815	21093
850.95	21207
851.085	21321
851.22	21180
851.355	21214
851.49	21188
851.625	21241
851.76	21135
851.895	21070
852.03	20990
852.165	21264
852.299	21142
852.434	21245
852.569	21249
852.703	21017
852.838	21127
852.973	21332
853.107	21291
853.242	21207
853.376	20933
853.511	20864
853.645	20956
853.78	21074
853.914	21058
854.048	20967
854.183	20963
854.317	20967
854.451	21157
854.585	20952
854.72	20868
854.854	20941
854.988	20785
855.122	20948
855.256	20785
855.39	21043
855.524	20975
855.658	21005
855.792	21066
855.926	21089
856.06	20975
856.194	21211
856.327	20986
856.461	20956
856.595	20815
856.729	20895
856.862	20952
856.996	21123
857.13	20994
857.263	21104
857.397	21165
857.53	20960
857.664	21135
857.797	20971
857.931	21074
858.064	20990
858.197	21127
858.331	20998
858.464	20937
858.597	20876
858.731	20971
858.864	20899
858.997	21020
859.13	20975
859.263	21085
859.396	21074
859.529	20941
859.662	20891
859.795	20853
859.928	21043
860.061	21192
860.194	21161
860.327	20990
860.46	21039
860.592	21135
860.725	21165
860.858	21157
860.99	21017
861.123	20925
861.256	20868
861.388	20880
861.521	21629
861.653	20842
861.786	20868
861.918	20864
862.05	20773
862.183	20868
862.315	20876
862.447	21020
862.58	20883
862.712	20693
862.844	20689
862.976	20648
863.108	20613
863.24	21119
863.372	20636
863.504	20640
863.636	20750
863.768	20682
863.9	20735
864.032	20636
864.164	20648
864.296	20731
864.428	20823
864.559	20648
864.691	20769
864.823	20823
864.954	20594
865.086	20629
865.217	20667
865.349	20507
865.48	20575
865.612	20682
865.743	20701
865.875	20590
866.006	20514
866.137	20648
866.269	20530
866.4	20686
866.531	20492
866.662	20484
866.793	20594
866.924	20598
867.055	20575
867.186	20530
867.317	20587
867.448	20465
867.579	20450
867.71	20549
867.841	20488
867.972	20377
868.103	20499
868.233	20526
868.364	20499
868.495	20663
868.625	20777
868.756	20788
868.886	20765
869.017	20670
869.147	20815
869.278	20933
869.408	20883
869.539	20754
869.669	20864
869.799	20777
869.929	20899
870.06	20781
870.19	20982
870.32	21013
870.45	21096
870.58	21081
870.71	21268
870.84	21207
870.97	21089
871.1	21192
871.23	21363
871.36	21321
871.489	21192
871.619	21329
871.749	21321
871.879	21374
872.008	21462
872.138	21359
872.267	21405
872.397	21131
872.526	21150
872.656	21108
872.785	21233
872.915	21336
873.044	21469
873.173	21382
873.303	21458
873.432	21473
873.561	21454
873.69	21344
873.819	21291
873.948	21435
874.077	21405
874.206	21264
874.335	21332
874.464	21538
874.593	21610
874.722	21618
874.851	21599
874.979	21618
875.108	21618
875.237	21542
875.365	21443
875.494	21572
875.623	21660
875.751	21637
875.88	21587
876.008	21724
876.136	21717
876.265	21956
876.393	22131
876.521	22051
876.65	22109
876.778	21975
876.906	22063
877.034	22017
877.162	21941
877.29	21945
877.418	21998
877.546	22010
877.674	21880
877.802	21857
877.93	21880
878.058	21846
878.185	21819
878.313	21895
878.441	21922
878.568	21823
878.696	21968
878.824	21987
878.951	22029
879.079	22059
879.206	22306
879.333	22234
879.461	21983
879.588	22101
879.715	22112
879.842	22287
879.97	21972
880.097	21808
880.224	21759
880.351	21812
880.478	21861
880.605	21713
880.732	21785
880.859	22074
880.986	21827
881.112	21892
881.239	21606
881.366	21561
881.493	21420
881.619	21344
881.746	21492
881.872	21416
881.999	21386
882.125	21374
882.252	21424
882.378	21378
882.505	21523
882.631	21351
882.757	21165
882.883	21249
883.01	21173
883.136	21161
883.262	21066
883.388	20845
883.514	21112
883.64	21169
883.766	21032
883.892	20765
884.018	20918
884.143	21055
884.269	21173
884.395	20876
884.52	20689
884.646	20743
884.772	20621
884.897	20674
885.023	20762
885.148	20800
885.274	20918
885.399	20861
885.524	20735
885.65	20735
885.775	20773
885.9	20724
886.025	20838
886.15	20777
886.275	20716
886.4	20587
886.525	20815
886.65	20724
886.775	20716
886.9	20826
887.025	20967
887.149	20792
887.274	20511
887.399	20480
887.523	20492
887.648	20415
887.773	20446
887.897	20564
888.021	20556
888.146	20492
888.27	20629
888.395	20518
888.519	20511
888.643	20587
888.767	20461
888.891	20366
889.015	20358
889.139	20431
889.263	20336
889.387	20389
889.511	20640
889.635	20347
889.759	20244
889.883	20358
890.006	20282
890.13	20400
890.254	20240
890.377	20199
890.501	19970
890.624	20027
890.748	20012
890.871	19906
890.995	19833
891.118	19742
891.241	20020
891.364	19940
891.488	20008
891.611	19944
891.734	19947
891.857	20005
891.98	19959
892.103	19917
892.226	19852
892.349	19753
892.471	19639
892.594	19807
892.717	19833
892.839	19856
892.962	19871
893.085	19860
893.207	19826
893.33	19666
893.452	19719
893.575	19803
893.697	19795
893.819	19955
893.941	19959
894.064	19997
894.186	19719
894.308	19674
894.43	19860
894.552	20069
894.674	19894
894.796	19635
894.918	19746
895.04	19750
895.161	19894
895.283	19955
895.405	19696
895.526	19742
895.648	19906
895.769	19890
895.891	19868
896.012	19849
896.134	19856
896.255	19776
896.376	19799
896.498	19845
896.619	19830
896.74	19765
896.861	19986
896.982	20081
897.103	20336
897.224	20081
897.345	20073
897.466	20054
897.587	20069
897.708	20191
897.828	20043
897.949	20035
898.07	19864
898.19	20046
898.311	20157
898.431	19928
898.552	20138
898.672	20084
898.792	20183
898.913	20149
899.033	19936
899.153	19875
899.273	19708
899.393	19818
899.513	19963
899.633	19776
899.753	19959
899.873	19791
899.993	19845
900.113	19830
900.232	19753
900.352	19761
900.472	19582
900.591	19601
900.711	19582
900.83	19556
900.95	19655
901.069	19685
901.189	19381
901.308	19247
901.427	19152
901.546	19213
901.665	19145
901.784	19244
901.904	19057
902.023	18932
902.141	18772
902.26	18715
902.379	18787
902.498	18741
902.617	18673
902.735	18707
902.854	18642
902.973	18597
903.091	18376
903.21	18304
903.328	18369
903.446	18292
903.565	18205
903.683	18213
903.801	18007
903.919	18038
904.038	18095
904.156	17908
904.274	17977
904.392	17832
904.51	17939
904.627	17920
904.745	17988
904.863	18068
904.981	17638
905.098	17638
905.216	17535
905.334	17729
905.451	17729
905.569	17627
905.686	17604
905.803	17619
905.921	17433
906.038	17497
906.155	17364
906.272	17349
906.389	17307
906.506	17250
906.623	17235
906.74	17174
906.857	17056
906.974	17075
907.091	17155
907.208	17277
907.324	17159
907.441	17048
907.557	16919
907.674	16908
907.79	16923
907.907	16854
908.023	16793
908.139	16820
908.256	16778
908.372	16850
908.488	16774
908.604	16706
908.72	16535
908.836	16565
908.952	16554
909.068	16580
909.184	16691
909.3	16607
909.415	16523
909.531	16569
909.647	16428
909.762	16356
909.878	16265
909.993	16299
910.108	16398
910.224	16249
910.339	16344
910.454	16242
910.57	16116
910.685	16025
910.8	16295
910.915	16257
911.03	16097
911.145	15937
911.259	15907
911.374	15918
911.489	15895
911.604	15762
911.718	15629
911.833	15679
911.947	15477
912.062	15523
912.176	15728
912.291	15743
912.405	15698
912.519	15816
912.633	15922
912.748	15663
912.862	15580
912.976	15526
913.09	15218
913.204	15363
913.318	15564
913.431	15530
913.545	15397
913.659	15481
913.772	15344
913.886	15237
914	15275
914.113	15370
914.226	15367
914.34	15310
914.453	15161
914.566	15325
914.68	15184
914.793	15097
914.906	14998
915.019	14887
915.132	14906
915.245	14815
915.358	14914
915.47	14872
915.583	14902
915.696	14883
915.809	14982
915.921	14952
916.034	14823
916.146	14720
916.259	14819
916.371	14880
916.483	14842
916.595	14765
916.708	14697
916.82	14613
916.932	14663
917.044	14583
917.156	14701
917.268	14606
917.38	14594
917.491	14602
917.603	14587
917.715	14670
917.826	14648
917.938	14476
918.049	14351
918.161	14492
918.272	14579
918.384	14655
918.495	14492
918.606	14374
918.717	14271
918.828	14351
918.939	14294
919.05	14263
919.161	14324
919.272	14123
919.383	14119
919.494	14282
919.604	14484
919.715	14339
919.826	14286
919.936	14305
920.047	14385
920.157	14172
920.267	14457
920.378	14294
920.488	14233
920.598	14358
920.708	14606
920.818	14366
920.928	14419
921.038	14598
921.148	14469
921.258	14286
921.368	14176
921.477	13989
921.587	14123
921.697	13883
921.806	14058
921.916	13936
922.025	13681
922.134	13780
922.244	13582
922.353	13700
922.462	13586
922.571	13514
922.68	13316
922.789	13293
922.898	13365
923.007	13293
923.116	13384
923.224	13282
923.333	13396
923.442	13133
923.55	13122
923.659	13152
923.767	13202
923.876	13065
923.984	13206
924.092	13069
924.201	13137
924.309	13012
924.417	13168
924.525	13053
924.633	13019
924.741	13871
924.849	12814
924.956	12852
925.064	12757
925.172	12707
925.279	12696
925.387	12787
925.494	12768
925.602	12954
925.709	12825
925.816	12802
925.924	12783
926.031	12726
926.138	12753
926.245	12753
926.352	12582
926.459	12719
926.566	12776
926.673	12536
926.779	12540
926.886	12464
926.993	12300
927.099	12391
927.206	12296
927.312	12258
927.419	12327
927.525	12289
927.631	12308
927.737	12224
927.843	12197
927.95	12053
928.056	12121
928.162	12140
928.267	12171
928.373	12779
928.479	12235
928.585	12022
928.69	12121
928.796	12152
928.901	12121
929.007	11821
929.112	12034
929.218	11999
929.323	11942
929.428	11878
929.533	12076
929.638	11764
929.743	11813
929.848	11863
929.953	11916
930.058	11688
930.163	11528
930.267	11562
930.372	11760
930.477	11573
930.581	11828
930.685	11570
930.79	11467
930.894	11433
930.998	11417
931.103	11509
931.207	11159
931.311	11098
931.415	11041
931.519	10877
931.623	10850
