Data from test_V78500241_967.txt Node
Date: Fri Mar 25 15:48:30 CST 2022
User: usil
Spectrometer: V785-0024
Trigger mode: 0
Integration Time (sec): 4.000000E-1
Scans to average: 1
Nonlinearity correction enabled: false
Boxcar width: 0
Storing dark spectrum: false
XAxis mode: Wavelengths
Number of Pixels in Spectrum: 1024
>>>>>Begin Spectral Data<<<<<
801.071	28249
801.214	28299
801.356	27884
801.499	28013
801.641	27850
801.783	27949
801.926	28120
802.068	28059
802.211	27884
802.353	27743
802.496	27690
802.638	27568
802.78	27545
802.923	27568
803.065	27462
803.208	27534
803.35	27576
803.492	27576
803.635	27648
803.777	27701
803.919	27823
804.061	28090
804.204	27846
804.346	27599
804.488	27755
804.63	27610
804.773	27705
804.915	27724
805.057	27781
805.199	27903
805.341	27797
805.483	28036
805.626	27838
805.768	27797
805.91	27983
806.052	27831
806.194	27880
806.336	28192
806.478	27979
806.62	27865
806.762	27975
806.904	28143
807.046	28523
807.188	28291
807.33	28413
807.472	28287
807.614	28382
807.756	28242
807.898	28169
808.04	28337
808.182	28287
808.324	28162
808.465	28329
808.607	28519
808.749	28748
808.891	28542
809.033	28740
809.174	28626
809.316	28573
809.458	28481
809.6	28546
809.741	28615
809.883	28908
810.025	29033
810.166	28839
810.308	28972
810.45	28862
810.591	28908
810.733	28710
810.875	28668
811.016	28542
811.158	28573
811.299	28854
811.441	28755
811.582	28949
811.724	28577
811.865	28771
812.007	28649
812.148	28580
812.29	28649
812.431	28809
812.573	28957
812.714	29029
812.855	29128
812.997	29311
813.138	29318
813.279	29235
813.421	29185
813.562	29174
813.703	28968
813.845	29064
813.986	28508
814.127	28508
814.268	28299
814.41	28417
814.551	28341
814.692	28599
814.833	28325
814.974	28284
815.115	28382
815.256	28173
815.397	28226
815.539	28272
815.68	28036
815.821	28055
815.962	28105
816.103	27930
816.244	28025
816.385	27918
816.526	27865
816.666	27751
816.807	27701
816.948	27774
817.089	27903
817.23	27648
817.371	27720
817.512	27610
817.653	27656
817.793	27679
817.934	27701
818.075	27766
818.216	27610
818.356	27648
818.497	27416
818.638	27458
818.778	27439
818.919	27348
819.06	27595
819.2	27572
819.341	27675
819.481	27701
819.622	27842
819.762	27914
819.903	27964
820.043	27698
820.184	27770
820.324	27800
820.465	27736
820.605	27884
820.746	27732
820.886	27622
821.026	27831
821.167	27797
821.307	27717
821.447	27675
821.588	27679
821.728	27458
821.868	27329
822.008	27154
822.149	27283
822.289	27123
822.429	26910
822.569	26902
822.709	26705
822.849	26632
822.99	26697
823.13	26549
823.27	26571
823.41	26419
823.55	26324
823.69	26492
823.83	26514
823.97	26450
824.11	26355
824.25	26225
824.389	26374
824.529	26328
824.669	26202
824.809	26294
824.949	26396
825.089	26427
825.228	26320
825.368	26039
825.508	26084
825.648	26221
825.787	26183
825.927	26240
826.067	26218
826.206	26119
826.346	26199
826.485	26278
826.625	26248
826.765	26328
826.904	26202
827.044	25898
827.183	25944
827.323	25814
827.462	25852
827.601	25746
827.741	25765
827.88	25917
828.02	25822
828.159	25757
828.298	25925
828.437	25894
828.577	25875
828.716	25898
828.855	25814
828.994	25590
829.134	25594
829.273	25521
829.412	25510
829.551	25518
829.69	25647
829.829	25597
829.968	25635
830.107	25761
830.246	25533
830.385	25483
830.524	25506
830.663	25312
830.802	25236
830.941	25122
831.08	25152
831.219	25278
831.357	25232
831.496	25400
831.635	25206
831.774	25168
831.913	25038
832.051	25015
832.19	24901
832.329	25031
832.467	24863
832.606	24802
832.744	24620
832.883	24802
833.022	24806
833.16	24924
833.299	24859
833.437	24947
833.576	24928
833.714	24856
833.852	24913
833.991	25008
834.129	24901
834.267	25000
834.406	25004
834.544	24920
834.682	24962
834.821	24852
834.959	25042
835.097	24973
835.235	25031
835.373	24966
835.511	25038
835.65	24738
835.788	24772
835.926	24597
836.064	24517
836.202	24639
836.34	24802
836.478	24859
836.615	24875
836.753	24722
836.891	24905
837.029	24715
837.167	24589
837.305	24547
837.443	24528
837.58	24585
837.718	24642
837.856	24525
837.993	24464
838.131	24502
838.269	24403
838.406	24559
838.544	24388
838.681	24186
838.819	24125
838.956	24007
839.094	24030
839.231	24030
839.369	24292
839.506	24418
839.643	24327
839.781	24064
839.918	24060
840.055	24049
840.193	23999
840.33	23942
840.467	23999
840.604	23950
840.742	24315
840.879	23904
841.016	23908
841.153	23805
841.29	23988
841.427	23931
841.564	24030
841.701	24003
841.838	23893
841.975	23821
842.112	23954
842.249	23726
842.385	23695
842.522	23817
842.659	23729
842.796	23539
842.933	23748
843.069	23535
843.206	23539
843.343	23745
843.479	23604
843.616	23684
843.752	23455
843.889	23497
844.025	23627
844.162	23520
844.298	23410
844.435	23429
844.571	23368
844.708	23478
844.844	23604
844.98	23729
845.117	23448
845.253	23486
845.389	23417
845.525	23448
845.661	23395
845.798	23178
845.934	23368
846.07	23254
846.206	23273
846.342	23288
846.478	23174
846.614	22949
846.75	22873
846.886	22934
847.022	22995
847.158	23022
847.294	22809
847.429	22896
847.565	22923
847.701	23140
847.837	22656
847.972	22694
848.108	22607
848.244	22675
848.379	22573
848.515	22516
848.65	22409
848.786	22565
848.921	22497
849.057	22664
849.192	22615
849.328	22569
849.463	22478
849.598	22500
849.734	22512
849.869	22371
850.004	22367
850.14	22261
850.275	22246
850.41	22226
850.545	22322
850.68	22325
850.815	22185
850.95	22303
851.085	22405
851.22	22428
851.355	22333
851.49	22341
851.625	22291
851.76	22246
851.895	22265
852.03	22143
852.165	22280
852.299	22223
852.434	22360
852.569	22196
852.703	22234
852.838	22249
852.973	22542
853.107	22516
853.242	22344
853.376	22021
853.511	21892
853.645	22051
853.78	22162
853.914	22006
854.048	22059
854.183	21934
854.317	22185
854.451	22147
854.585	22120
854.72	22131
854.854	22188
854.988	22025
855.122	22097
855.256	21835
855.39	22090
855.524	22097
855.658	22147
855.792	22116
855.926	22044
856.06	22070
856.194	22280
856.327	22109
856.461	22063
856.595	22006
856.729	22097
856.862	22253
856.996	22147
857.13	22200
857.263	22238
857.397	22101
857.53	22055
857.664	22192
857.797	22215
857.931	22139
858.064	22169
858.197	22207
858.331	22150
858.464	21968
858.597	22093
858.731	22082
858.864	22078
858.997	22017
859.13	22067
859.263	22032
859.396	22177
859.529	22059
859.662	21884
859.795	22070
859.928	22055
860.061	22188
860.194	22166
860.327	22215
860.46	22196
860.592	22234
860.725	22299
860.858	22238
860.99	22074
861.123	22021
861.256	21937
861.388	22097
861.521	22710
861.653	21941
861.786	21857
861.918	22032
862.05	22048
862.183	22013
862.315	22128
862.447	22082
862.58	22040
862.712	21728
862.844	21785
862.976	21869
863.108	21827
863.24	22105
863.372	21694
863.504	21698
863.636	21869
863.768	21835
863.9	21842
864.032	21762
864.164	21713
864.296	21789
864.428	21915
864.559	21819
864.691	21835
864.823	21819
864.954	21838
865.086	21827
865.217	21648
865.349	21549
865.48	21568
865.612	21694
865.743	21808
865.875	21667
866.006	21682
866.137	21690
866.269	21698
866.4	21717
866.531	21572
866.662	21580
866.793	21637
866.924	21660
867.055	21595
867.186	21618
867.317	21538
867.448	21572
867.579	21618
867.71	21576
867.841	21614
867.972	21606
868.103	21458
868.233	21534
868.364	21462
868.495	21739
868.625	22006
868.756	21956
868.886	21808
869.017	21762
869.147	21861
869.278	21884
869.408	21994
869.539	21755
869.669	22002
869.799	21800
869.929	21930
870.06	21975
870.19	22173
870.32	22120
870.45	22166
870.58	22276
870.71	22428
870.84	22230
870.97	22299
871.1	22200
871.23	22367
871.36	22550
871.489	22314
871.619	22432
871.749	22432
871.879	22462
872.008	22660
872.138	22348
872.267	22405
872.397	22337
872.526	22272
872.656	22207
872.785	22318
872.915	22580
873.044	22538
873.173	22466
873.303	22577
873.432	22466
873.561	22474
873.69	22428
873.819	22531
873.948	22519
874.077	22466
874.206	22325
874.335	22371
874.464	22668
874.593	22729
874.722	22634
874.851	22771
874.979	22710
875.108	22778
875.237	22626
875.365	22459
875.494	22782
875.623	22835
875.751	22668
875.88	22706
876.008	22790
876.136	22816
876.265	23064
876.393	23208
876.521	23075
876.65	23239
876.778	23044
876.906	23025
877.034	22923
877.162	23010
877.29	23006
877.418	23052
877.546	23094
877.674	22961
877.802	22949
877.93	23025
878.058	22961
878.185	22862
878.313	23006
878.441	23033
878.568	22862
878.696	22987
878.824	23044
878.951	23102
879.079	23102
879.206	23299
879.333	23204
879.461	22972
879.588	23143
879.715	23136
879.842	23239
879.97	23128
880.097	22908
880.224	22843
880.351	22889
880.478	22824
880.605	22767
880.732	22885
880.859	23105
880.986	22812
881.112	22858
881.239	22626
881.366	22557
881.493	22436
881.619	22421
881.746	22462
881.872	22470
881.999	22314
882.125	22451
882.252	22485
882.378	22489
882.505	22459
882.631	22344
882.757	22070
882.883	22147
883.01	22150
883.136	22055
883.262	22067
883.388	21998
883.514	22093
883.64	22246
883.766	22059
883.892	21838
884.018	22002
884.143	22059
884.269	22131
884.395	21728
884.52	21789
884.646	21808
884.772	21663
884.897	21705
885.023	21667
885.148	21747
885.274	21838
885.399	21838
885.524	21770
885.65	21732
885.775	21724
885.9	21831
886.025	21751
886.15	21789
886.275	21549
886.4	21667
886.525	21603
886.65	21648
886.775	21614
886.9	21774
887.025	21854
887.149	21705
887.274	21481
887.399	21542
887.523	21424
887.648	21466
887.773	21473
887.897	21530
888.021	21435
888.146	21340
888.27	21591
888.395	21622
888.519	21545
888.643	21515
888.767	21504
888.891	21393
889.015	21237
889.139	21294
889.263	21188
889.387	21363
889.511	21553
889.635	21504
889.759	21275
889.883	21313
890.006	21268
890.13	21363
890.254	21302
890.377	21211
890.501	20979
890.624	21017
890.748	21020
890.871	20925
890.995	20800
891.118	20838
891.241	20811
891.364	20800
891.488	20902
891.611	20899
891.734	20868
891.857	20800
891.98	20845
892.103	20921
892.226	20842
892.349	20914
892.471	20708
892.594	20739
892.717	20826
892.839	20804
892.962	20697
893.085	20807
893.207	20792
893.33	20613
893.452	20598
893.575	20804
893.697	20682
893.819	20914
893.941	20876
894.064	20914
894.186	20708
894.308	20739
894.43	20788
894.552	20952
894.674	20887
894.796	20598
894.918	20644
895.04	20693
895.161	20826
895.283	20678
895.405	20689
895.526	20644
895.648	20686
895.769	20739
895.891	20769
896.012	20830
896.134	20769
896.255	20727
896.376	20640
896.498	20758
896.619	20716
896.74	20727
896.861	20826
896.982	21058
897.103	21211
897.224	20933
897.345	20872
897.466	20906
897.587	20990
897.708	20998
897.828	20952
897.949	20948
898.07	20777
898.19	20895
898.311	20929
898.431	20792
898.552	20925
898.672	21070
898.792	21043
898.913	20906
899.033	20880
899.153	20625
899.273	20667
899.393	20514
899.513	20735
899.633	20731
899.753	20705
899.873	20511
899.993	20602
900.113	20629
900.232	20617
900.352	20636
900.472	20438
900.591	20393
900.711	20476
900.83	20457
900.95	20613
901.069	20480
901.189	20298
901.308	19993
901.427	19925
901.546	20069
901.665	19963
901.784	20039
901.904	19822
902.023	19734
902.141	19689
902.26	19563
902.379	19601
902.498	19457
902.617	19552
902.735	19613
902.854	19537
902.973	19358
903.091	19331
903.21	19194
903.328	19228
903.446	19053
903.565	19015
903.683	19008
903.801	18810
903.919	18901
904.038	18901
904.156	18741
904.274	18932
904.392	18726
904.51	18711
904.627	18570
904.745	18757
904.863	18711
904.981	18601
905.098	18418
905.216	18334
905.334	18532
905.451	18494
905.569	18414
905.686	18540
905.803	18414
905.921	18144
906.038	18201
906.155	18216
906.272	18068
906.389	18072
906.506	17958
906.623	17958
906.74	17935
906.857	17855
906.974	17908
907.091	17878
907.208	17977
907.324	17923
907.441	17882
907.557	17687
907.674	17615
907.79	17619
907.907	17649
908.023	17699
908.139	17718
908.256	17543
908.372	17524
908.488	17535
908.604	17360
908.72	17379
908.836	17383
908.952	17356
909.068	17410
909.184	17414
909.3	17391
909.415	17360
909.531	17440
909.647	17060
909.762	17029
909.878	17189
909.993	17162
910.108	17018
910.224	17041
910.339	17014
910.454	16828
910.57	16900
910.685	16873
910.8	17033
910.915	17033
911.03	16748
911.145	16561
911.259	16634
911.374	16607
911.489	16558
911.604	16459
911.718	16493
911.833	16371
911.947	16299
912.062	16246
912.176	16409
912.291	16428
912.405	16424
912.519	16596
912.633	16622
912.748	16371
912.862	16386
912.976	16234
913.09	16044
913.204	16162
913.318	16219
913.431	16344
913.545	16402
913.659	16265
913.772	16169
913.886	16036
914	16063
914.113	16105
914.226	16154
914.34	16078
914.453	15785
914.566	16177
914.68	15873
914.793	15854
914.906	15633
915.019	15614
915.132	15561
915.245	15538
915.358	15599
915.47	15595
915.583	15603
915.696	15660
915.809	15797
915.921	15755
916.034	15519
916.146	15393
916.259	15530
916.371	15538
916.483	15450
916.595	15523
916.708	15332
916.82	15408
916.932	15389
917.044	15363
917.156	15329
917.268	15222
917.38	15237
917.491	15218
917.603	15256
917.715	15317
917.826	15249
917.938	15146
918.049	15017
918.161	15097
918.272	15226
918.384	15287
918.495	15184
918.606	15097
918.717	14960
918.828	14982
918.939	14975
919.05	14918
919.161	14952
919.272	14823
919.383	14815
919.494	14948
919.604	15146
919.715	14967
919.826	14735
919.936	14868
920.047	15043
920.157	14994
920.267	15047
920.378	15047
920.488	14933
920.598	15188
920.708	15291
920.818	15070
920.928	15074
921.038	15119
921.148	15150
921.258	14853
921.368	14819
921.477	14701
921.587	14689
921.697	14575
921.806	14735
921.916	14469
922.025	14480
922.134	14275
922.244	14317
922.353	14240
922.462	14107
922.571	14103
922.68	14016
922.789	13967
922.898	14058
923.007	13814
923.116	14005
923.224	13860
923.333	13902
923.442	13814
923.55	13704
923.659	13830
923.767	13890
923.876	13681
923.984	13818
924.092	13677
924.201	13734
924.309	13662
924.417	13636
924.525	13499
924.633	13636
924.741	14461
924.849	13407
924.956	13540
925.064	13434
925.172	13297
925.279	13331
925.387	13304
925.494	13354
925.602	13510
925.709	13381
925.816	13236
925.924	13324
926.031	13327
926.138	13236
926.245	13274
926.352	13259
926.459	13320
926.566	13346
926.673	13213
926.779	13042
926.886	13023
926.993	12875
927.099	12947
927.206	12791
927.312	12806
927.419	12825
927.525	12837
927.631	12825
927.737	12867
927.843	12646
927.95	12623
928.056	12749
928.162	12798
928.267	12688
928.373	13152
928.479	12802
928.585	12544
928.69	12654
928.796	12654
928.901	12460
929.007	12471
929.112	12578
929.218	12502
929.323	12540
929.428	12422
929.533	12532
929.638	12365
929.743	12327
929.848	12464
929.953	12372
930.058	12254
930.163	12083
930.267	12106
930.372	12338
930.477	12114
930.581	12365
930.685	12144
930.79	11961
930.894	12015
930.998	11961
931.103	12079
931.207	11779
931.311	11577
931.415	11547
931.519	11337
931.623	11311
