Data from test_V78500241_3646.txt Node
Date: Fri Mar 25 16:07:03 CST 2022
User: usil
Spectrometer: V785-0024
Trigger mode: 0
Integration Time (sec): 4.000000E-1
Scans to average: 1
Nonlinearity correction enabled: false
Boxcar width: 0
Storing dark spectrum: false
XAxis mode: Wavelengths
Number of Pixels in Spectrum: 1024
>>>>>Begin Spectral Data<<<<<
801.071	28310
801.214	28226
801.356	27975
801.499	27797
801.641	27778
801.783	27812
801.926	27747
802.068	27675
802.211	27675
802.353	27591
802.496	27564
802.638	27382
802.78	27351
802.923	27306
803.065	27237
803.208	27359
803.35	27450
803.492	27389
803.635	27667
803.777	27485
803.919	27728
804.061	27835
804.204	27667
804.346	27614
804.488	27580
804.63	27553
804.773	27549
804.915	27671
805.057	27785
805.199	27622
805.341	27759
805.483	27739
805.626	27812
805.768	27732
805.91	27766
806.052	27778
806.194	27641
806.336	27941
806.478	27774
806.62	27781
806.762	27873
806.904	28196
807.046	28226
807.188	28352
807.33	28177
807.472	28382
807.614	28177
807.756	28150
807.898	28002
808.04	27987
808.182	27876
808.324	28150
808.465	28116
808.607	28459
808.749	28333
808.891	28538
809.033	28603
809.174	28531
809.316	28356
809.458	28493
809.6	28577
809.741	28531
809.883	28485
810.025	28733
810.166	28930
810.308	28801
810.45	28755
810.591	28634
810.733	28531
810.875	28436
811.016	28462
811.158	28322
811.299	28538
811.441	28626
811.582	28603
811.724	28451
811.865	28325
812.007	28527
812.148	28554
812.29	28424
812.431	28713
812.573	28873
812.714	28927
812.855	28991
812.997	29060
813.138	29246
813.279	29121
813.421	28949
813.562	28987
813.703	28938
813.845	28683
813.986	28443
814.127	28150
814.268	28154
814.41	28177
814.551	28322
814.692	28135
814.833	28120
814.974	28135
815.115	28246
815.256	28021
815.397	27949
815.539	28177
815.68	28059
815.821	27865
815.962	28010
816.103	27907
816.244	27876
816.385	27675
816.526	27774
816.666	27439
816.807	27458
816.948	27496
817.089	27538
817.23	27549
817.371	27450
817.512	27393
817.653	27298
817.793	27408
817.934	27332
818.075	27534
818.216	27488
818.356	27424
818.497	27355
818.638	27195
818.778	27268
818.919	27283
819.06	27226
819.2	27393
819.341	27694
819.481	27439
819.622	27496
819.762	27880
819.903	27755
820.043	27606
820.184	27682
820.324	27530
820.465	27637
820.605	27720
820.746	27622
820.886	27488
821.026	27553
821.167	27583
821.307	27557
821.447	27370
821.588	27405
821.728	27161
821.868	27108
822.008	27074
822.149	27123
822.289	26864
822.429	26788
822.569	26674
822.709	26712
822.849	26667
822.99	26480
823.13	26453
823.27	26419
823.41	26237
823.55	26084
823.69	26225
823.83	26404
823.97	26092
824.11	25966
824.25	26054
824.389	26096
824.529	26062
824.669	26058
824.809	26328
824.949	26164
825.089	26301
825.228	26195
825.368	25951
825.508	26005
825.648	26107
825.787	25944
825.927	26008
826.067	25951
826.206	25906
826.346	25989
826.485	26092
826.625	25940
826.765	26142
826.904	26081
827.044	25674
827.183	25746
827.323	25628
827.462	25704
827.601	25715
827.741	25628
827.88	25681
828.02	25727
828.159	25738
828.298	25803
828.437	25803
828.577	25609
828.716	25803
828.855	25582
828.994	25483
829.134	25202
829.273	25457
829.412	25327
829.551	25270
829.69	25365
829.829	25327
829.968	25556
830.107	25434
830.246	25324
830.385	25346
830.524	25221
830.663	25156
830.802	25080
830.941	24897
831.08	24977
831.219	25084
831.357	24977
831.496	25114
831.635	24992
831.774	24943
831.913	24905
832.051	24844
832.19	24779
832.329	24745
832.467	24791
832.606	24570
832.744	24528
832.883	24661
833.022	24604
833.16	24665
833.299	24753
833.437	24639
833.576	24684
833.714	24825
833.852	24646
833.991	24760
834.129	24859
834.267	24741
834.406	24677
834.544	24768
834.682	24764
834.821	24692
834.959	24848
835.097	24646
835.235	24703
835.373	24730
835.511	24654
835.65	24528
835.788	24593
835.926	24448
836.064	24445
836.202	24277
836.34	24616
836.478	24566
836.615	24433
836.753	24464
836.891	24563
837.029	24566
837.167	24437
837.305	24490
837.443	24479
837.58	24418
837.718	24475
837.856	24388
837.993	24410
838.131	24429
838.269	24296
838.406	24334
838.544	24247
838.681	24034
838.819	23916
838.956	23882
839.094	23771
839.231	23969
839.369	24057
839.506	24315
839.643	23999
839.781	23832
839.918	23874
840.055	23939
840.193	23828
840.33	23748
840.467	23764
840.604	23691
840.742	24026
840.879	23471
841.016	23703
841.153	23668
841.29	23840
841.427	23786
841.564	23790
841.701	23786
841.838	23676
841.975	23699
842.112	23604
842.249	23589
842.385	23600
842.522	23760
842.659	23501
842.796	23425
842.933	23596
843.069	23528
843.206	23554
843.343	23566
843.479	23421
843.616	23353
843.752	23315
843.889	23265
844.025	23334
844.162	23200
844.298	23429
844.435	23326
844.571	23254
844.708	23277
844.844	23512
844.98	23520
845.117	23334
845.253	23307
845.389	23330
845.525	23075
845.661	23151
845.798	23022
845.934	23181
846.07	23033
846.206	23117
846.342	23136
846.478	22980
846.614	22668
846.75	22744
846.886	22763
847.022	22778
847.158	22717
847.294	22805
847.429	22748
847.565	22733
847.701	22900
847.837	22535
847.972	22447
848.108	22554
848.244	22584
848.379	22352
848.515	22386
848.65	22295
848.786	22417
848.921	22459
849.057	22466
849.192	22405
849.328	22322
849.463	22405
849.598	22200
849.734	22284
849.869	22124
850.004	22150
850.14	22207
850.275	22090
850.41	22063
850.545	22059
850.68	22135
850.815	22078
850.95	22105
851.085	22344
851.22	22234
851.355	22055
851.49	22097
851.625	21956
851.76	22040
851.895	22162
852.03	22078
852.165	22109
852.299	22116
852.434	22154
852.569	22112
852.703	21987
852.838	22067
852.973	22215
853.107	22249
853.242	22090
853.376	21975
853.511	21793
853.645	21865
853.78	22185
853.914	21998
854.048	21937
854.183	21880
854.317	22036
854.451	22025
854.585	21903
854.72	21953
854.854	22017
854.988	21846
855.122	22006
855.256	21804
855.39	21987
855.524	22116
855.658	21975
855.792	21960
855.926	22029
856.06	21994
856.194	22051
856.327	21987
856.461	21770
856.595	21926
856.729	21945
856.862	22006
856.996	21998
857.13	21987
857.263	22006
857.397	22120
857.53	21915
857.664	22036
857.797	22067
857.931	22188
858.064	22010
858.197	21979
858.331	21907
858.464	21972
858.597	21922
858.731	21903
858.864	21842
858.997	21930
859.13	21960
859.263	21930
859.396	21956
859.529	21949
859.662	21918
859.795	21998
859.928	21998
860.061	22029
860.194	22135
860.327	22150
860.46	21945
860.592	22120
860.725	22051
860.858	22143
860.99	22048
861.123	21838
861.256	21956
861.388	21953
861.521	22710
861.653	21804
861.786	21720
861.918	21827
862.05	21884
862.183	21850
862.315	21892
862.447	22002
862.58	21819
862.712	21614
862.844	21614
862.976	21755
863.108	21732
863.24	22139
863.372	21530
863.504	21610
863.636	21576
863.768	21717
863.9	21682
864.032	21637
864.164	21625
864.296	21728
864.428	21705
864.559	21610
864.691	21854
864.823	21656
864.954	21751
865.086	21591
865.217	21595
865.349	21389
865.48	21526
865.612	21511
865.743	21770
865.875	21515
866.006	21500
866.137	21549
866.269	21595
866.4	21591
866.531	21595
866.662	21534
866.793	21481
866.924	21382
867.055	21500
867.186	21606
867.317	21389
867.448	21348
867.579	21359
867.71	21355
867.841	21435
867.972	21504
868.103	21450
868.233	21557
868.364	21523
868.495	21591
868.625	21679
868.756	21812
868.886	21622
869.017	21724
869.147	21854
869.278	21831
869.408	21774
869.539	21800
869.669	21865
869.799	21827
869.929	21869
870.06	21778
870.19	22002
870.32	22078
870.45	22116
870.58	22093
870.71	22215
870.84	22249
870.97	22166
871.1	22181
871.23	22234
871.36	22318
871.489	22325
871.619	22272
871.749	22371
871.879	22493
872.008	22451
872.138	22257
872.267	22322
872.397	22287
872.526	22169
872.656	22181
872.785	22181
872.915	22341
873.044	22462
873.173	22409
873.303	22402
873.432	22185
873.561	22379
873.69	22325
873.819	22386
873.948	22470
874.077	22337
874.206	22333
874.335	22409
874.464	22508
874.593	22519
874.722	22557
874.851	22504
874.979	22603
875.108	22660
875.237	22470
875.365	22459
875.494	22516
875.623	22561
875.751	22481
875.88	22573
876.008	22713
876.136	22782
876.265	23037
876.393	23079
876.521	23105
876.65	23102
876.778	22957
876.906	23014
877.034	22919
877.162	22892
877.29	22965
877.418	22862
877.546	22961
877.674	22911
877.802	22946
877.93	22995
878.058	22843
878.185	22790
878.313	22797
878.441	22938
878.568	22702
878.696	22877
878.824	22892
878.951	23018
879.079	23280
879.206	23105
879.333	23052
879.461	23022
879.588	23003
879.715	23079
879.842	23288
879.97	22987
880.097	22672
880.224	22675
880.351	22805
880.478	22797
880.605	22744
880.732	22778
880.859	22953
880.986	22675
881.112	22752
881.239	22459
881.366	22512
881.493	22417
881.619	22352
881.746	22310
881.872	22295
881.999	22287
882.125	22276
882.252	22360
882.378	22265
882.505	22421
882.631	22139
882.757	22116
882.883	22112
883.01	22086
883.136	21949
883.262	21869
883.388	21816
883.514	22078
883.64	22070
883.766	21876
883.892	21603
884.018	21899
884.143	21964
884.269	22070
884.395	21785
884.52	21610
884.646	21675
884.772	21504
884.897	21587
885.023	21587
885.148	21774
885.274	21743
885.399	21770
885.524	21542
885.65	21618
885.775	21747
885.9	21629
886.025	21686
886.15	21713
886.275	21519
886.4	21557
886.525	21557
886.65	21606
886.775	21500
886.9	21755
887.025	21720
887.149	21568
887.274	21367
887.399	21481
887.523	21397
887.648	21207
887.773	21336
887.897	21481
888.021	21397
888.146	21237
888.27	21473
888.395	21496
888.519	21500
888.643	21378
888.767	21397
888.891	21389
889.015	21184
889.139	21279
889.263	21127
889.387	21367
889.511	21359
889.635	21199
889.759	21096
889.883	21272
890.006	21249
890.13	21291
890.254	20986
890.377	21142
890.501	21051
890.624	20941
890.748	21001
890.871	20921
890.995	20651
891.118	20686
891.241	20762
891.364	20693
891.488	20731
891.611	20765
891.734	20777
891.857	20686
891.98	20830
892.103	20910
892.226	20716
892.349	20682
892.471	20454
892.594	20724
892.717	20636
892.839	20609
892.962	20716
893.085	20754
893.207	20678
893.33	20526
893.452	20579
893.575	20621
893.697	20621
893.819	20914
893.941	20967
894.064	20746
894.186	20606
894.308	20549
894.43	20739
894.552	20705
894.674	20785
894.796	20602
894.918	20609
895.04	20549
895.161	20686
895.283	20587
895.405	20511
895.526	20598
895.648	20552
895.769	20670
895.891	20621
896.012	20678
896.134	20651
896.255	20648
896.376	20575
896.498	20587
896.619	20644
896.74	20651
896.861	20724
896.982	20948
897.103	21047
897.224	20937
897.345	20872
897.466	20826
897.587	20868
897.708	21051
897.828	20876
897.949	20804
898.07	20724
898.19	20758
898.311	20891
898.431	20693
898.552	20807
898.672	20895
898.792	20883
898.913	20781
899.033	20838
899.153	20640
899.273	20571
899.393	20621
899.513	20609
899.633	20648
899.753	20678
899.873	20689
899.993	20587
900.113	20545
900.232	20609
900.352	20511
900.472	20446
900.591	20370
900.711	20381
900.83	20377
900.95	20389
901.069	20278
901.189	20286
901.308	20046
901.427	19959
901.546	19955
901.665	20065
901.784	19845
901.904	19887
902.023	19837
902.141	19510
902.26	19476
902.379	19567
902.498	19559
902.617	19407
902.735	19483
902.854	19464
902.973	19327
903.091	19061
903.21	19152
903.328	19198
903.446	19019
903.565	19027
903.683	18890
903.801	18875
903.919	18935
904.038	18920
904.156	18673
904.274	18741
904.392	18730
904.51	18650
904.627	18677
904.745	18795
904.863	18749
904.981	18460
905.098	18486
905.216	18448
905.334	18353
905.451	18334
905.569	18357
905.686	18338
905.803	18391
905.921	18117
906.038	18273
906.155	18190
906.272	18030
906.389	18030
906.506	17851
906.623	17931
906.74	17912
906.857	17870
906.974	17828
907.091	17916
907.208	18064
907.324	17889
907.441	17805
907.557	17710
907.674	17570
907.79	17551
907.907	17589
908.023	17653
908.139	17558
908.256	17493
908.372	17421
908.488	17505
908.604	17436
908.72	17391
908.836	17341
908.952	17292
909.068	17330
909.184	17414
909.3	17414
909.415	17330
909.531	17330
909.647	17105
909.762	16885
909.878	16961
909.993	16999
910.108	17060
910.224	16835
910.339	17174
910.454	16763
910.57	16911
910.685	16733
910.8	16961
910.915	16911
911.03	16755
911.145	16538
911.259	16637
911.374	16634
911.489	16504
911.604	16409
911.718	16428
911.833	16360
911.947	16303
912.062	16223
912.176	16394
912.291	16333
912.405	16284
912.519	16580
912.633	16577
912.748	16367
912.862	16280
912.976	16246
913.09	16055
913.204	16128
913.318	16093
913.431	16215
913.545	16284
913.659	16314
913.772	16139
913.886	16002
914	15960
914.113	16040
914.226	16101
914.34	15953
914.453	15907
914.566	16006
914.68	15827
914.793	15945
914.906	15698
915.019	15557
915.132	15530
915.245	15614
915.358	15519
915.47	15603
915.583	15492
915.696	15515
915.809	15568
915.921	15595
916.034	15378
916.146	15405
916.259	15473
916.371	15504
916.483	15542
916.595	15431
916.708	15386
916.82	15416
916.932	15310
917.044	15355
917.156	15351
917.268	15195
917.38	15195
917.491	15233
917.603	15226
917.715	15249
917.826	15214
917.938	15173
918.049	15032
918.161	15116
918.272	15256
918.384	15218
918.495	15135
918.606	15024
918.717	14929
918.828	14990
918.939	14994
919.05	14823
919.161	14876
919.272	14746
919.383	14788
919.494	14895
919.604	15150
919.715	14944
919.826	14746
919.936	14868
920.047	15001
920.157	14876
920.267	15066
920.378	14910
920.488	14849
920.598	14979
920.708	15150
920.818	14952
920.928	15032
921.038	15138
921.148	15176
921.258	14876
921.368	14785
921.477	14670
921.587	14564
921.697	14469
921.806	14674
921.916	14495
922.025	14294
922.134	14294
922.244	14225
922.353	14229
922.462	14157
922.571	14039
922.68	13898
922.789	13871
922.898	14035
923.007	13761
923.116	14012
923.224	13898
923.333	13830
923.442	13746
923.55	13712
923.659	13624
923.767	13830
923.876	13746
923.984	13734
924.092	13738
924.201	13647
924.309	13696
924.417	13628
924.525	13632
924.633	13480
924.741	14507
924.849	13327
924.956	13476
925.064	13331
925.172	13209
925.279	13282
925.387	13282
925.494	13350
925.602	13430
925.709	13350
925.816	13145
925.924	13164
926.031	13327
926.138	13217
926.245	13301
926.352	13217
926.459	13217
926.566	13346
926.673	13095
926.779	13031
926.886	13084
926.993	12871
927.099	12837
927.206	12825
927.312	12791
927.419	12916
927.525	12802
927.631	12897
927.737	12810
927.843	12700
927.95	12551
928.056	12604
928.162	12677
928.267	12688
928.373	13282
928.479	12719
928.585	12532
928.69	12662
928.796	12646
928.901	12544
929.007	12361
929.112	12506
929.218	12513
929.323	12445
929.428	12460
929.533	12506
929.638	12330
929.743	12441
929.848	12395
929.953	12315
930.058	12209
930.163	12057
930.267	12038
930.372	12133
930.477	12019
930.581	12235
930.685	12110
930.79	11874
930.894	12007
930.998	11897
931.103	12072
931.207	11756
931.311	11585
931.415	11505
931.519	11414
931.623	11398
