Data from test_V78500241_3295.txt Node
Date: Fri Mar 25 16:04:37 CST 2022
User: usil
Spectrometer: V785-0024
Trigger mode: 0
Integration Time (sec): 4.000000E-1
Scans to average: 1
Nonlinearity correction enabled: false
Boxcar width: 0
Storing dark spectrum: false
XAxis mode: Wavelengths
Number of Pixels in Spectrum: 1024
>>>>>Begin Spectral Data<<<<<
801.071	28938
801.214	28862
801.356	28626
801.499	28641
801.641	28447
801.783	28550
801.926	28405
802.068	28493
802.211	28398
802.353	28333
802.496	28276
802.638	28093
802.78	28162
802.923	28036
803.065	28101
803.208	28055
803.35	28401
803.492	28253
803.635	28481
803.777	28440
803.919	28379
804.061	28729
804.204	28493
804.346	28409
804.488	28398
804.63	28329
804.773	28356
804.915	28428
805.057	28588
805.199	28379
805.341	28497
805.483	28519
805.626	28557
805.768	28462
805.91	28474
806.052	28588
806.194	28356
806.336	28717
806.478	28485
806.62	28634
806.762	28824
806.904	28869
807.046	29090
807.188	29052
807.33	29037
807.472	29246
807.614	28968
807.756	29185
807.898	28858
808.04	28656
808.182	28710
808.324	28938
808.465	28908
808.607	29181
808.749	29231
808.891	29471
809.033	29383
809.174	29471
809.316	29322
809.458	29345
809.6	29261
809.741	29364
809.883	29425
810.025	29471
810.166	29528
810.308	29707
810.45	29531
810.591	29512
810.733	29364
810.875	29296
811.016	29254
811.158	29227
811.299	29433
811.441	29345
811.582	29474
811.724	29239
811.865	29311
812.007	29395
812.148	29315
812.29	29436
812.431	29604
812.573	29680
812.714	29771
812.855	29767
812.997	29904
813.138	30057
813.279	30030
813.421	29802
813.562	29722
813.703	29729
813.845	29668
813.986	29277
814.127	29220
814.268	29006
814.41	29064
814.551	29041
814.692	29105
814.833	29041
814.974	28976
815.115	29075
815.256	29071
815.397	28885
815.539	28805
815.68	28847
815.821	28782
815.962	28957
816.103	28812
816.244	28577
816.385	28664
816.526	28508
816.666	28436
816.807	28223
816.948	28394
817.089	28459
817.23	28462
817.371	28382
817.512	28390
817.653	28306
817.793	28379
817.934	28295
818.075	28360
818.216	28394
818.356	28268
818.497	28150
818.638	28059
818.778	28261
818.919	28097
819.06	28112
819.2	28249
819.341	28341
819.481	28405
819.622	28565
819.762	28641
819.903	28603
820.043	28580
820.184	28504
820.324	28516
820.465	28683
820.605	28428
820.746	28436
820.886	28394
821.026	28508
821.167	28489
821.307	28615
821.447	28546
821.588	28329
821.728	28169
821.868	27960
822.008	27892
822.149	27880
822.289	27797
822.429	27583
822.569	27485
822.709	27519
822.849	27462
822.99	27424
823.13	27386
823.27	27252
823.41	27077
823.55	27184
823.69	27150
823.83	27302
823.97	27089
824.11	27047
824.25	27058
824.389	26834
824.529	27123
824.669	27047
824.809	27005
824.949	27150
825.089	27032
825.228	27013
825.368	27043
825.508	26944
825.648	26929
825.787	26868
825.927	26933
826.067	26853
826.206	26861
826.346	26933
826.485	26963
826.625	26720
826.765	27146
826.904	26933
827.044	26689
827.183	26579
827.323	26560
827.462	26667
827.601	26689
827.741	26617
827.88	26651
828.02	26602
828.159	26446
828.298	26765
828.437	26655
828.577	26545
828.716	26678
828.855	26453
828.994	26298
829.134	26339
829.273	26400
829.412	26476
829.551	26218
829.69	26317
829.829	26450
829.968	26370
830.107	26377
830.246	26275
830.385	26324
830.524	26081
830.663	26278
830.802	26058
830.941	26107
831.08	25906
831.219	26096
831.357	25936
831.496	26153
831.635	25879
831.774	25826
831.913	25894
832.051	25826
832.19	25666
832.329	25715
832.467	25700
832.606	25578
832.744	25605
832.883	25628
833.022	25643
833.16	25597
833.299	25681
833.437	25696
833.576	25639
833.714	25738
833.852	25750
833.991	25666
834.129	25715
834.267	25784
834.406	25769
834.544	25696
834.682	25704
834.821	25567
834.959	25887
835.097	25681
835.235	25685
835.373	25662
835.511	25666
835.65	25506
835.788	25552
835.926	25438
836.064	25540
836.202	25293
836.34	25483
836.478	25616
836.615	25499
836.753	25582
836.891	25537
837.029	25472
837.167	25495
837.305	25373
837.443	25434
837.58	25301
837.718	25346
837.856	25403
837.993	25324
838.131	25365
838.269	25320
838.406	25225
838.544	25141
838.681	25012
838.819	25000
838.956	24901
839.094	24772
839.231	24886
839.369	24973
839.506	25247
839.643	25031
839.781	24825
839.918	24901
840.055	24707
840.193	24814
840.33	24711
840.467	24890
840.604	24768
840.742	24985
840.879	24544
841.016	24635
841.153	24635
841.29	24817
841.427	24711
841.564	24582
841.701	24696
841.838	24646
841.975	24555
842.112	24532
842.249	24551
842.385	24445
842.522	24673
842.659	24593
842.796	24525
842.933	24414
843.069	24372
843.206	24502
843.343	24437
843.479	24471
843.616	24441
843.752	24190
843.889	24186
844.025	24327
844.162	24121
844.298	24365
844.435	24395
844.571	24197
844.708	24213
844.844	24407
844.98	24304
845.117	24308
845.253	24098
845.389	24102
845.525	24228
845.661	23946
845.798	24026
845.934	24148
846.07	23950
846.206	24003
846.342	24091
846.478	23904
846.614	23726
846.75	23676
846.886	23756
847.022	23608
847.158	23687
847.294	23657
847.429	23805
847.565	23619
847.701	23992
847.837	23425
847.972	23452
848.108	23524
848.244	23417
848.379	23330
848.515	23223
848.65	23345
848.786	23212
848.921	23326
849.057	23288
849.192	23277
849.328	23303
849.463	23292
849.598	23265
849.734	23178
849.869	23151
850.004	23090
850.14	23113
850.275	23006
850.41	22930
850.545	22938
850.68	23140
850.815	22957
850.95	22957
851.085	23273
851.22	23269
851.355	22957
851.49	23083
851.625	23022
851.76	22987
851.895	22889
852.03	22877
852.165	23079
852.299	23041
852.434	23102
852.569	23132
852.703	22968
852.838	23102
852.973	23075
853.107	23162
853.242	23083
853.376	22828
853.511	22805
853.645	22771
853.78	22869
853.914	22816
854.048	22824
854.183	22839
854.317	22858
854.451	23079
854.585	22812
854.72	22850
854.854	22850
854.988	22816
855.122	22908
855.256	22786
855.39	22862
855.524	22892
855.658	22953
855.792	22999
855.926	22801
856.06	22904
856.194	22904
856.327	22782
856.461	22812
856.595	22801
856.729	22828
856.862	23041
856.996	22889
857.13	22976
857.263	22858
857.397	22896
857.53	22847
857.664	22866
857.797	22915
857.931	22919
858.064	22850
858.197	22900
858.331	22767
858.464	22687
858.597	22679
858.731	22828
858.864	22881
858.997	22805
859.13	22980
859.263	22854
859.396	23056
859.529	22889
859.662	22809
859.795	22923
859.928	22847
860.061	22991
860.194	22923
860.327	22953
860.46	22881
860.592	23010
860.725	22896
860.858	22961
860.99	22816
861.123	22713
861.256	22771
861.388	22801
861.521	23509
861.653	22710
861.786	22615
861.918	22660
862.05	22660
862.183	22767
862.315	22801
862.447	22908
862.58	22748
862.712	22478
862.844	22573
862.976	22653
863.108	22637
863.24	23090
863.372	22607
863.504	22565
863.636	22649
863.768	22516
863.9	22489
864.032	22466
864.164	22500
864.296	22577
864.428	22634
864.559	22668
864.691	22675
864.823	22580
864.954	22607
865.086	22565
865.217	22451
865.349	22318
865.48	22390
865.612	22424
865.743	22519
865.875	22318
866.006	22405
866.137	22371
866.269	22371
866.4	22314
866.531	22402
866.662	22382
866.793	22322
866.924	22303
867.055	22394
867.186	22443
867.317	22379
867.448	22348
867.579	22230
867.71	22432
867.841	22314
867.972	22379
868.103	22249
868.233	22371
868.364	22341
868.495	22618
868.625	22626
868.756	22740
868.886	22588
869.017	22634
869.147	22698
869.278	22691
869.408	22679
869.539	22607
869.669	22675
869.799	22622
869.929	22755
870.06	22694
870.19	22843
870.32	22957
870.45	22965
870.58	23083
870.71	23117
870.84	23162
870.97	22991
871.1	23006
871.23	23140
871.36	23147
871.489	23064
871.619	23151
871.749	23235
871.879	23292
872.008	23292
872.138	23155
872.267	23181
872.397	23117
872.526	23037
872.656	22995
872.785	23010
872.915	23239
873.044	23258
873.173	23128
873.303	23372
873.432	23254
873.561	23303
873.69	23189
873.819	23162
873.948	23273
874.077	23204
874.206	23121
874.335	23299
874.464	23242
874.593	23360
874.722	23322
874.851	23455
874.979	23459
875.108	23524
875.237	23349
875.365	23299
875.494	23482
875.623	23493
875.751	23406
875.88	23471
876.008	23520
876.136	23531
876.265	23935
876.393	23843
876.521	23908
876.65	23874
876.778	23794
876.906	23893
877.034	23752
877.162	23760
877.29	23775
877.418	23809
877.546	23634
877.674	23710
877.802	23798
877.93	23653
878.058	23657
878.185	23623
878.313	23748
878.441	23741
878.568	23524
878.696	23611
878.824	23741
878.951	23783
879.079	24049
879.206	24053
879.333	23843
879.461	23726
879.588	23859
879.715	23984
879.842	24095
879.97	23805
880.097	23573
880.224	23642
880.351	23562
880.478	23452
880.605	23596
880.732	23581
880.859	23680
880.986	23634
881.112	23528
881.239	23463
881.366	23239
881.493	23250
881.619	23079
881.746	23235
881.872	23265
881.999	23166
882.125	23121
882.252	23181
882.378	23094
882.505	23094
882.631	23033
882.757	22915
882.883	22869
883.01	22782
883.136	22774
883.262	22713
883.388	22634
883.514	22759
883.64	22717
883.766	22664
883.892	22508
884.018	22615
884.143	22725
884.269	22812
884.395	22417
884.52	22306
884.646	22402
884.772	22356
884.897	22375
885.023	22367
885.148	22656
885.274	22538
885.399	22485
885.524	22474
885.65	22554
885.775	22390
885.9	22367
886.025	22535
886.15	22519
886.275	22413
886.4	22314
886.525	22432
886.65	22379
886.775	22386
886.9	22504
887.025	22554
887.149	22234
887.274	22303
887.399	22276
887.523	22196
887.648	22185
887.773	22124
887.897	22329
888.021	22162
888.146	22147
888.27	22200
888.395	22162
888.519	22246
888.643	22169
888.767	22291
888.891	22036
889.015	21972
889.139	22101
889.263	22086
889.387	22276
889.511	22215
889.635	22040
889.759	21945
889.883	21991
890.006	21838
890.13	22021
890.254	21991
890.377	21846
890.501	21808
890.624	21656
890.748	21827
890.871	21526
890.995	21549
891.118	21477
891.241	21504
891.364	21564
891.488	21603
891.611	21458
891.734	21534
891.857	21545
891.98	21454
892.103	21523
892.226	21477
892.349	21348
892.471	21165
892.594	21386
892.717	21435
892.839	21401
892.962	21370
893.085	21485
893.207	21523
893.33	21325
893.452	21367
893.575	21367
893.697	21416
893.819	21542
893.941	21610
894.064	21591
894.186	21359
894.308	21424
894.43	21481
894.552	21564
894.674	21504
894.796	21298
894.918	21378
895.04	21370
895.161	21458
895.283	21492
895.405	21321
895.526	21329
895.648	21454
895.769	21485
895.891	21428
896.012	21496
896.134	21401
896.255	21355
896.376	21416
896.498	21256
896.619	21405
896.74	21344
896.861	21492
896.982	21538
897.103	21922
897.224	21816
897.345	21656
897.466	21523
897.587	21629
897.708	21686
897.828	21644
897.949	21515
898.07	21374
898.19	21458
898.311	21629
898.431	21405
898.552	21633
898.672	21622
898.792	21637
898.913	21587
899.033	21507
899.153	21329
899.273	21306
899.393	21287
899.513	21363
899.633	21287
899.753	21378
899.873	21291
899.993	21462
900.113	21108
900.232	21104
900.352	21142
900.472	21104
900.591	20971
900.711	21112
900.83	20941
900.95	21237
901.069	21020
901.189	20971
901.308	20712
901.427	20533
901.546	20667
901.665	20678
901.784	20609
901.904	20469
902.023	20309
902.141	20130
902.26	20271
902.379	20210
902.498	20065
902.617	20115
902.735	20206
902.854	20043
902.973	20081
903.091	19811
903.21	19776
903.328	19769
903.446	19666
903.565	19674
903.683	19628
903.801	19449
903.919	19419
904.038	19571
904.156	19434
904.274	19350
904.392	19266
904.51	19282
904.627	19187
904.745	19403
904.863	19358
904.981	19141
905.098	18935
905.216	18962
905.334	19053
905.451	19034
905.569	18985
905.686	19088
905.803	18958
905.921	18802
906.038	18878
906.155	18776
906.272	18658
906.389	18627
906.506	18471
906.623	18467
906.74	18506
906.857	18448
906.974	18437
907.091	18597
907.208	18642
907.324	18460
907.441	18471
907.557	18281
907.674	18197
907.79	18296
907.907	18281
908.023	18216
908.139	18190
908.256	18076
908.372	18213
908.488	18133
908.604	18038
908.72	17920
908.836	18060
908.952	17931
909.068	17912
909.184	17969
909.3	17878
909.415	17999
909.531	17942
909.647	17661
909.762	17623
909.878	17695
909.993	17741
910.108	17596
910.224	17596
910.339	17570
910.454	17463
910.57	17501
910.685	17353
910.8	17585
910.915	17539
911.03	17334
911.145	17223
911.259	17258
911.374	17181
911.489	17136
911.604	17060
911.718	16972
911.833	16957
911.947	16900
912.062	16877
912.176	16995
912.291	16881
912.405	16953
912.519	17056
912.633	17041
912.748	17060
912.862	16915
912.976	16767
913.09	16694
913.204	16759
913.318	16615
913.431	16816
913.545	16831
913.659	16786
913.772	16694
913.886	16584
914	16485
914.113	16531
914.226	16637
914.34	16527
914.453	16390
914.566	16508
914.68	16371
914.793	16291
914.906	16169
915.019	16112
915.132	16139
915.245	16177
915.358	16032
915.47	15983
915.583	16078
915.696	16082
915.809	16249
915.921	16177
916.034	15975
916.146	16124
916.259	15926
916.371	16048
916.483	16010
916.595	15930
916.708	15895
916.82	15892
916.932	15808
917.044	15907
917.156	15884
917.268	15759
917.38	15698
917.491	15690
917.603	15663
917.715	15770
917.826	15854
917.938	15637
918.049	15584
918.161	15591
918.272	15827
918.384	15819
918.495	15606
918.606	15557
918.717	15363
918.828	15450
918.939	15488
919.05	15310
919.161	15336
919.272	15287
919.383	15264
919.494	15477
919.604	15606
919.715	15492
919.826	15245
919.936	15389
920.047	15595
920.157	15412
920.267	15603
920.378	15367
920.488	15298
920.598	15519
920.708	15652
920.818	15561
920.928	15431
921.038	15568
921.148	15660
921.258	15222
921.368	15260
921.477	15173
921.587	15131
921.697	14952
921.806	15047
921.916	15001
922.025	14746
922.134	14872
922.244	14754
922.353	14811
922.462	14598
922.571	14530
922.68	14404
922.789	14408
922.898	14431
923.007	14385
923.116	14393
923.224	14320
923.333	14313
923.442	14237
923.55	14214
923.659	14233
923.767	14286
923.876	14134
923.984	14161
924.092	13997
924.201	14168
924.309	14058
924.417	14020
924.525	13967
924.633	14050
924.741	14716
924.849	13791
924.956	13967
925.064	13852
925.172	13708
925.279	13696
925.387	13761
925.494	13715
925.602	13845
925.709	13845
925.816	13655
925.924	13746
926.031	13784
926.138	13693
926.245	13700
926.352	13548
926.459	13601
926.566	13708
926.673	13559
926.779	13480
926.886	13502
926.993	13293
927.099	13282
927.206	13244
927.312	13164
927.419	13247
927.525	13377
927.631	13312
927.737	13232
927.843	13171
927.95	13031
928.056	13053
928.162	13141
928.267	13217
928.373	13651
928.479	13206
928.585	12985
928.69	12962
928.796	13042
928.901	12932
929.007	12844
929.112	12935
929.218	12856
929.323	12856
929.428	12753
929.533	12924
929.638	12658
929.743	12764
929.848	12783
929.953	12749
930.058	12570
930.163	12407
930.267	12483
930.372	12593
930.477	12410
930.581	12654
930.685	12498
930.79	12300
930.894	12399
930.998	12311
931.103	12490
931.207	12068
931.311	12030
931.415	11912
931.519	11695
931.623	11665
