Data from test_V78500241_3644.txt Node
Date: Fri Mar 25 16:07:02 CST 2022
User: usil
Spectrometer: V785-0024
Trigger mode: 0
Integration Time (sec): 4.000000E-1
Scans to average: 1
Nonlinearity correction enabled: false
Boxcar width: 0
Storing dark spectrum: false
XAxis mode: Wavelengths
Number of Pixels in Spectrum: 1024
>>>>>Begin Spectral Data<<<<<
801.071	28154
801.214	28219
801.356	27808
801.499	27914
801.641	27743
801.783	27781
801.926	27831
802.068	27713
802.211	27724
802.353	27679
802.496	27427
802.638	27382
802.78	27351
802.923	27317
803.065	27275
803.208	27260
803.35	27386
803.492	27515
803.635	27606
803.777	27564
803.919	27690
804.061	27907
804.204	27618
804.346	27450
804.488	27564
804.63	27534
804.773	27610
804.915	27675
805.057	27880
805.199	27667
805.341	27747
805.483	27682
805.626	27876
805.768	27606
805.91	27800
806.052	27724
806.194	27762
806.336	27945
806.478	27884
806.62	27766
806.762	27842
806.904	28097
807.046	28150
807.188	28230
807.33	28101
807.472	28280
807.614	28192
807.756	28306
807.898	28048
808.04	27983
808.182	28101
808.324	28029
808.465	28219
808.607	28234
808.749	28382
808.891	28546
809.033	28481
809.174	28497
809.316	28607
809.458	28504
809.6	28360
809.741	28413
809.883	28683
810.025	28603
810.166	28740
810.308	28805
810.45	28702
810.591	28622
810.733	28379
810.875	28485
811.016	28253
811.158	28284
811.299	28367
811.441	28603
811.582	28542
811.724	28417
811.865	28459
812.007	28622
812.148	28462
812.29	28455
812.431	28565
812.573	28786
812.714	29022
812.855	28869
812.997	28957
813.138	29136
813.279	28972
813.421	28888
813.562	28995
813.703	28801
813.845	28710
813.986	28306
814.127	28325
814.268	28154
814.41	28211
814.551	28204
814.692	28280
814.833	28200
814.974	28101
815.115	28055
815.256	28002
815.397	28032
815.539	28067
815.68	27895
815.821	27888
815.962	27987
816.103	27991
816.244	27991
816.385	27660
816.526	27618
816.666	27515
816.807	27458
816.948	27545
817.089	27545
817.23	27507
817.371	27454
817.512	27427
817.653	27454
817.793	27302
817.934	27466
818.075	27477
818.216	27614
818.356	27458
818.497	27272
818.638	27184
818.778	27100
818.919	27233
819.06	27321
819.2	27405
819.341	27473
819.481	27344
819.622	27591
819.762	27884
819.903	27739
820.043	27698
820.184	27610
820.324	27663
820.465	27641
820.605	27618
820.746	27576
820.886	27427
821.026	27488
821.167	27553
821.307	27595
821.447	27389
821.588	27336
821.728	27123
821.868	27089
822.008	27081
822.149	26872
822.289	26872
822.429	26564
822.569	26549
822.709	26720
822.849	26568
822.99	26453
823.13	26381
823.27	26393
823.41	26218
823.55	26164
823.69	26438
823.83	26225
823.97	26278
824.11	26134
824.25	26180
824.389	26031
824.529	26103
824.669	26100
824.809	26191
824.949	26263
825.089	25989
825.228	26187
825.368	26039
825.508	25883
825.648	26020
825.787	25883
825.927	25928
826.067	25959
826.206	25906
826.346	26046
826.485	26157
826.625	25849
826.765	26012
826.904	26027
827.044	25807
827.183	25639
827.323	25655
827.462	25639
827.601	25803
827.741	25700
827.88	25738
828.02	25563
828.159	25620
828.298	25715
828.437	25845
828.577	25590
828.716	25757
828.855	25616
828.994	25453
829.134	25362
829.273	25384
829.412	25274
829.551	25266
829.69	25403
829.829	25434
829.968	25441
830.107	25392
830.246	25358
830.385	25324
830.524	25278
830.663	25095
830.802	25031
830.941	24913
831.08	24913
831.219	25217
831.357	25061
831.496	25206
831.635	25023
831.774	24844
831.913	24894
832.051	24711
832.19	24726
832.329	24684
832.467	24654
832.606	24677
832.744	24623
832.883	24658
833.022	24570
833.16	24582
833.299	24749
833.437	24738
833.576	24726
833.714	24688
833.852	24734
833.991	24757
834.129	24806
834.267	24783
834.406	24696
834.544	24707
834.682	24753
834.821	24684
834.959	24996
835.097	24585
835.235	24642
835.373	24631
835.511	24677
835.65	24631
835.788	24513
835.926	24471
836.064	24235
836.202	24296
836.34	24578
836.478	24684
836.615	24426
836.753	24486
836.891	24635
837.029	24555
837.167	24433
837.305	24433
837.443	24266
837.58	24388
837.718	24460
837.856	24502
837.993	24308
838.131	24350
838.269	24186
838.406	24266
838.544	24114
838.681	24041
838.819	24144
838.956	23832
839.094	23794
839.231	23805
839.369	23980
839.506	24163
839.643	24011
839.781	23802
839.918	23805
840.055	23748
840.193	23912
840.33	23703
840.467	23817
840.604	23847
840.742	24038
840.879	23668
841.016	23771
841.153	23745
841.29	23859
841.427	23710
841.564	23813
841.701	23783
841.838	23726
841.975	23649
842.112	23592
842.249	23528
842.385	23520
842.522	23786
842.659	23562
842.796	23539
842.933	23566
843.069	23414
843.206	23459
843.343	23589
843.479	23501
843.616	23512
843.752	23239
843.889	23265
844.025	23440
844.162	23250
844.298	23436
844.435	23330
844.571	23098
844.708	23345
844.844	23277
844.98	23471
845.117	23372
845.253	23334
845.389	23060
845.525	23231
845.661	23170
845.798	22995
845.934	23151
846.07	23067
846.206	23067
846.342	23113
846.478	22919
846.614	22755
846.75	22733
846.886	22698
847.022	22744
847.158	22713
847.294	22710
847.429	22820
847.565	22675
847.701	23022
847.837	22550
847.972	22440
848.108	22577
848.244	22538
848.379	22306
848.515	22295
848.65	22249
848.786	22284
848.921	22318
849.057	22382
849.192	22443
849.328	22223
849.463	22196
849.598	22303
849.734	22207
849.869	22223
850.004	22105
850.14	22185
850.275	22093
850.41	22086
850.545	22040
850.68	22010
850.815	22101
850.95	22048
851.085	22363
851.22	22188
851.355	22185
851.49	22021
851.625	22109
851.76	22078
851.895	22059
852.03	21949
852.165	22021
852.299	22162
852.434	22124
852.569	22109
852.703	22112
852.838	22139
852.973	22249
853.107	22223
853.242	22166
853.376	21876
853.511	21888
853.645	21987
853.78	22006
853.914	21903
854.048	21994
854.183	21892
854.317	21854
854.451	22116
854.585	21895
854.72	21903
854.854	22021
854.988	21911
855.122	21861
855.256	21785
855.39	21953
855.524	22025
855.658	22090
855.792	21907
855.926	21915
856.06	21979
856.194	21895
856.327	21819
856.461	21899
856.595	21831
856.729	21838
856.862	22097
856.996	22002
857.13	21949
857.263	22082
857.397	22025
857.53	21945
857.664	21960
857.797	21949
857.931	22017
858.064	21975
858.197	21960
858.331	22010
858.464	21876
858.597	21774
858.731	21899
858.864	21922
858.997	21907
859.13	21945
859.263	22021
859.396	22101
859.529	21762
859.662	21956
859.795	21743
859.928	21895
860.061	22070
860.194	22093
860.327	21869
860.46	21895
860.592	22177
860.725	22074
860.858	21964
860.99	21838
861.123	21831
861.256	21857
861.388	22029
861.521	22675
861.653	21759
861.786	21713
861.918	21838
862.05	21953
862.183	21827
862.315	21888
862.447	21956
862.58	21797
862.712	21511
862.844	21648
862.976	21732
863.108	21667
863.24	22131
863.372	21519
863.504	21728
863.636	21523
863.768	21671
863.9	21648
864.032	21530
864.164	21595
864.296	21595
864.428	21781
864.559	21747
864.691	21732
864.823	21720
864.954	21614
865.086	21542
865.217	21496
865.349	21405
865.48	21633
865.612	21542
865.743	21747
865.875	21469
866.006	21580
866.137	21416
866.269	21492
866.4	21507
866.531	21416
866.662	21412
866.793	21458
866.924	21428
867.055	21462
867.186	21401
867.317	21412
867.448	21389
867.579	21412
867.71	21363
867.841	21344
867.972	21416
868.103	21439
868.233	21450
868.364	21466
868.495	21587
868.625	21698
868.756	21869
868.886	21641
869.017	21713
869.147	21816
869.278	21850
869.408	21800
869.539	21736
869.669	21698
869.799	21705
869.929	21698
870.06	21854
870.19	22025
870.32	22074
870.45	22070
870.58	22093
870.71	22074
870.84	22093
870.97	22097
871.1	22109
871.23	22162
871.36	22177
871.489	22181
871.619	22291
871.749	22226
871.879	22265
872.008	22348
872.138	22272
872.267	22291
872.397	22253
872.526	22131
872.656	22128
872.785	22150
872.915	22253
873.044	22363
873.173	22394
873.303	22375
873.432	22344
873.561	22432
873.69	22257
873.819	22261
873.948	22337
874.077	22322
874.206	22337
874.335	22382
874.464	22546
874.593	22569
874.722	22599
874.851	22455
874.979	22542
875.108	22588
875.237	22527
875.365	22363
875.494	22523
875.623	22580
875.751	22569
875.88	22580
876.008	22653
876.136	22748
876.265	22930
876.393	23140
876.521	23185
876.65	23098
876.778	22908
876.906	22889
877.034	22858
877.162	22778
877.29	22911
877.418	22847
877.546	22911
877.674	22831
877.802	22892
877.93	22892
878.058	22847
878.185	22801
878.313	22839
878.441	22896
878.568	22618
878.696	22869
878.824	22968
878.951	22942
879.079	23102
879.206	23246
879.333	23052
879.461	22873
879.588	23067
879.715	22995
879.842	23147
879.97	23094
880.097	22782
880.224	22721
880.351	22710
880.478	22748
880.605	22763
880.732	22790
880.859	22889
880.986	22850
881.112	22778
881.239	22706
881.366	22447
881.493	22363
881.619	22200
881.746	22398
881.872	22299
881.999	22322
882.125	22272
882.252	22261
882.378	22363
882.505	22363
882.631	22192
882.757	21945
882.883	22048
883.01	22029
883.136	21941
883.262	21827
883.388	21857
883.514	21964
883.64	22013
883.766	21987
883.892	21770
884.018	21762
884.143	21895
884.269	22010
884.395	21682
884.52	21526
884.646	21629
884.772	21595
884.897	21553
885.023	21603
885.148	21682
885.274	21701
885.399	21698
885.524	21587
885.65	21660
885.775	21705
885.9	21496
886.025	21614
886.15	21686
886.275	21564
886.4	21507
886.525	21488
886.65	21545
886.775	21507
886.9	21675
887.025	21800
887.149	21595
887.274	21355
887.399	21363
887.523	21466
887.648	21336
887.773	21306
887.897	21488
888.021	21428
888.146	21214
888.27	21500
888.395	21401
888.519	21447
888.643	21374
888.767	21378
888.891	21226
889.015	21222
889.139	21260
889.263	21173
889.387	21161
889.511	21313
889.635	21165
889.759	21154
889.883	21123
890.006	21096
890.13	21211
890.254	21173
890.377	21138
890.501	20948
890.624	20880
890.748	21032
890.871	20815
890.995	20678
891.118	20636
891.241	20739
891.364	20754
891.488	20838
891.611	20697
891.734	20769
891.857	20788
891.98	20769
892.103	20731
892.226	20663
892.349	20697
892.471	20613
892.594	20648
892.717	20686
892.839	20765
892.962	20606
893.085	20705
893.207	20560
893.33	20590
893.452	20625
893.575	20712
893.697	20571
893.819	20754
893.941	20883
894.064	20796
894.186	20514
894.308	20556
894.43	20746
894.552	20769
894.674	20785
894.796	20579
894.918	20465
895.04	20549
895.161	20571
895.283	20746
895.405	20434
895.526	20727
895.648	20556
895.769	20545
895.891	20663
896.012	20670
896.134	20682
896.255	20613
896.376	20602
896.498	20598
896.619	20651
896.74	20629
896.861	20682
896.982	20902
897.103	20967
897.224	20815
897.345	20864
897.466	20735
897.587	20937
897.708	20937
897.828	20960
897.949	20807
898.07	20629
898.19	20731
898.311	20872
898.431	20754
898.552	20834
898.672	21039
898.792	20815
898.913	20815
899.033	20686
899.153	20617
899.273	20492
899.393	20522
899.513	20602
899.633	20621
899.753	20575
899.873	20648
899.993	20651
900.113	20476
900.232	20476
900.352	20461
900.472	20408
900.591	20328
900.711	20366
900.83	20362
900.95	20450
901.069	20377
901.189	20199
901.308	19989
901.427	19928
901.546	19970
901.665	19959
901.784	19902
901.904	19868
902.023	19712
902.141	19548
902.26	19350
902.379	19453
902.498	19335
902.617	19449
902.735	19521
902.854	19225
902.973	19384
903.091	19118
903.21	19206
903.328	19152
903.446	19019
903.565	18909
903.683	18932
903.801	18760
903.919	18791
904.038	18764
904.156	18711
904.274	18776
904.392	18650
904.51	18601
904.627	18574
904.745	18635
904.863	18734
904.981	18441
905.098	18311
905.216	18292
905.334	18346
905.451	18209
905.569	18239
905.686	18399
905.803	18308
905.921	18148
906.038	18171
906.155	18072
906.272	17946
906.389	17996
906.506	17847
906.623	17794
906.74	17798
906.857	17691
906.974	17726
907.091	17935
907.208	18011
907.324	17897
907.441	17687
907.557	17562
907.674	17528
907.79	17486
907.907	17512
908.023	17589
908.139	17608
908.256	17471
908.372	17459
908.488	17486
908.604	17433
908.72	17235
908.836	17296
908.952	17181
909.068	17269
909.184	17273
909.3	17337
909.415	17258
909.531	17280
909.647	17041
909.762	16934
909.878	16957
909.993	16987
910.108	17060
910.224	16980
910.339	16927
910.454	16797
910.57	16771
910.685	16656
910.8	16930
910.915	16911
911.03	16733
911.145	16512
911.259	16428
911.374	16603
911.489	16554
911.604	16417
911.718	16291
911.833	16287
911.947	16166
912.062	16147
912.176	16211
912.291	16249
912.405	16284
912.519	16489
912.633	16432
912.748	16295
912.862	16287
912.976	16131
913.09	15972
913.204	16131
913.318	16124
913.431	16150
913.545	16120
913.659	16154
913.772	16040
913.886	15892
914	15884
914.113	16006
914.226	16051
914.34	15922
914.453	15743
914.566	15983
914.68	15781
914.793	15762
914.906	15591
915.019	15526
915.132	15454
915.245	15458
915.358	15481
915.47	15568
915.583	15492
915.696	15504
915.809	15603
915.921	15584
916.034	15435
916.146	15473
916.259	15382
916.371	15523
916.483	15420
916.595	15256
916.708	15233
916.82	15348
916.932	15272
917.044	15264
917.156	15249
917.268	15237
917.38	15180
917.491	15093
917.603	15173
917.715	15241
917.826	15211
917.938	15116
918.049	14963
918.161	15154
918.272	15233
918.384	15165
918.495	15036
918.606	14937
918.717	14857
918.828	14994
918.939	14979
919.05	14845
919.161	14914
919.272	14579
919.383	14674
919.494	14891
919.604	15024
919.715	14811
919.826	14796
919.936	14800
920.047	15043
920.157	14887
920.267	15058
920.378	14933
920.488	14815
920.598	14963
920.708	15165
920.818	14933
920.928	14929
921.038	15176
921.148	15131
921.258	14845
921.368	14746
921.477	14651
921.587	14488
921.697	14511
921.806	14564
921.916	14389
922.025	14191
922.134	14248
922.244	14210
922.353	14282
922.462	14088
922.571	14145
922.68	13868
922.789	13833
922.898	13879
923.007	13830
923.116	13868
923.224	13833
923.333	13799
923.442	13757
923.55	13655
923.659	13769
923.767	13791
923.876	13601
923.984	13715
924.092	13662
924.201	13639
924.309	13578
924.417	13556
924.525	13449
924.633	13483
924.741	14469
924.849	13297
924.956	13441
925.064	13388
925.172	13251
925.279	13343
925.387	13308
925.494	13270
925.602	13343
925.709	13327
925.816	13282
925.924	13152
926.031	13240
926.138	13202
926.245	13217
926.352	13110
926.459	13244
926.566	13175
926.673	13122
926.779	12947
926.886	12985
926.993	12829
927.099	12863
927.206	12715
927.312	12741
927.419	12943
927.525	12798
927.631	12791
927.737	12817
927.843	12707
927.95	12528
928.056	12601
928.162	12601
928.267	12669
928.373	13236
928.479	12642
928.585	12403
928.69	12563
928.796	12623
928.901	12506
929.007	12319
929.112	12464
929.218	12471
929.323	12391
929.428	12334
929.533	12551
929.638	12327
929.743	12330
929.848	12391
929.953	12311
930.058	12136
930.163	11992
930.267	12110
930.372	12167
930.477	12072
930.581	12209
930.685	12102
930.79	11904
930.894	11912
930.998	11866
931.103	12087
931.207	11729
931.311	11592
931.415	11611
931.519	11273
931.623	11364
