Data from test_V78500241_411.txt Node
Date: Fri Mar 25 15:44:38 CST 2022
User: usil
Spectrometer: V785-0024
Trigger mode: 0
Integration Time (sec): 4.000000E-1
Scans to average: 1
Nonlinearity correction enabled: false
Boxcar width: 0
Storing dark spectrum: false
XAxis mode: Wavelengths
Number of Pixels in Spectrum: 1024
>>>>>Begin Spectral Data<<<<<
801.071	28573
801.214	28497
801.356	28322
801.499	28162
801.641	28063
801.783	28150
801.926	28223
802.068	27949
802.211	27911
802.353	27876
802.496	27648
802.638	27766
802.78	27762
802.923	27743
803.065	27766
803.208	27690
803.35	27709
803.492	27808
803.635	28017
803.777	27739
803.919	27717
804.061	28181
804.204	27953
804.346	27873
804.488	27793
804.63	27907
804.773	27762
804.915	27823
805.057	27994
805.199	27789
805.341	27964
805.483	27899
805.626	27907
805.768	27808
805.91	27983
806.052	27918
806.194	27964
806.336	28112
806.478	27972
806.62	27994
806.762	28074
806.904	28150
807.046	28577
807.188	28257
807.33	28394
807.472	28512
807.614	28489
807.756	28306
807.898	28173
808.04	28143
808.182	28185
808.324	28147
808.465	28185
808.607	28348
808.749	28523
808.891	28729
809.033	28755
809.174	28778
809.316	28641
809.458	28584
809.6	28493
809.741	28672
809.883	28752
810.025	28725
810.166	28786
810.308	28915
810.45	28782
810.591	28820
810.733	28550
810.875	28512
811.016	28436
811.158	28584
811.299	28599
811.441	28752
811.582	28767
811.724	28630
811.865	28531
812.007	28565
812.148	28493
812.29	28512
812.431	28694
812.573	28816
812.714	28995
812.855	29159
812.997	29170
813.138	29273
813.279	29178
813.421	29151
813.562	28999
813.703	28755
813.845	28801
813.986	28360
814.127	28424
814.268	28303
814.41	28303
814.551	28086
814.692	28360
814.833	28139
814.974	28329
815.115	28086
815.256	28112
815.397	28124
815.539	27964
815.68	27918
815.821	27926
815.962	27991
816.103	27842
816.244	27816
816.385	27785
816.526	27633
816.666	27523
816.807	27401
816.948	27606
817.089	27530
817.23	27496
817.371	27477
817.512	27427
817.653	27222
817.793	27382
817.934	27538
818.075	27427
818.216	27332
818.356	27268
818.497	27249
818.638	27157
818.778	27131
818.919	27085
819.06	27173
819.2	27211
819.341	27245
819.481	27332
819.622	27477
819.762	27656
819.903	27599
820.043	27450
820.184	27447
820.324	27443
820.465	27526
820.605	27496
820.746	27408
820.886	27260
821.026	27447
821.167	27325
821.307	27515
821.447	27298
821.588	27359
821.728	27100
821.868	26963
822.008	26819
822.149	26796
822.289	26880
822.429	26484
822.569	26598
822.709	26415
822.849	26358
822.99	26282
823.13	26358
823.27	26309
823.41	26210
823.55	25982
823.69	26115
823.83	26043
823.97	26092
824.11	25807
824.25	25982
824.389	25898
824.529	25940
824.669	25947
824.809	26138
824.949	26096
825.089	25917
825.228	25966
825.368	25746
825.508	25784
825.648	25833
825.787	25841
825.927	25906
826.067	25693
826.206	25742
826.346	25906
826.485	25811
826.625	25776
826.765	25795
826.904	25906
827.044	25594
827.183	25616
827.323	25426
827.462	25499
827.601	25460
827.741	25327
827.88	25381
828.02	25324
828.159	25213
828.298	25430
828.437	25384
828.577	25369
828.716	25472
828.855	25259
828.994	25107
829.134	25008
829.273	25228
829.412	25042
829.551	25141
829.69	25259
829.829	25221
829.968	25141
830.107	25114
830.246	25198
830.385	25065
830.524	25027
830.663	24920
830.802	24661
830.941	24604
831.08	24593
831.219	24810
831.357	24825
831.496	24916
831.635	24764
831.774	24627
831.913	24593
832.051	24502
832.19	24403
832.329	24536
832.467	24437
832.606	24353
832.744	24391
832.883	24346
833.022	24353
833.16	24300
833.299	24330
833.437	24391
833.576	24380
833.714	24327
833.852	24426
833.991	24498
834.129	24441
834.267	24384
834.406	24334
834.544	24330
834.682	24365
834.821	24342
834.959	24445
835.097	24315
835.235	24429
835.373	24224
835.511	24384
835.65	24140
835.788	24121
835.926	24129
836.064	24007
836.202	24018
836.34	24155
836.478	24300
836.615	24197
836.753	24273
836.891	24213
837.029	24129
837.167	24144
837.305	24007
837.443	23920
837.58	23996
837.718	24041
837.856	23984
837.993	23942
838.131	23824
838.269	23840
838.406	23893
838.544	23794
838.681	23805
838.819	23733
838.956	23391
839.094	23349
839.231	23604
839.369	23581
839.506	23897
839.643	23710
839.781	23433
839.918	23486
840.055	23459
840.193	23376
840.33	23410
840.467	23372
840.604	23471
840.742	23665
840.879	23181
841.016	23356
841.153	23311
841.29	23528
841.427	23330
841.564	23326
841.701	23258
841.838	23178
841.975	23265
842.112	23326
842.249	23220
842.385	23121
842.522	23288
842.659	23128
842.796	23166
842.933	22984
843.069	22995
843.206	22904
843.343	23113
843.479	22999
843.616	23162
843.752	22869
843.889	22843
844.025	22885
844.162	22831
844.298	22828
844.435	22744
844.571	22881
844.708	22927
844.844	22927
844.98	22854
845.117	22942
845.253	22835
845.389	22805
845.525	22660
845.661	22645
845.798	22519
845.934	22687
846.07	22603
846.206	22668
846.342	22497
846.478	22500
846.614	22367
846.75	22295
846.886	22246
847.022	22402
847.158	22246
847.294	22417
847.429	22276
847.565	22162
847.701	22470
847.837	21979
847.972	21880
848.108	22131
848.244	22029
848.379	21930
848.515	21876
848.65	21953
848.786	21892
848.921	21892
849.057	21987
849.192	21941
849.328	21911
849.463	21861
849.598	21766
849.734	21736
849.869	21713
850.004	21557
850.14	21587
850.275	21663
850.41	21428
850.545	21424
850.68	21580
850.815	21625
850.95	21629
851.085	21747
851.22	21838
851.355	21561
851.49	21652
851.625	21572
851.76	21545
851.895	21667
852.03	21515
852.165	21595
852.299	21622
852.434	21641
852.569	21504
852.703	21614
852.838	21675
852.973	21766
853.107	21583
853.242	21481
853.376	21485
853.511	21332
853.645	21363
853.78	21523
853.914	21424
854.048	21264
854.183	21329
854.317	21310
854.451	21583
854.585	21249
854.72	21325
854.854	21393
854.988	21336
855.122	21264
855.256	21203
855.39	21355
855.524	21450
855.658	21298
855.792	21488
855.926	21382
856.06	21466
856.194	21515
856.327	21256
856.461	21405
856.595	21173
856.729	21359
856.862	21458
856.996	21386
857.13	21374
857.263	21500
857.397	21515
857.53	21340
857.664	21439
857.797	21378
857.931	21424
858.064	21310
858.197	21477
858.331	21329
858.464	21336
858.597	21195
858.731	21355
858.864	21344
858.997	21226
859.13	21241
859.263	21348
859.396	21530
859.529	21321
859.662	21218
859.795	21340
859.928	21344
860.061	21519
860.194	21488
860.327	21367
860.46	21340
860.592	21431
860.725	21538
860.858	21542
860.99	21412
861.123	21184
861.256	21317
861.388	21424
861.521	21975
861.653	21294
861.786	21195
861.918	21245
862.05	21264
862.183	21355
862.315	21435
862.447	21473
862.58	21317
862.712	21089
862.844	20963
862.976	21192
863.108	21112
863.24	21447
863.372	21001
863.504	21001
863.636	21036
863.768	21077
863.9	20937
864.032	21009
864.164	21100
864.296	21058
864.428	21176
864.559	21001
864.691	21192
864.823	21074
864.954	20998
865.086	20998
865.217	21001
865.349	20944
865.48	21055
865.612	20868
865.743	21157
865.875	20982
866.006	20883
866.137	20906
866.269	20925
866.4	20902
866.531	20902
866.662	21001
866.793	20937
866.924	20971
867.055	20781
867.186	20880
867.317	20845
867.448	20746
867.579	20830
867.71	20754
867.841	20861
867.972	20838
868.103	20800
868.233	20880
868.364	20758
868.495	21009
868.625	21047
868.756	21184
868.886	21051
869.017	21119
869.147	21184
869.278	21230
869.408	21180
869.539	21108
869.669	21195
869.799	21085
869.929	21287
870.06	21176
870.19	21424
870.32	21408
870.45	21530
870.58	21454
870.71	21580
870.84	21572
870.97	21526
871.1	21443
871.23	21774
871.36	21739
871.489	21595
871.619	21732
871.749	21835
871.879	21812
872.008	21968
872.138	21698
872.267	21625
872.397	21583
872.526	21523
872.656	21564
872.785	21466
872.915	21694
873.044	21907
873.173	21793
873.303	21838
873.432	21880
873.561	21671
873.69	21739
873.819	21770
873.948	21835
874.077	21675
874.206	21720
874.335	21720
874.464	21766
874.593	21968
874.722	22006
874.851	22040
874.979	21998
875.108	22055
875.237	21964
875.365	21876
875.494	21934
875.623	22093
875.751	21926
875.88	22036
876.008	22204
876.136	22128
876.265	22238
876.393	22462
876.521	22436
876.65	22348
876.778	22394
876.906	22299
877.034	22337
877.162	22360
877.29	22310
877.418	22382
877.546	22295
877.674	22261
877.802	22470
877.93	22162
878.058	22295
878.185	22162
878.313	22211
878.441	22200
878.568	22105
878.696	22257
878.824	22223
878.951	22363
879.079	22489
879.206	22622
879.333	22447
879.461	22386
879.588	22481
879.715	22459
879.842	22565
879.97	22375
880.097	22211
880.224	22169
880.351	22196
880.478	22204
880.605	22131
880.732	22177
880.859	22249
880.986	22173
881.112	22246
881.239	22067
881.366	21861
881.493	21728
881.619	21720
881.746	21690
881.872	21724
881.999	21694
882.125	21759
882.252	21732
882.378	21701
882.505	21819
882.631	21542
882.757	21534
882.883	21389
883.01	21416
883.136	21355
883.262	21363
883.388	21310
883.514	21386
883.64	21473
883.766	21428
883.892	21214
884.018	21252
884.143	21336
884.269	21431
884.395	21138
884.52	21165
884.646	21093
884.772	21062
884.897	20971
885.023	21100
885.148	21116
885.274	21237
885.399	21085
885.524	21077
885.65	21108
885.775	21062
885.9	21047
886.025	21226
886.15	21252
886.275	20933
886.4	21047
886.525	21039
886.65	20944
886.775	20986
886.9	21188
887.025	21230
887.149	21161
887.274	20857
887.399	20876
887.523	20804
887.648	20872
887.773	20682
887.897	20849
888.021	20842
888.146	20754
888.27	20800
888.395	20800
888.519	20883
888.643	20918
888.767	20765
888.891	20693
889.015	20602
889.139	20739
889.263	20526
889.387	20724
889.511	20769
889.635	20735
889.759	20556
889.883	20476
890.006	20727
890.13	20682
890.254	20522
890.377	20454
890.501	20278
890.624	20358
890.748	20412
890.871	20183
890.995	20240
891.118	20153
891.241	20153
891.364	20229
891.488	20294
891.611	20187
891.734	20244
891.857	20256
891.98	20290
892.103	20385
892.226	20149
892.349	20024
892.471	19944
892.594	20187
892.717	20096
892.839	20092
892.962	20138
893.085	20081
893.207	20100
893.33	20054
893.452	20058
893.575	20107
893.697	20081
893.819	20259
893.941	20263
894.064	20275
894.186	19944
894.308	20001
894.43	20084
894.552	20210
894.674	20206
894.796	19967
894.918	20027
895.04	20054
895.161	20138
895.283	20134
895.405	19921
895.526	20054
895.648	20077
895.769	20168
895.891	20027
896.012	20183
896.134	20069
896.255	20138
896.376	20012
896.498	20081
896.619	20187
896.74	20050
896.861	20248
896.982	20446
897.103	20590
897.224	20358
897.345	20377
897.466	20339
897.587	20256
897.708	20442
897.828	20347
897.949	20259
898.07	20065
898.19	20278
898.311	20408
898.431	20218
898.552	20301
898.672	20412
898.792	20457
898.913	20202
899.033	20195
899.153	20062
899.273	20084
899.393	20115
899.513	19955
899.633	20138
899.753	20039
899.873	19944
899.993	20024
900.113	19947
900.232	19970
900.352	19879
900.472	19894
900.591	19811
900.711	19902
900.83	19864
900.95	19997
901.069	19875
901.189	19765
901.308	19460
901.427	19312
901.546	19422
901.665	19502
901.784	19441
901.904	19240
902.023	19274
902.141	19091
902.26	18829
902.379	19072
902.498	19023
902.617	18848
902.735	18962
902.854	18871
902.973	18787
903.091	18707
903.21	18639
903.328	18486
903.446	18513
903.565	18433
903.683	18365
903.801	18232
903.919	18353
904.038	18376
904.156	18205
904.274	18155
904.392	18121
904.51	18144
904.627	18140
904.745	18114
904.863	18327
904.981	17939
905.098	17832
905.216	17863
905.334	17794
905.451	17809
905.569	17737
905.686	17824
905.803	17771
905.921	17691
906.038	17691
906.155	17642
906.272	17455
906.389	17528
906.506	17330
906.623	17417
906.74	17265
906.857	17239
906.974	17330
907.091	17383
907.208	17425
907.324	17368
907.441	17292
907.557	17189
907.674	17117
907.79	16999
907.907	17067
908.023	17212
908.139	17094
908.256	17022
908.372	16911
908.488	17003
908.604	16801
908.72	16774
908.836	16896
908.952	16782
909.068	16790
909.184	16843
909.3	16778
909.415	16740
909.531	16717
909.647	16561
909.762	16554
909.878	16432
909.993	16508
910.108	16443
910.224	16405
910.339	16367
910.454	16367
910.57	16287
910.685	16238
910.8	16428
910.915	16375
911.03	16242
911.145	16185
911.259	15979
911.374	16036
911.489	15922
911.604	16010
911.718	15869
911.833	15819
911.947	15671
912.062	15675
912.176	15778
912.291	15804
912.405	15743
912.519	15934
912.633	15960
912.748	15888
912.862	15732
912.976	15614
913.09	15469
913.204	15606
913.318	15519
913.431	15739
913.545	15682
913.659	15625
913.772	15641
913.886	15393
914	15321
914.113	15481
914.226	15587
914.34	15526
914.453	15374
914.566	15439
914.68	15348
914.793	15241
914.906	15020
915.019	14952
915.132	15047
915.245	15039
915.358	15066
915.47	15013
915.583	15039
915.696	15062
915.809	15123
915.921	15161
916.034	15070
916.146	14944
916.259	14876
916.371	15043
916.483	14952
916.595	14861
916.708	14887
916.82	14941
916.932	14712
917.044	14796
917.156	14773
917.268	14659
917.38	14708
917.491	14625
917.603	14640
917.715	14769
917.826	14765
917.938	14648
918.049	14480
918.161	14598
918.272	14727
918.384	14636
918.495	14549
918.606	14522
918.717	14438
918.828	14450
918.939	14511
919.05	14377
919.161	14434
919.272	14229
919.383	14286
919.494	14419
919.604	14575
919.715	14476
919.826	14225
919.936	14347
920.047	14503
920.157	14473
920.267	14636
920.378	14351
920.488	14355
920.598	14545
920.708	14716
920.818	14465
920.928	14495
921.038	14560
921.148	14598
921.258	14240
921.368	14290
921.477	14191
921.587	14096
921.697	13955
921.806	14077
921.916	14005
922.025	13818
922.134	13818
922.244	13811
922.353	13791
922.462	13624
922.571	13590
922.68	13441
922.789	13453
922.898	13381
923.007	13358
923.116	13392
923.224	13346
923.333	13373
923.442	13301
923.55	13175
923.659	13228
923.767	13285
923.876	13160
923.984	13259
924.092	13107
924.201	13122
924.309	13145
924.417	13141
924.525	13076
924.633	13091
924.741	13856
924.849	12833
924.956	12935
925.064	12848
925.172	12802
925.279	12783
925.387	12863
925.494	12821
925.602	13019
925.709	12852
925.816	12711
925.924	12798
926.031	12798
926.138	12772
926.245	12760
926.352	12715
926.459	12806
926.566	12848
926.673	12738
926.779	12559
926.886	12642
926.993	12467
927.099	12407
927.206	12372
927.312	12311
927.419	12460
927.525	12388
927.631	12353
927.737	12216
927.843	12197
927.95	12194
928.056	12201
928.162	12190
928.267	12304
928.373	12783
928.479	12311
928.585	11965
928.69	12133
928.796	12136
928.901	11996
929.007	11923
929.112	12114
929.218	11946
929.323	12019
929.428	11942
929.533	12076
929.638	11874
929.743	11882
929.848	11942
929.953	11866
930.058	11847
930.163	11722
930.267	11615
930.372	11847
930.477	11554
930.581	11771
930.685	11638
930.79	11573
930.894	11486
930.998	11493
931.103	11627
931.207	11280
931.311	11189
931.415	11124
931.519	10930
931.623	10873
