Data from test_V78500241_1450.txt Node
Date: Fri Mar 25 15:51:50 CST 2022
User: usil
Spectrometer: V785-0024
Trigger mode: 0
Integration Time (sec): 4.000000E-1
Scans to average: 1
Nonlinearity correction enabled: false
Boxcar width: 0
Storing dark spectrum: false
XAxis mode: Wavelengths
Number of Pixels in Spectrum: 1024
>>>>>Begin Spectral Data<<<<<
801.071	28363
801.214	28462
801.356	28409
801.499	28147
801.641	28131
801.783	28196
801.926	28055
802.068	27987
802.211	27991
802.353	27991
802.496	27751
802.638	27671
802.78	27789
802.923	27675
803.065	27542
803.208	27701
803.35	27781
803.492	27922
803.635	27911
803.777	27949
803.919	27914
804.061	28295
804.204	27987
804.346	27911
804.488	27895
804.63	27937
804.773	27895
804.915	27956
805.057	28097
805.199	27892
805.341	28067
805.483	28158
805.626	28173
805.768	28036
805.91	28101
806.052	28181
806.194	28097
806.336	28238
806.478	28143
806.62	28166
806.762	28325
806.904	28333
807.046	28873
807.188	28538
807.33	28565
807.472	28561
807.614	28470
807.756	28710
807.898	28504
808.04	28413
808.182	28459
808.324	28497
808.465	28398
808.607	28713
808.749	28767
808.891	28908
809.033	28873
809.174	28892
809.316	28736
809.458	28752
809.6	28858
809.741	28869
809.883	28862
810.025	29147
810.166	29121
810.308	29052
810.45	29033
810.591	29025
810.733	28850
810.875	28786
811.016	28672
811.158	28801
811.299	28782
811.441	29052
811.582	28911
811.724	28729
811.865	28740
812.007	28854
812.148	28850
812.29	28911
812.431	28946
812.573	29121
812.714	29102
812.855	29349
812.997	29395
813.138	29539
813.279	29334
813.421	29334
813.562	29299
813.703	29132
813.845	29037
813.986	28729
814.127	28580
814.268	28535
814.41	28550
814.551	28538
814.692	28596
814.833	28386
814.974	28398
815.115	28546
815.256	28291
815.397	28436
815.539	28344
815.68	28394
815.821	28215
815.962	28363
816.103	28341
816.244	28200
816.385	28188
816.526	28135
816.666	27934
816.807	27876
816.948	27972
817.089	27888
817.23	27945
817.371	27857
817.512	27930
817.653	27857
817.793	27720
817.934	27895
818.075	27816
818.216	27781
818.356	27850
818.497	27705
818.638	27557
818.778	27481
818.919	27568
819.06	27751
819.2	27800
819.341	27671
819.481	27831
819.622	27922
819.762	28200
819.903	28124
820.043	28010
820.184	27922
820.324	28040
820.465	28013
820.605	28025
820.746	28021
820.886	27812
821.026	27774
821.167	27800
821.307	27956
821.447	27812
821.588	27873
821.728	27671
821.868	27462
822.008	27359
822.149	27173
822.289	27355
822.429	27074
822.569	27024
822.709	26967
822.849	26918
822.99	26880
823.13	26727
823.27	26830
823.41	26568
823.55	26606
823.69	26636
823.83	26621
823.97	26549
824.11	26518
824.25	26469
824.389	26552
824.529	26412
824.669	26526
824.809	26602
824.949	26446
825.089	26503
825.228	26541
825.368	26438
825.508	26240
825.648	26396
825.787	26423
825.927	26301
826.067	26389
826.206	26370
826.346	26427
826.485	26400
826.625	26252
826.765	26412
826.904	26336
827.044	26050
827.183	26024
827.323	25932
827.462	26176
827.601	25997
827.741	25959
827.88	26145
828.02	25970
828.159	26100
828.298	25868
828.437	26046
828.577	25917
828.716	26100
828.855	25944
828.994	25738
829.134	25643
829.273	25750
829.412	25628
829.551	25685
829.69	25704
829.829	25784
829.968	25734
830.107	25845
830.246	25856
830.385	25586
830.524	25620
830.663	25483
830.802	25495
830.941	25415
831.08	25339
831.219	25354
831.357	25510
831.496	25460
831.635	25354
831.774	25179
831.913	25168
832.051	25107
832.19	25072
832.329	25202
832.467	24916
832.606	25050
832.744	24878
832.883	24966
833.022	24966
833.16	24970
833.299	25053
833.437	25118
833.576	25122
833.714	25042
833.852	25084
833.991	25206
834.129	24992
834.267	25034
834.406	25050
834.544	25084
834.682	25084
834.821	25152
834.959	25148
835.097	25046
835.235	25050
835.373	24954
835.511	25099
835.65	25031
835.788	24996
835.926	24897
836.064	24650
836.202	24692
836.34	24878
836.478	24962
836.615	24875
836.753	24981
836.891	25050
837.029	24821
837.167	24875
837.305	24760
837.443	24806
837.58	24837
837.718	24787
837.856	24574
837.993	24658
838.131	24688
838.269	24631
838.406	24745
838.544	24593
838.681	24338
838.819	24486
838.956	24144
839.094	24254
839.231	24315
839.369	24292
839.506	24597
839.643	24464
839.781	24194
839.918	24152
840.055	24167
840.193	24178
840.33	24114
840.467	24171
840.604	24224
840.742	24346
840.879	23908
841.016	23901
841.153	24041
841.29	24285
841.427	24091
841.564	24152
841.701	24057
841.838	24015
841.975	23996
842.112	23965
842.249	23954
842.385	23786
842.522	24133
842.659	24060
842.796	24011
842.933	23863
843.069	23866
843.206	23874
843.343	23840
843.479	23904
843.616	23916
843.752	23596
843.889	23745
844.025	23687
844.162	23570
844.298	23729
844.435	23623
844.571	23684
844.708	23653
844.844	23836
844.98	23798
845.117	23691
845.253	23577
845.389	23486
845.525	23505
845.661	23391
845.798	23337
845.934	23406
846.07	23311
846.206	23414
846.342	23509
846.478	23277
846.614	23292
846.75	23064
846.886	23056
847.022	23147
847.158	23044
847.294	22987
847.429	23212
847.565	23090
847.701	23136
847.837	22778
847.972	22725
848.108	22938
848.244	22839
848.379	22729
848.515	22694
848.65	22615
848.786	22649
848.921	22668
849.057	22873
849.192	22824
849.328	22733
849.463	22626
849.598	22569
849.734	22622
849.869	22424
850.004	22500
850.14	22436
850.275	22375
850.41	22322
850.545	22265
850.68	22500
850.815	22432
850.95	22447
851.085	22588
851.22	22500
851.355	22402
851.49	22432
851.625	22413
851.76	22443
851.895	22367
852.03	22413
852.165	22318
852.299	22527
852.434	22405
852.569	22394
852.703	22386
852.838	22500
852.973	22527
853.107	22516
853.242	22402
853.376	22268
853.511	22112
853.645	22128
853.78	22341
853.914	22299
854.048	22207
854.183	22200
854.317	22363
854.451	22470
854.585	22162
854.72	22207
854.854	22348
854.988	22265
855.122	22265
855.256	22131
855.39	22139
855.524	22192
855.658	22276
855.792	22215
855.926	22150
856.06	22306
856.194	22314
856.327	22234
856.461	22150
856.595	22242
856.729	22173
856.862	22303
856.996	22226
857.13	22371
857.263	22322
857.397	22367
857.53	22196
857.664	22329
857.797	22363
857.931	22390
858.064	22287
858.197	22363
858.331	22173
858.464	22200
858.597	22139
858.731	22177
858.864	22162
858.997	22135
859.13	22253
859.263	22287
859.396	22348
859.529	22223
859.662	22120
859.795	22204
859.928	22379
860.061	22390
860.194	22432
860.327	22306
860.46	22329
860.592	22371
860.725	22470
860.858	22272
860.99	22287
861.123	22074
861.256	22226
861.388	22333
861.521	23025
861.653	22166
861.786	22105
861.918	22124
862.05	22150
862.183	22185
862.315	22105
862.447	22226
862.58	22154
862.712	21979
862.844	21903
862.976	21953
863.108	22078
863.24	22500
863.372	21873
863.504	21994
863.636	21827
863.768	21922
863.9	21972
864.032	21975
864.164	21876
864.296	22002
864.428	21994
864.559	21934
864.691	21983
864.823	21968
864.954	21941
865.086	21869
865.217	21884
865.349	21819
865.48	21804
865.612	21812
865.743	22029
865.875	21926
866.006	21755
866.137	21720
866.269	21800
866.4	21743
866.531	21808
866.662	21918
866.793	21876
866.924	21770
867.055	21808
867.186	21827
867.317	21732
867.448	21774
867.579	21766
867.71	21701
867.841	21644
867.972	21797
868.103	21884
868.233	21823
868.364	21789
868.495	21812
868.625	22032
868.756	22200
868.886	21915
869.017	21975
869.147	22120
869.278	22181
869.408	22078
869.539	21956
869.669	22063
869.799	22067
869.929	22188
870.06	22090
870.19	22352
870.32	22249
870.45	22257
870.58	22455
870.71	22500
870.84	22485
870.97	22489
871.1	22363
871.23	22653
871.36	22596
871.489	22459
871.619	22561
871.749	22660
871.879	22660
872.008	22637
872.138	22622
872.267	22607
872.397	22485
872.526	22417
872.656	22375
872.785	22417
872.915	22668
873.044	22786
873.173	22664
873.303	22763
873.432	22759
873.561	22786
873.69	22588
873.819	22516
873.948	22649
874.077	22672
874.206	22474
874.335	22698
874.464	22835
874.593	22805
874.722	22805
874.851	22927
874.979	22900
875.108	23003
875.237	22938
875.365	22736
875.494	22717
875.623	22995
875.751	22797
875.88	22873
876.008	23048
876.136	22949
876.265	23151
876.393	23318
876.521	23197
876.65	23471
876.778	23197
876.906	23258
877.034	23086
877.162	23273
877.29	23075
877.418	23239
877.546	23235
877.674	23220
877.802	23204
877.93	23151
878.058	23147
878.185	23079
878.313	22980
878.441	23170
878.568	22965
878.696	23140
878.824	23330
878.951	23307
879.079	23372
879.206	23474
879.333	23265
879.461	23265
879.588	23356
879.715	23391
879.842	23448
879.97	23345
880.097	23010
880.224	22930
880.351	23071
880.478	23143
880.605	22934
880.732	23037
880.859	23159
880.986	23044
881.112	23025
881.239	22828
881.366	22744
881.493	22698
881.619	22584
881.746	22542
881.872	22660
881.999	22466
882.125	22451
882.252	22550
882.378	22493
882.505	22660
882.631	22405
882.757	22162
882.883	22402
883.01	22230
883.136	22249
883.262	22040
883.388	21994
883.514	22211
883.64	22287
883.766	22284
883.892	21835
884.018	22169
884.143	22158
884.269	22363
884.395	21945
884.52	21994
884.646	21831
884.772	21819
884.897	21823
885.023	21953
885.148	21968
885.274	22070
885.399	21819
885.524	21861
885.65	21827
885.775	21937
885.9	21865
886.025	21880
886.15	21941
886.275	21812
886.4	21762
886.525	21930
886.65	21778
886.775	21781
886.9	22070
887.025	22139
887.149	21892
887.274	21694
887.399	21720
887.523	21603
887.648	21648
887.773	21504
887.897	21656
888.021	21660
888.146	21511
888.27	21732
888.395	21755
888.519	21732
888.643	21641
888.767	21713
888.891	21583
889.015	21591
889.139	21542
889.263	21363
889.387	21625
889.511	21618
889.635	21526
889.759	21469
889.883	21405
890.006	21332
890.13	21504
890.254	21405
890.377	21477
890.501	21138
890.624	21138
890.748	21249
890.871	21176
890.995	21051
891.118	20929
891.241	21017
891.364	21070
891.488	21157
891.611	21005
891.734	21005
891.857	21001
891.98	20986
892.103	21157
892.226	21024
892.349	20979
892.471	20838
892.594	20880
892.717	20933
892.839	20857
892.962	20960
893.085	20925
893.207	21062
893.33	20819
893.452	20857
893.575	20944
893.697	20864
893.819	20967
893.941	21047
894.064	21039
894.186	20883
894.308	20762
894.43	20868
894.552	21089
894.674	20956
894.796	20845
894.918	20853
895.04	20804
895.161	20815
895.283	20872
895.405	20705
895.526	20864
895.648	20925
895.769	20902
895.891	20838
896.012	20918
896.134	20925
896.255	20796
896.376	20895
896.498	20872
896.619	20921
896.74	20853
896.861	20849
896.982	21100
897.103	21161
897.224	21218
897.345	20960
897.466	21055
897.587	21104
897.708	21211
897.828	21058
897.949	20982
898.07	20933
898.19	21051
898.311	21173
898.431	20914
898.552	21077
898.672	21074
898.792	21100
898.913	21085
899.033	20842
899.153	20826
899.273	20773
899.393	20735
899.513	20918
899.633	20712
899.753	20777
899.873	20708
899.993	20758
900.113	20724
900.232	20686
900.352	20716
900.472	20625
900.591	20476
900.711	20663
900.83	20549
900.95	20598
901.069	20724
901.189	20530
901.308	20164
901.427	20153
901.546	20191
901.665	20221
901.784	20084
901.904	20008
902.023	20008
902.141	19696
902.26	19624
902.379	19681
902.498	19658
902.617	19563
902.735	19750
902.854	19639
902.973	19620
903.091	19411
903.21	19365
903.328	19285
903.446	19270
903.565	19190
903.683	19107
903.801	18905
903.919	19110
904.038	19061
904.156	18973
904.274	18962
904.392	18935
904.51	18814
904.627	18886
904.745	18977
904.863	18905
904.981	18673
905.098	18452
905.216	18563
905.334	18525
905.451	18502
905.569	18456
905.686	18616
905.803	18494
905.921	18342
906.038	18460
906.155	18304
906.272	18262
906.389	18266
906.506	18091
906.623	18076
906.74	18110
906.857	17965
906.974	17946
907.091	18038
907.208	18144
907.324	18106
907.441	18011
907.557	17775
907.674	17805
907.79	17676
907.907	17760
908.023	17741
908.139	17771
908.256	17722
908.372	17661
908.488	17657
908.604	17623
908.72	17455
908.836	17486
908.952	17467
909.068	17509
909.184	17627
909.3	17433
909.415	17474
909.531	17501
909.647	17326
909.762	17200
909.878	17109
909.993	17197
910.108	17048
910.224	17056
910.339	17102
910.454	16999
910.57	16995
910.685	16938
910.8	17124
910.915	17147
911.03	16953
911.145	16915
911.259	16721
911.374	16843
911.489	16805
911.604	16611
911.718	16580
911.833	16451
911.947	16443
912.062	16375
912.176	16645
912.291	16546
912.405	16550
912.519	16850
912.633	16653
912.748	16546
912.862	16504
912.976	16382
913.09	16188
913.204	16325
913.318	16417
913.431	16367
913.545	16363
913.659	16314
913.772	16253
913.886	16131
914	16048
914.113	16253
914.226	16226
914.34	16173
914.453	15983
914.566	16078
914.68	15953
914.793	15953
914.906	15861
915.019	15648
915.132	15709
915.245	15667
915.358	15800
915.47	15713
915.583	15759
915.696	15770
915.809	15819
915.921	15884
916.034	15785
916.146	15614
916.259	15637
916.371	15694
916.483	15534
916.595	15416
916.708	15576
916.82	15511
916.932	15580
917.044	15454
917.156	15492
917.268	15420
917.38	15344
917.491	15340
917.603	15332
917.715	15367
917.826	15370
917.938	15302
918.049	15203
918.161	15268
918.272	15389
918.384	15332
918.495	15283
918.606	15112
918.717	15017
918.828	15138
918.939	15195
919.05	14982
919.161	14998
919.272	14925
919.383	14944
919.494	15184
919.604	15272
919.715	15097
919.826	14990
919.936	14899
920.047	14929
920.157	15093
920.267	15211
920.378	15097
920.488	15009
920.598	15203
920.708	15249
920.818	15157
920.928	15135
921.038	15317
921.148	15260
921.258	14979
921.368	14910
921.477	14796
921.587	14762
921.697	14629
921.806	14872
921.916	14575
922.025	14427
922.134	14412
922.244	14389
922.353	14396
922.462	14286
922.571	14176
922.68	14043
922.789	14081
922.898	13970
923.007	13993
923.116	14153
923.224	14024
923.333	14020
923.442	13902
923.55	13803
923.659	13902
923.767	13856
923.876	13791
923.984	13944
924.092	13738
924.201	13731
924.309	13742
924.417	13704
924.525	13670
924.633	13784
924.741	14427
924.849	13460
924.956	13571
925.064	13464
925.172	13327
925.279	13400
925.387	13362
925.494	13392
925.602	13487
925.709	13419
925.816	13251
925.924	13327
926.031	13381
926.138	13278
926.245	13339
926.352	13190
926.459	13396
926.566	13499
926.673	13217
926.779	13194
926.886	13114
926.993	13027
927.099	12894
927.206	12890
927.312	12935
927.419	13046
927.525	12996
927.631	13012
927.737	12871
927.843	12829
927.95	12726
928.056	12692
928.162	12817
928.267	12738
928.373	13430
928.479	12894
928.585	12662
928.69	12730
928.796	12692
928.901	12658
929.007	12486
929.112	12650
929.218	12612
929.323	12483
929.428	12513
929.533	12646
929.638	12429
929.743	12479
929.848	12429
929.953	12486
930.058	12338
930.163	12213
930.267	12148
930.372	12254
930.477	12129
930.581	12353
930.685	12209
930.79	12015
930.894	12125
930.998	12026
931.103	12098
931.207	11779
931.311	11714
931.415	11592
931.519	11414
931.623	11493
