Data from test_V78500241_1822.txt Node
Date: Fri Mar 25 15:54:25 CST 2022
User: usil
Spectrometer: V785-0024
Trigger mode: 0
Integration Time (sec): 4.000000E-1
Scans to average: 1
Nonlinearity correction enabled: false
Boxcar width: 0
Storing dark spectrum: false
XAxis mode: Wavelengths
Number of Pixels in Spectrum: 1024
>>>>>Begin Spectral Data<<<<<
801.071	28500
801.214	28455
801.356	28059
801.499	28242
801.641	27895
801.783	28029
801.926	28029
802.068	28040
802.211	27934
802.353	27838
802.496	27603
802.638	27656
802.78	27698
802.923	27549
803.065	27492
803.208	27591
803.35	27591
803.492	27797
803.635	27861
803.777	27808
803.919	27911
804.061	28093
804.204	27956
804.346	27781
804.488	27854
804.63	27960
804.773	27903
804.915	27979
805.057	27922
805.199	27739
805.341	27922
805.483	27987
805.626	27945
805.768	27873
805.91	28074
806.052	27972
806.194	28082
806.336	28135
806.478	27934
806.62	27941
806.762	28120
806.904	28299
807.046	28535
807.188	28325
807.33	28584
807.472	28470
807.614	28360
807.756	28599
807.898	28440
808.04	28287
808.182	28284
808.324	28455
808.465	28230
808.607	28668
808.749	28759
808.891	28755
809.033	28881
809.174	28752
809.316	28675
809.458	28694
809.6	28656
809.741	28843
809.883	28980
810.025	28961
810.166	29048
810.308	28980
810.45	29014
810.591	28812
810.733	28713
810.875	28603
811.016	28687
811.158	28694
811.299	28767
811.441	28774
811.582	28828
811.724	28843
811.865	28755
812.007	28527
812.148	28603
812.29	28850
812.431	28908
812.573	29029
812.714	29246
812.855	29212
812.997	29277
813.138	29436
813.279	29425
813.421	29292
813.562	29193
813.703	29113
813.845	28987
813.986	28710
814.127	28481
814.268	28401
814.41	28337
814.551	28360
814.692	28577
814.833	28371
814.974	28249
815.115	28413
815.256	28246
815.397	28390
815.539	28280
815.68	28150
815.821	28120
815.962	28230
816.103	28341
816.244	28162
816.385	28128
816.526	27991
816.666	27785
816.807	27766
816.948	27629
817.089	27831
817.23	27728
817.371	27625
817.512	27690
817.653	27679
817.793	27618
817.934	27713
818.075	27713
818.216	27682
818.356	27736
818.497	27534
818.638	27485
818.778	27462
818.919	27583
819.06	27587
819.2	27637
819.341	27625
819.481	27663
819.622	27941
819.762	28048
819.903	27930
820.043	27953
820.184	27895
820.324	27804
820.465	27785
820.605	27804
820.746	27766
820.886	27663
821.026	27766
821.167	27762
821.307	27819
821.447	27755
821.588	27675
821.728	27561
821.868	27359
822.008	27283
822.149	27066
822.289	27249
822.429	26990
822.569	26925
822.709	26823
822.849	26682
822.99	26724
823.13	26629
823.27	26762
823.41	26621
823.55	26461
823.69	26461
823.83	26473
823.97	26423
824.11	26282
824.25	26248
824.389	26374
824.529	26419
824.669	26328
824.809	26476
824.949	26347
825.089	26389
825.228	26351
825.368	26225
825.508	26267
825.648	26229
825.787	26320
825.927	26172
826.067	26138
826.206	26240
826.346	26161
826.485	26259
826.625	26214
826.765	26282
826.904	26225
827.044	26073
827.183	25970
827.323	25890
827.462	26039
827.601	26008
827.741	25826
827.88	25947
828.02	25849
828.159	25864
828.298	26054
828.437	26027
828.577	25860
828.716	26088
828.855	25856
828.994	25651
829.134	25734
829.273	25639
829.412	25753
829.551	25586
829.69	25632
829.829	25590
829.968	25639
830.107	25723
830.246	25483
830.385	25597
830.524	25613
830.663	25525
830.802	25324
830.941	25331
831.08	25232
831.219	25350
831.357	25320
831.496	25426
831.635	25251
831.774	25126
831.913	25114
832.051	25084
832.19	25129
832.329	25187
832.467	24947
832.606	24875
832.744	24932
832.883	24844
833.022	24977
833.16	24913
833.299	24947
833.437	24932
833.576	24951
833.714	24924
833.852	25107
833.991	24992
834.129	24977
834.267	25027
834.406	24901
834.544	24954
834.682	24897
834.821	24859
834.959	25088
835.097	25072
835.235	25008
835.373	24954
835.511	25031
835.65	24916
835.788	24859
835.926	24669
836.064	24612
836.202	24635
836.34	24722
836.478	24856
836.615	24894
836.753	24741
836.891	24924
837.029	24779
837.167	24707
837.305	24772
837.443	24669
837.58	24547
837.718	24783
837.856	24483
837.993	24589
838.131	24684
838.269	24582
838.406	24547
838.544	24525
838.681	24239
838.819	24323
838.956	23954
839.094	24121
839.231	24224
839.369	24239
839.506	24544
839.643	24327
839.781	24030
839.918	24041
840.055	24163
840.193	24045
840.33	24022
840.467	24057
840.604	24053
840.742	24266
840.879	24011
841.016	24011
841.153	23931
841.29	24110
841.427	24034
841.564	24095
841.701	23999
841.838	23889
841.975	23927
842.112	23992
842.249	23790
842.385	23745
842.522	24026
842.659	23802
842.796	23695
842.933	23786
843.069	23585
843.206	23783
843.343	23805
843.479	23741
843.616	23821
843.752	23551
843.889	23703
844.025	23737
844.162	23493
844.298	23539
844.435	23551
844.571	23482
844.708	23570
844.844	23817
844.98	23695
845.117	23649
845.253	23471
845.389	23482
845.525	23501
845.661	23478
845.798	23235
845.934	23315
846.07	23277
846.206	23376
846.342	23383
846.478	23337
846.614	23094
846.75	22946
846.886	22972
847.022	23105
847.158	23121
847.294	23079
847.429	22961
847.565	23060
847.701	23326
847.837	22618
847.972	22660
848.108	22820
848.244	22778
848.379	22744
848.515	22497
848.65	22599
848.786	22615
848.921	22531
849.057	22713
849.192	22637
849.328	22626
849.463	22592
849.598	22508
849.734	22519
849.869	22447
850.004	22303
850.14	22314
850.275	22367
850.41	22280
850.545	22287
850.68	22276
850.815	22462
850.95	22348
851.085	22504
851.22	22409
851.355	22329
851.49	22299
851.625	22344
851.76	22280
851.895	22371
852.03	22337
852.165	22424
852.299	22356
852.434	22485
852.569	22394
852.703	22386
852.838	22523
852.973	22402
853.107	22569
853.242	22417
853.376	22272
853.511	22032
853.645	22135
853.78	22280
853.914	22238
854.048	22128
854.183	22249
854.317	22261
854.451	22436
854.585	22303
854.72	22188
854.854	22185
854.988	22162
855.122	22097
855.256	22093
855.39	22230
855.524	22131
855.658	22173
855.792	22097
855.926	22150
856.06	22226
856.194	22295
856.327	22253
856.461	22097
856.595	22093
856.729	22207
856.862	22356
856.996	22078
857.13	22268
857.263	22265
857.397	22318
857.53	22124
857.664	22185
857.797	22253
857.931	22249
858.064	22253
858.197	22192
858.331	22109
858.464	22154
858.597	22135
858.731	22185
858.864	22109
858.997	22143
859.13	22124
859.263	22215
859.396	22211
859.529	22051
859.662	22158
859.795	22082
859.928	22196
860.061	22207
860.194	22303
860.327	22204
860.46	22120
860.592	22268
860.725	22398
860.858	22284
860.99	22173
861.123	22207
861.256	22158
861.388	22116
861.521	22900
861.653	22040
861.786	22025
861.918	22002
862.05	22055
862.183	22196
862.315	22230
862.447	22139
862.58	21983
862.712	21865
862.844	21793
862.976	21968
863.108	21968
863.24	22295
863.372	21701
863.504	21857
863.636	21766
863.768	21835
863.9	21926
864.032	21861
864.164	21827
864.296	21911
864.428	21953
864.559	21949
864.691	21892
864.823	21956
864.954	21968
865.086	21972
865.217	21747
865.349	21660
865.48	21835
865.612	21800
865.743	22017
865.875	21751
866.006	21686
866.137	21808
866.269	21850
866.4	21625
866.531	21701
866.662	21610
866.793	21717
866.924	21739
867.055	21705
867.186	21641
867.317	21705
867.448	21644
867.579	21641
867.71	21561
867.841	21648
867.972	21694
868.103	21633
868.233	21561
868.364	21705
868.495	21823
868.625	21895
868.756	22116
868.886	21804
869.017	21979
869.147	21964
869.278	22093
869.408	21922
869.539	21987
869.669	21987
869.799	21953
869.929	21998
870.06	21991
870.19	22230
870.32	22230
870.45	22253
870.58	22493
870.71	22379
870.84	22516
870.97	22356
871.1	22394
871.23	22382
871.36	22634
871.489	22508
871.619	22409
871.749	22440
871.879	22653
872.008	22675
872.138	22580
872.267	22577
872.397	22360
872.526	22303
872.656	22375
872.785	22337
872.915	22557
873.044	22733
873.173	22656
873.303	22656
873.432	22634
873.561	22546
873.69	22550
873.819	22550
873.948	22717
874.077	22622
874.206	22554
874.335	22462
874.464	22580
874.593	22812
874.722	22733
874.851	22850
874.979	22752
875.108	22816
875.237	22839
875.365	22710
875.494	22782
875.623	22866
875.751	22607
875.88	22717
876.008	22873
876.136	22946
876.265	23121
876.393	23254
876.521	23341
876.65	23235
876.778	23204
876.906	23022
877.034	23075
877.162	23132
877.29	23037
877.418	23136
877.546	23147
877.674	23067
877.802	23033
877.93	23178
878.058	23132
878.185	22968
878.313	22957
878.441	23090
878.568	22942
878.696	23022
878.824	23067
878.951	23162
879.079	23242
879.206	23410
879.333	23143
879.461	23147
879.588	23303
879.715	23239
879.842	23455
879.97	23223
880.097	22927
880.224	22850
880.351	22991
880.478	22946
880.605	22873
880.732	22801
880.859	23136
880.986	22858
881.112	22927
881.239	22748
881.366	22588
881.493	22637
881.619	22519
881.746	22462
881.872	22436
881.999	22599
882.125	22440
882.252	22569
882.378	22478
882.505	22527
882.631	22291
882.757	22147
882.883	22223
883.01	22253
883.136	22021
883.262	22055
883.388	22006
883.514	22078
883.64	22128
883.766	22078
883.892	21922
884.018	21949
884.143	22086
884.269	22196
884.395	21842
884.52	21850
884.646	21854
884.772	21819
884.897	21819
885.023	21736
885.148	21873
885.274	21911
885.399	21876
885.524	21911
885.65	21892
885.775	21892
885.9	21717
886.025	21854
886.15	21838
886.275	21789
886.4	21724
886.525	21793
886.65	21614
886.775	21755
886.9	21873
887.025	22013
887.149	21812
887.274	21648
887.399	21629
887.523	21477
887.648	21580
887.773	21412
887.897	21606
888.021	21618
888.146	21519
888.27	21720
888.395	21614
888.519	21530
888.643	21587
888.767	21538
888.891	21564
889.015	21317
889.139	21355
889.263	21329
889.387	21466
889.511	21458
889.635	21458
889.759	21412
889.883	21332
890.006	21256
890.13	21477
890.254	21348
890.377	21264
890.501	21131
890.624	21074
890.748	21108
890.871	20952
890.995	20929
891.118	20887
891.241	20952
891.364	20998
891.488	21005
891.611	20967
891.734	20944
891.857	20830
891.98	20880
892.103	20948
892.226	20929
892.349	20880
892.471	20731
892.594	20823
892.717	20815
892.839	20739
892.962	20842
893.085	20952
893.207	20788
893.33	20674
893.452	20659
893.575	20899
893.697	20800
893.819	21058
893.941	20937
894.064	20941
894.186	20708
894.308	20743
894.43	20952
894.552	20887
894.674	20746
894.796	20629
894.918	20845
895.04	20708
895.161	20857
895.283	20796
895.405	20590
895.526	20830
895.648	20785
895.769	20857
895.891	20811
896.012	20944
896.134	20815
896.255	20670
896.376	20674
896.498	20663
896.619	20883
896.74	20727
896.861	20823
896.982	21066
897.103	21180
897.224	21017
897.345	21074
897.466	20857
897.587	20941
897.708	21119
897.828	20857
897.949	20925
898.07	20868
898.19	20921
898.311	21081
898.431	20929
898.552	21005
898.672	20986
898.792	21024
898.913	20998
899.033	20834
899.153	20823
899.273	20655
899.393	20849
899.513	20765
899.633	20689
899.753	20697
899.873	20686
899.993	20697
900.113	20571
900.232	20750
900.352	20613
900.472	20621
900.591	20461
900.711	20511
900.83	20427
900.95	20590
901.069	20613
901.189	20336
901.308	20202
901.427	20001
901.546	19974
901.665	20122
901.784	19932
901.904	19963
902.023	19864
902.141	19677
902.26	19639
902.379	19609
902.498	19605
902.617	19613
902.735	19575
902.854	19586
902.973	19651
903.091	19266
903.21	19293
903.328	19308
903.446	19255
903.565	19088
903.683	19141
903.801	18905
903.919	19019
904.038	18962
904.156	18886
904.274	18947
904.392	18791
904.51	18829
904.627	18741
904.745	18894
904.863	18924
904.981	18608
905.098	18517
905.216	18422
905.334	18570
905.451	18528
905.569	18479
905.686	18460
905.803	18563
905.921	18258
906.038	18308
906.155	18422
906.272	18171
906.389	18190
906.506	18064
906.623	18098
906.74	17980
906.857	17870
906.974	17969
907.091	18110
907.208	18167
907.324	17999
907.441	17904
907.557	17863
907.674	17764
907.79	17733
907.907	17566
908.023	17821
908.139	17775
908.256	17596
908.372	17592
908.488	17634
908.604	17554
908.72	17444
908.836	17524
908.952	17417
909.068	17463
909.184	17497
909.3	17379
909.415	17554
909.531	17436
909.647	17105
909.762	17128
909.878	17105
909.993	17155
910.108	17124
910.224	17083
910.339	17162
910.454	16984
910.57	17037
910.685	16843
910.8	17239
910.915	17151
911.03	16934
911.145	16835
911.259	16778
911.374	16596
911.489	16660
911.604	16542
911.718	16550
911.833	16546
911.947	16352
912.062	16375
912.176	16489
912.291	16451
912.405	16421
912.519	16706
912.633	16675
912.748	16481
912.862	16531
912.976	16360
913.09	16223
913.204	16215
913.318	16280
913.431	16291
913.545	16291
913.659	16356
913.772	16238
913.886	16135
914	16154
914.113	16181
914.226	16204
914.34	16150
914.453	15945
914.566	16173
914.68	15964
914.793	15907
914.906	15675
915.019	15755
915.132	15644
915.245	15625
915.358	15663
915.47	15690
915.583	15713
915.696	15690
915.809	15770
915.921	15759
916.034	15603
916.146	15530
916.259	15587
916.371	15709
916.483	15572
916.595	15511
916.708	15504
916.82	15526
916.932	15382
917.044	15435
917.156	15344
917.268	15336
917.38	15382
917.491	15298
917.603	15214
917.715	15367
917.826	15370
917.938	15249
918.049	15089
918.161	15298
918.272	15370
918.384	15428
918.495	15154
918.606	15036
918.717	15043
918.828	15070
918.939	15100
919.05	14986
919.161	15028
919.272	14944
919.383	14883
919.494	15032
919.604	15211
919.715	15108
919.826	14967
919.936	14998
920.047	15131
920.157	14986
920.267	15173
920.378	14929
920.488	14948
920.598	15157
920.708	15302
920.818	15214
920.928	15237
921.038	15317
921.148	15310
921.258	14918
921.368	14754
921.477	14651
921.587	14670
921.697	14476
921.806	14746
921.916	14587
922.025	14362
922.134	14355
922.244	14324
922.353	14404
922.462	14252
922.571	14180
922.68	14065
922.789	14012
922.898	14043
923.007	13928
923.116	14077
923.224	13890
923.333	13902
923.442	13837
923.55	13837
923.659	13803
923.767	13887
923.876	13852
923.984	13841
924.092	13750
924.201	13765
924.309	13746
924.417	13780
924.525	13674
924.633	13696
924.741	14438
924.849	13381
924.956	13575
925.064	13445
925.172	13339
925.279	13373
925.387	13491
925.494	13480
925.602	13480
925.709	13449
925.816	13384
925.924	13384
926.031	13449
926.138	13282
926.245	13422
926.352	13221
926.459	13362
926.566	13324
926.673	13293
926.779	13190
926.886	13103
926.993	12973
927.099	13046
927.206	12890
927.312	12951
927.419	13065
927.525	12973
927.631	12970
927.737	12844
927.843	12848
927.95	12715
928.056	12776
928.162	12783
928.267	12817
928.373	13384
928.479	12867
928.585	12673
928.69	12650
928.796	12837
928.901	12677
929.007	12506
929.112	12707
929.218	12525
929.323	12532
929.428	12418
929.533	12673
929.638	12426
929.743	12395
929.848	12441
929.953	12464
930.058	12338
930.163	12102
930.267	12224
930.372	12270
930.477	12121
930.581	12365
930.685	12239
930.79	12003
930.894	12095
930.998	12007
931.103	12167
931.207	11760
931.311	11691
931.415	11585
931.519	11372
931.623	11402
