Data from test_V78500241_1037.txt Node
Date: Fri Mar 25 15:48:59 CST 2022
User: usil
Spectrometer: V785-0024
Trigger mode: 0
Integration Time (sec): 4.000000E-1
Scans to average: 1
Nonlinearity correction enabled: false
Boxcar width: 0
Storing dark spectrum: false
XAxis mode: Wavelengths
Number of Pixels in Spectrum: 1024
>>>>>Begin Spectral Data<<<<<
801.071	27291
801.214	27226
801.356	26967
801.499	26948
801.641	26880
801.783	26826
801.926	26823
802.068	26883
802.211	26712
802.353	26667
802.496	26552
802.638	26511
802.78	26446
802.923	26355
803.065	26438
803.208	26434
803.35	26495
803.492	26522
803.635	26598
803.777	26408
803.919	26682
804.061	26914
804.204	26758
804.346	26533
804.488	26583
804.63	26484
804.773	26473
804.915	26427
805.057	26495
805.199	26655
805.341	26651
805.483	26720
805.626	26765
805.768	26651
805.91	26735
806.052	26758
806.194	26758
806.336	26960
806.478	26899
806.62	26823
806.762	26906
806.904	27077
807.046	27317
807.188	27176
807.33	27096
807.472	27222
807.614	27138
807.756	27226
807.898	27066
808.04	27093
808.182	27039
808.324	27100
808.465	27024
808.607	27272
808.749	27367
808.891	27477
809.033	27538
809.174	27412
809.316	27420
809.458	27408
809.6	27237
809.741	27515
809.883	27568
810.025	27694
810.166	27618
810.308	27675
810.45	27804
810.591	27583
810.733	27427
810.875	27310
811.016	27287
811.158	27260
811.299	27454
811.441	27606
811.582	27568
811.724	27386
811.865	27291
812.007	27435
812.148	27207
812.29	27389
812.431	27462
812.573	27705
812.714	27823
812.855	27797
812.997	27774
813.138	28021
813.279	28067
813.421	27895
813.562	27838
813.703	27732
813.845	27603
813.986	27348
814.127	27112
814.268	26853
814.41	27017
814.551	27024
814.692	27169
814.833	27028
814.974	27131
815.115	27142
815.256	26853
815.397	26899
815.539	26971
815.68	26788
815.821	26834
815.962	26811
816.103	26830
816.244	26819
816.385	26549
816.526	26632
816.666	26343
816.807	26320
816.948	26442
817.089	26499
817.23	26362
817.371	26275
817.512	26214
817.653	26294
817.793	26252
817.934	26313
818.075	26343
818.216	26389
818.356	26328
818.497	26221
818.638	26031
818.778	26054
818.919	25989
819.06	26081
819.2	26229
819.341	26244
819.481	26244
819.622	26526
819.762	26590
819.903	26450
820.043	26431
820.184	26374
820.324	26389
820.465	26408
820.605	26370
820.746	26453
820.886	26282
821.026	26320
821.167	26415
821.307	26457
821.447	26343
821.588	26229
821.728	26145
821.868	25978
822.008	25780
822.149	25757
822.289	25932
822.429	25502
822.569	25350
822.709	25487
822.849	25354
822.99	25293
823.13	25194
823.27	25217
823.41	25099
823.55	25088
823.69	25179
823.83	25179
823.97	25042
824.11	24871
824.25	24882
824.389	24913
824.529	25008
824.669	24977
824.809	25008
824.949	25027
825.089	24882
825.228	25000
825.368	24719
825.508	24677
825.648	24852
825.787	24684
825.927	24901
826.067	24715
826.206	24585
826.346	24776
826.485	24920
826.625	24703
826.765	24859
826.904	24810
827.044	24658
827.183	24563
827.323	24418
827.462	24601
827.601	24456
827.741	24566
827.88	24544
828.02	24357
828.159	24441
828.298	24486
828.437	24547
828.577	24445
828.716	24467
828.855	24414
828.994	24220
829.134	24292
829.273	24174
829.412	24121
829.551	24095
829.69	24171
829.829	24106
829.968	24228
830.107	24140
830.246	24178
830.385	24247
830.524	24079
830.663	24045
830.802	23946
830.941	23923
831.08	23874
831.219	23893
831.357	23802
831.496	24030
831.635	23646
831.774	23748
831.913	23646
832.051	23573
832.19	23657
832.329	23581
832.467	23387
832.606	23444
832.744	23368
832.883	23630
833.022	23497
833.16	23524
833.299	23520
833.437	23543
833.576	23436
833.714	23539
833.852	23581
833.991	23608
834.129	23589
834.267	23638
834.406	23535
834.544	23524
834.682	23410
834.821	23433
834.959	23676
835.097	23364
835.235	23471
835.373	23406
835.511	23551
835.65	23398
835.788	23391
835.926	23277
836.064	23231
836.202	23147
836.34	23337
836.478	23421
836.615	23341
836.753	23242
836.891	23334
837.029	23334
837.167	23265
837.305	23231
837.443	23151
837.58	23166
837.718	23231
837.856	23250
837.993	23166
838.131	23079
838.269	23098
838.406	23166
838.544	23041
838.681	22843
838.819	22809
838.956	22679
839.094	22573
839.231	22637
839.369	22797
839.506	23090
839.643	22991
839.781	22729
839.918	22713
840.055	22645
840.193	22637
840.33	22611
840.467	22656
840.604	22694
840.742	22911
840.879	22440
841.016	22615
841.153	22557
841.29	22683
841.427	22672
841.564	22645
841.701	22584
841.838	22546
841.975	22554
842.112	22504
842.249	22287
842.385	22405
842.522	22500
842.659	22459
842.796	22390
842.933	22409
843.069	22261
843.206	22280
843.343	22356
843.479	22348
843.616	22337
843.752	22143
843.889	22128
844.025	22360
844.162	22063
844.298	22230
844.435	22124
844.571	22116
844.708	22143
844.844	22333
844.98	22166
845.117	22188
845.253	22036
845.389	21911
845.525	21987
845.661	21983
845.798	21873
845.934	21937
846.07	21804
846.206	21865
846.342	22029
846.478	21785
846.614	21469
846.75	21534
846.886	21652
847.022	21663
847.158	21595
847.294	21595
847.429	21526
847.565	21587
847.701	21857
847.837	21431
847.972	21279
848.108	21420
848.244	21397
848.379	21233
848.515	21230
848.65	21104
848.786	21173
848.921	21211
849.057	21249
849.192	21340
849.328	21157
849.463	21131
849.598	21096
849.734	21074
849.869	21036
850.004	21116
850.14	20937
850.275	21036
850.41	20849
850.545	20872
850.68	20967
850.815	20906
850.95	20986
851.085	21127
851.22	21093
851.355	20990
851.49	20982
851.625	20902
851.76	20868
851.895	20895
852.03	20933
852.165	20887
852.299	21055
852.434	20967
852.569	20963
852.703	20921
852.838	20960
852.973	21020
853.107	20975
853.242	20876
853.376	20674
853.511	20682
853.645	20807
853.78	20876
853.914	20743
854.048	20765
854.183	20678
854.317	20811
854.451	20975
854.585	20663
854.72	20731
854.854	20826
854.988	20686
855.122	20651
855.256	20667
855.39	20750
855.524	20937
855.658	20849
855.792	20701
855.926	20750
856.06	20800
856.194	20853
856.327	20746
856.461	20758
856.595	20708
856.729	20773
856.862	20815
856.996	20750
857.13	20811
857.263	20845
857.397	20864
857.53	20845
857.664	20925
857.797	20899
857.931	20883
858.064	20918
858.197	20857
858.331	20663
858.464	20720
858.597	20701
858.731	20804
858.864	20743
858.997	20769
859.13	20743
859.263	20670
859.396	20899
859.529	20705
859.662	20644
859.795	20743
859.928	20887
860.061	20921
860.194	21051
860.327	20853
860.46	20914
860.592	20811
860.725	20895
860.858	20804
860.99	20796
861.123	20731
861.256	20712
861.388	20716
861.521	21610
861.653	20746
861.786	20499
861.918	20644
862.05	20625
862.183	20613
862.315	20762
862.447	20678
862.58	20697
862.712	20549
862.844	20442
862.976	20621
863.108	20549
863.24	20990
863.372	20457
863.504	20530
863.636	20522
863.768	20533
863.9	20442
864.032	20396
864.164	20476
864.296	20408
864.428	20507
864.559	20655
864.691	20659
864.823	20552
864.954	20518
865.086	20473
865.217	20431
865.349	20343
865.48	20362
865.612	20324
865.743	20514
865.875	20499
866.006	20366
866.137	20389
866.269	20457
866.4	20396
866.531	20336
866.662	20324
866.793	20343
866.924	20415
867.055	20370
867.186	20290
867.317	20115
867.448	20301
867.579	20259
867.71	20214
867.841	20214
867.972	20393
868.103	20309
868.233	20309
868.364	20282
868.495	20381
868.625	20533
868.756	20625
868.886	20461
869.017	20438
869.147	20746
869.278	20792
869.408	20644
869.539	20602
869.669	20644
869.799	20648
869.929	20739
870.06	20804
870.19	20811
870.32	20990
870.45	21032
870.58	20941
870.71	21127
870.84	21085
870.97	20990
871.1	21062
871.23	21135
871.36	21233
871.489	20982
871.619	21081
871.749	21169
871.879	21218
872.008	21211
872.138	21127
872.267	21093
872.397	21077
872.526	21020
872.656	20952
872.785	20941
872.915	21131
873.044	21218
873.173	21184
873.303	21195
873.432	21268
873.561	21355
873.69	21093
873.819	21245
873.948	21283
874.077	21138
874.206	21116
874.335	21252
874.464	21412
874.593	21431
874.722	21393
874.851	21382
874.979	21447
875.108	21530
875.237	21435
875.365	21310
875.494	21332
875.623	21405
875.751	21313
875.88	21378
876.008	21599
876.136	21443
876.265	21812
876.393	22013
876.521	21804
876.65	21842
876.778	21785
876.906	21698
877.034	21846
877.162	21759
877.29	21732
877.418	21819
877.546	21781
877.674	21842
877.802	21717
877.93	21827
878.058	21785
878.185	21694
878.313	21713
878.441	21793
878.568	21622
878.696	21652
878.824	21774
878.951	21857
879.079	22002
879.206	22131
879.333	21865
879.461	21743
879.588	21941
879.715	21994
879.842	21972
879.97	21960
880.097	21671
880.224	21679
880.351	21663
880.478	21720
880.605	21564
880.732	21530
880.859	21911
880.986	21690
881.112	21614
881.239	21526
881.366	21431
881.493	21275
881.619	21218
881.746	21161
881.872	21192
881.999	21302
882.125	21096
882.252	21150
882.378	21222
882.505	21279
882.631	20986
882.757	20857
882.883	20960
883.01	20891
883.136	20910
883.262	20830
883.388	20849
883.514	20880
883.64	20998
883.766	20678
883.892	20708
884.018	20674
884.143	20902
884.269	20956
884.395	20476
884.52	20526
884.646	20514
884.772	20556
884.897	20415
885.023	20530
885.148	20659
885.274	20568
885.399	20583
885.524	20419
885.65	20590
885.775	20564
885.9	20503
886.025	20533
886.15	20648
886.275	20629
886.4	20442
886.525	20488
886.65	20412
886.775	20450
886.9	20583
887.025	20830
887.149	20545
887.274	20454
887.399	20328
887.523	20377
887.648	20119
887.773	20358
887.897	20385
888.021	20328
888.146	20248
888.27	20438
888.395	20396
888.519	20294
888.643	20286
888.767	20362
888.891	20187
889.015	20020
889.139	20183
889.263	20138
889.387	20164
889.511	20324
889.635	20153
889.759	20077
889.883	20164
890.006	20043
890.13	20221
890.254	20039
890.377	19993
890.501	19864
890.624	19769
890.748	20005
890.871	19856
890.995	19700
891.118	19734
891.241	19761
891.364	19761
891.488	19830
891.611	19727
891.734	19738
891.857	19715
891.98	19685
892.103	19704
892.226	19727
892.349	19540
892.471	19544
892.594	19521
892.717	19590
892.839	19582
892.962	19647
893.085	19723
893.207	19582
893.33	19666
893.452	19483
893.575	19590
893.697	19624
893.819	19841
893.941	19822
894.064	19772
894.186	19605
894.308	19449
894.43	19738
894.552	19708
894.674	19712
894.796	19651
894.918	19552
895.04	19620
895.161	19765
895.283	19693
895.405	19506
895.526	19624
895.648	19696
895.769	19651
895.891	19537
896.012	19601
896.134	19613
896.255	19655
896.376	19643
896.498	19704
896.619	19727
896.74	19605
896.861	19681
896.982	19928
897.103	20054
897.224	19921
897.345	19818
897.466	19841
897.587	19852
897.708	19913
897.828	19989
897.949	19772
898.07	19643
898.19	19620
898.311	19955
898.431	19830
898.552	19898
898.672	19936
898.792	19982
898.913	19868
899.033	19746
899.153	19601
899.273	19582
899.393	19601
899.513	19571
899.633	19582
899.753	19731
899.873	19624
899.993	19616
900.113	19540
900.232	19616
900.352	19601
900.472	19609
900.591	19350
900.711	19396
900.83	19324
900.95	19403
901.069	19525
901.189	19491
901.308	19145
901.427	19027
901.546	18989
901.665	18981
901.784	18989
901.904	18871
902.023	18738
902.141	18608
902.26	18544
902.379	18597
902.498	18483
902.617	18490
902.735	18559
902.854	18437
902.973	18456
903.091	18308
903.21	18174
903.328	18167
903.446	18155
903.565	18064
903.683	18007
903.801	17904
903.919	17969
904.038	17950
904.156	17741
904.274	17840
904.392	17767
904.51	17737
904.627	17828
904.745	17824
904.863	17703
904.981	17668
905.098	17379
905.216	17474
905.334	17543
905.451	17452
905.569	17414
905.686	17452
905.803	17501
905.921	17231
906.038	17284
906.155	17292
906.272	17235
906.389	17090
906.506	16984
906.623	17029
906.74	16999
906.857	16892
906.974	16927
907.091	16991
907.208	17048
907.324	16991
907.441	16816
907.557	16831
907.674	16744
907.79	16637
907.907	16698
908.023	16744
908.139	16679
908.256	16694
908.372	16516
908.488	16561
908.604	16546
908.72	16421
908.836	16386
908.952	16394
909.068	16424
909.184	16500
909.3	16337
909.415	16527
909.531	16546
909.647	16143
909.762	16131
909.878	16200
909.993	16196
910.108	16055
910.224	16116
910.339	16032
910.454	15956
910.57	15915
910.685	15842
910.8	16067
910.915	16135
911.03	15888
911.145	15785
911.259	15701
911.374	15652
911.489	15686
911.604	15553
911.718	15386
911.833	15534
911.947	15435
912.062	15321
912.176	15530
912.291	15515
912.405	15504
912.519	15762
912.633	15667
912.748	15515
912.862	15393
912.976	15332
913.09	15161
913.204	15142
913.318	15344
913.431	15420
913.545	15340
913.659	15401
913.772	15203
913.886	15047
914	15036
914.113	15237
914.226	15214
914.34	15169
914.453	15062
914.566	15230
914.68	15032
914.793	14994
914.906	14754
915.019	14731
915.132	14708
915.245	14629
915.358	14678
915.47	14792
915.583	14754
915.696	14651
915.809	14762
915.921	14960
916.034	14739
916.146	14629
916.259	14632
916.371	14712
916.483	14689
916.595	14625
916.708	14590
916.82	14579
916.932	14530
917.044	14533
917.156	14541
917.268	14427
917.38	14328
917.491	14343
917.603	14374
917.715	14385
917.826	14423
917.938	14294
918.049	14252
918.161	14309
918.272	14408
918.384	14438
918.495	14415
918.606	14187
918.717	14168
918.828	14248
918.939	14187
919.05	14126
919.161	14119
919.272	13936
919.383	14024
919.494	14225
919.604	14320
919.715	14157
919.826	14077
919.936	14206
920.047	14123
920.157	14123
920.267	14393
920.378	14142
920.488	14073
920.598	14328
920.708	14461
920.818	14214
920.928	14305
921.038	14454
921.148	14347
921.258	14062
921.368	14046
921.477	13909
921.587	13894
921.697	13772
921.806	13944
921.916	13753
922.025	13632
922.134	13548
922.244	13529
922.353	13548
922.462	13499
922.571	13396
922.68	13145
922.789	13209
922.898	13190
923.007	13114
923.116	13069
923.224	13183
923.333	13160
923.442	13114
923.55	13008
923.659	13008
923.767	13034
923.876	12935
923.984	13103
924.092	12871
924.201	12981
924.309	12954
924.417	12962
924.525	12875
924.633	12745
924.741	13643
924.849	12726
924.956	12741
925.064	12658
925.172	12574
925.279	12658
925.387	12608
925.494	12642
925.602	12711
925.709	12627
925.816	12547
925.924	12574
926.031	12593
926.138	12525
926.245	12574
926.352	12502
926.459	12650
926.566	12677
926.673	12414
926.779	12418
926.886	12445
926.993	12216
927.099	12235
927.206	12190
927.312	12110
927.419	12224
927.525	12266
927.631	12251
927.737	12064
927.843	12079
927.95	11950
928.056	12060
928.162	11992
928.267	12121
928.373	12627
928.479	12076
928.585	11927
928.69	11942
928.796	12121
928.901	11840
929.007	11684
929.112	11790
929.218	11954
929.323	11828
929.428	11729
929.533	11897
929.638	11714
929.743	11741
929.848	11817
929.953	11668
930.058	11600
930.163	11501
930.267	11448
930.372	11581
930.477	11459
930.581	11668
930.685	11535
930.79	11376
930.894	11334
930.998	11353
931.103	11376
931.207	11132
931.311	11079
931.415	10957
931.519	10824
931.623	10786
