Data from test_V78500241_3140.txt Node
Date: Fri Mar 25 16:03:33 CST 2022
User: usil
Spectrometer: V785-0024
Trigger mode: 0
Integration Time (sec): 4.000000E-1
Scans to average: 1
Nonlinearity correction enabled: false
Boxcar width: 0
Storing dark spectrum: false
XAxis mode: Wavelengths
Number of Pixels in Spectrum: 1024
>>>>>Begin Spectral Data<<<<<
801.071	28508
801.214	28428
801.356	28401
801.499	28299
801.641	28177
801.783	28105
801.926	28044
802.068	28200
802.211	28002
802.353	28116
802.496	27922
802.638	27797
802.78	27633
802.923	27713
803.065	27606
803.208	27800
803.35	27911
803.492	27956
803.635	27899
803.777	27972
803.919	28006
804.061	28405
804.204	28059
804.346	28010
804.488	28059
804.63	28093
804.773	27865
804.915	28143
805.057	28204
805.199	28169
805.341	28112
805.483	28188
805.626	28101
805.768	28055
805.91	28135
806.052	28181
806.194	28143
806.336	28318
806.478	28318
806.62	28013
806.762	28428
806.904	28481
807.046	28649
807.188	28656
807.33	28702
807.472	28748
807.614	28672
807.756	28592
807.898	28504
808.04	28546
808.182	28523
808.324	28497
808.465	28512
808.607	28592
808.749	28790
808.891	28953
809.033	29155
809.174	29044
809.316	28740
809.458	28850
809.6	28927
809.741	28892
809.883	29018
810.025	29246
810.166	29136
810.308	29330
810.45	28965
810.591	29075
810.733	28987
810.875	28892
811.016	28888
811.158	28885
811.299	28980
811.441	29060
811.582	29124
811.724	28965
811.865	28946
812.007	28858
812.148	28927
812.29	29018
812.431	29014
812.573	29136
812.714	29425
812.855	29387
812.997	29505
813.138	29623
813.279	29596
813.421	29387
813.562	29417
813.703	29311
813.845	29170
813.986	28809
814.127	28691
814.268	28577
814.41	28763
814.551	28557
814.692	28656
814.833	28459
814.974	28569
815.115	28668
815.256	28478
815.397	28519
815.539	28592
815.68	28341
815.821	28295
815.962	28466
816.103	28299
816.244	28314
816.385	28303
816.526	28295
816.666	28116
816.807	28006
816.948	27956
817.089	28040
817.23	27835
817.371	27888
817.512	27941
817.653	27994
817.793	27812
817.934	27884
818.075	27994
818.216	28032
818.356	27899
818.497	27854
818.638	27622
818.778	27599
818.919	27644
819.06	27713
819.2	27819
819.341	27922
819.481	27827
819.622	28135
819.762	28249
819.903	28242
820.043	28226
820.184	28082
820.324	28109
820.465	28074
820.605	27895
820.746	28166
820.886	27823
821.026	28105
821.167	28036
821.307	28124
821.447	27994
821.588	27899
821.728	27629
821.868	27580
822.008	27412
822.149	27329
822.289	27488
822.429	27211
822.569	27165
822.709	26960
822.849	26788
822.99	26929
823.13	26872
823.27	26861
823.41	26743
823.55	26560
823.69	26842
823.83	26674
823.97	26720
824.11	26564
824.25	26518
824.389	26549
824.529	26583
824.669	26511
824.809	26777
824.949	26697
825.089	26629
825.228	26613
825.368	26438
825.508	26450
825.648	26457
825.787	26511
825.927	26583
826.067	26347
826.206	26309
826.346	26434
826.485	26488
826.625	26415
826.765	26518
826.904	26533
827.044	26393
827.183	26229
827.323	26195
827.462	26309
827.601	26081
827.741	26096
827.88	26157
828.02	26073
828.159	26012
828.298	26183
828.437	26161
828.577	26172
828.716	26221
828.855	26043
828.994	25803
829.134	25894
829.273	25818
829.412	25894
829.551	25868
829.69	25852
829.829	25780
829.968	25940
830.107	25921
830.246	25837
830.385	25822
830.524	25795
830.663	25575
830.802	25491
830.941	25445
831.08	25373
831.219	25556
831.357	25521
831.496	25811
831.635	25479
831.774	25487
831.913	25335
832.051	25251
832.19	25122
832.329	25331
832.467	25034
832.606	25152
832.744	25069
832.883	25091
833.022	25164
833.16	25156
833.299	25255
833.437	25304
833.576	25133
833.714	25274
833.852	25209
833.991	25266
834.129	25362
834.267	25152
834.406	25213
834.544	25343
834.682	25255
834.821	25263
834.959	25282
835.097	25187
835.235	25228
835.373	25213
835.511	25278
835.65	24966
835.788	24996
835.926	25084
836.064	24772
836.202	24909
836.34	25183
836.478	25015
836.615	24878
836.753	25103
836.891	25126
837.029	25034
837.167	24856
837.305	24894
837.443	24905
837.58	24928
837.718	24943
837.856	24985
837.993	24791
838.131	24897
838.269	24620
838.406	24757
838.544	24779
838.681	24532
838.819	24426
838.956	24448
839.094	24296
839.231	24479
839.369	24433
839.506	24650
839.643	24616
839.781	24289
839.918	24194
840.055	24319
840.193	24159
840.33	24323
840.467	24300
840.604	24239
840.742	24544
840.879	23996
841.016	24163
841.153	24129
841.29	24254
841.427	24159
841.564	24270
841.701	24216
841.838	24182
841.975	24076
842.112	24011
842.249	24068
842.385	23958
842.522	24182
842.659	24129
842.796	23999
842.933	23980
843.069	23878
843.206	24015
843.343	24079
843.479	23965
843.616	24095
843.752	23767
843.889	23726
844.025	23946
844.162	23794
844.298	23851
844.435	23824
844.571	23809
844.708	23737
844.844	23737
844.98	23836
845.117	23824
845.253	23745
845.389	23535
845.525	23710
845.661	23615
845.798	23547
845.934	23649
846.07	23516
846.206	23680
846.342	23558
846.478	23482
846.614	23246
846.75	23136
846.886	23280
847.022	23414
847.158	23258
847.294	23296
847.429	23356
847.565	23105
847.701	23452
847.837	23022
847.972	22873
848.108	23083
848.244	23124
848.379	22881
848.515	22835
848.65	22816
848.786	22767
848.921	22847
849.057	22900
849.192	22915
849.328	22797
849.463	22812
849.598	22839
849.734	22691
849.869	22535
850.004	22516
850.14	22607
850.275	22599
850.41	22664
850.545	22504
850.68	22405
850.815	22603
850.95	22626
851.085	22694
851.22	22736
851.355	22603
851.49	22634
851.625	22466
851.76	22451
851.895	22462
852.03	22432
852.165	22489
852.299	22622
852.434	22626
852.569	22618
852.703	22660
852.838	22653
852.973	22702
853.107	22611
853.242	22569
853.376	22535
853.511	22268
853.645	22436
853.78	22455
853.914	22329
854.048	22333
854.183	22421
854.317	22417
854.451	22489
854.585	22421
854.72	22329
854.854	22409
854.988	22268
855.122	22413
855.256	22215
855.39	22325
855.524	22459
855.658	22447
855.792	22462
855.926	22379
856.06	22329
856.194	22459
856.327	22447
856.461	22386
856.595	22249
856.729	22398
856.862	22523
856.996	22394
857.13	22474
857.263	22409
857.397	22356
857.53	22291
857.664	22417
857.797	22451
857.931	22542
858.064	22348
858.197	22497
858.331	22291
858.464	22409
858.597	22299
858.731	22246
858.864	22310
858.997	22314
859.13	22447
859.263	22424
859.396	22386
859.529	22428
859.662	22386
859.795	22299
859.928	22443
860.061	22523
860.194	22683
860.327	22531
860.46	22337
860.592	22523
860.725	22455
860.858	22611
860.99	22489
861.123	22261
861.256	22394
861.388	22413
861.521	23044
861.653	22120
861.786	22131
861.918	22257
862.05	22325
862.183	22352
862.315	22367
862.447	22379
862.58	22249
862.712	22158
862.844	22166
862.976	22105
863.108	22173
863.24	22504
863.372	22025
863.504	22070
863.636	22105
863.768	22013
863.9	22074
864.032	21949
864.164	22059
864.296	22090
864.428	22261
864.559	22109
864.691	22306
864.823	22120
864.954	22116
865.086	22109
865.217	22048
865.349	21876
865.48	21903
865.612	21876
865.743	22242
865.875	22017
866.006	22025
866.137	21888
866.269	21876
866.4	21930
866.531	21823
866.662	21934
866.793	21918
866.924	21899
867.055	21937
867.186	21873
867.317	21956
867.448	21804
867.579	21941
867.71	21838
867.841	21739
867.972	21888
868.103	21876
868.233	21926
868.364	21861
868.495	22051
868.625	22120
868.756	22325
868.886	22177
869.017	22211
869.147	22223
869.278	22219
869.408	22032
869.539	22124
869.669	22310
869.799	22082
869.929	22276
870.06	22192
870.19	22421
870.32	22474
870.45	22432
870.58	22519
870.71	22584
870.84	22607
870.97	22584
871.1	22535
871.23	22725
871.36	22786
871.489	22656
871.619	22774
871.749	22721
871.879	22824
872.008	22839
872.138	22904
872.267	22873
872.397	22557
872.526	22588
872.656	22546
872.785	22531
872.915	22809
873.044	22771
873.173	22653
873.303	22797
873.432	22748
873.561	22843
873.69	22733
873.819	22771
873.948	22702
874.077	22797
874.206	22698
874.335	22622
874.464	22892
874.593	22995
874.722	22911
874.851	23033
874.979	23003
875.108	22999
875.237	22919
875.365	22908
875.494	22915
875.623	22923
875.751	22930
875.88	23075
876.008	23121
876.136	23064
876.265	23395
876.393	23482
876.521	23505
876.65	23303
876.778	23337
876.906	23197
877.034	23360
877.162	23273
877.29	23250
877.418	23330
877.546	23368
877.674	23299
877.802	23307
877.93	23315
878.058	23288
878.185	23143
878.313	23178
878.441	23242
878.568	23162
878.696	23147
878.824	23539
878.951	23398
879.079	23490
879.206	23592
879.333	23360
879.461	23299
879.588	23463
879.715	23414
879.842	23634
879.97	23467
880.097	23067
880.224	23178
880.351	23113
880.478	22965
880.605	23189
880.732	23147
880.859	23326
880.986	23060
881.112	23174
881.239	22942
881.366	22896
881.493	22877
881.619	22691
881.746	22683
881.872	22752
881.999	22683
882.125	22702
882.252	22740
882.378	22516
882.505	22778
882.631	22523
882.757	22424
882.883	22493
883.01	22352
883.136	22367
883.262	22291
883.388	22215
883.514	22455
883.64	22382
883.766	22329
883.892	22055
884.018	22219
884.143	22409
884.269	22234
884.395	22086
884.52	22010
884.646	22032
884.772	22059
884.897	21903
885.023	21945
885.148	22166
885.274	22158
885.399	22158
885.524	21991
885.65	22036
885.775	21903
885.9	21793
886.025	21968
886.15	22059
886.275	21975
886.4	21972
886.525	21861
886.65	21911
886.775	21956
886.9	22063
887.025	22181
887.149	21934
887.274	21739
887.399	21755
887.523	21884
887.648	21675
887.773	21701
887.897	21880
888.021	21823
888.146	21622
888.27	21918
888.395	21823
888.519	21701
888.643	21774
888.767	21861
888.891	21652
889.015	21428
889.139	21625
889.263	21587
889.387	21614
889.511	21728
889.635	21781
889.759	21473
889.883	21545
890.006	21473
890.13	21679
890.254	21466
890.377	21401
890.501	21317
890.624	21279
890.748	21298
890.871	21272
890.995	21123
891.118	21055
891.241	21192
891.364	21264
891.488	21252
891.611	21020
891.734	21123
891.857	21173
891.98	21180
892.103	21150
892.226	21135
892.349	21009
892.471	20956
892.594	21009
892.717	21051
892.839	20937
892.962	21062
893.085	21039
893.207	20960
893.33	20925
893.452	20880
893.575	21032
893.697	20906
893.819	21074
893.941	21165
894.064	21127
894.186	20963
894.308	20925
894.43	21154
894.552	21085
894.674	21119
894.796	21036
894.918	21028
895.04	20967
895.161	21085
895.283	21028
895.405	20834
895.526	20971
895.648	20788
895.769	21058
895.891	21093
896.012	21039
896.134	20998
896.255	20960
896.376	20925
896.498	20979
896.619	21036
896.74	20929
896.861	21096
896.982	21279
897.103	21496
897.224	21245
897.345	21165
897.466	21256
897.587	21161
897.708	21340
897.828	21135
897.949	21142
898.07	20979
898.19	21127
898.311	21252
898.431	21135
898.552	21192
898.672	21279
898.792	21344
898.913	21199
899.033	21017
899.153	20975
899.273	20804
899.393	20864
899.513	20952
899.633	20834
899.753	21001
899.873	20853
899.993	20876
900.113	20899
900.232	20887
900.352	20746
900.472	20834
900.591	20617
900.711	20788
900.83	20686
900.95	20629
901.069	20727
901.189	20579
901.308	20328
901.427	20214
901.546	20229
901.665	20252
901.784	20210
901.904	20149
902.023	20084
902.141	19909
902.26	19894
902.379	19887
902.498	19795
902.617	19571
902.735	19814
902.854	19674
902.973	19571
903.091	19506
903.21	19476
903.328	19460
903.446	19251
903.565	19282
903.683	19225
903.801	19076
903.919	19103
904.038	19095
904.156	18943
904.274	19088
904.392	18951
904.51	18905
904.627	18993
904.745	18970
904.863	18985
904.981	18806
905.098	18582
905.216	18692
905.334	18654
905.451	18669
905.569	18738
905.686	18639
905.803	18589
905.921	18330
906.038	18483
906.155	18426
906.272	18410
906.389	18285
906.506	18209
906.623	18213
906.74	18098
906.857	17996
906.974	18102
907.091	18133
907.208	18270
907.324	18125
907.441	18068
907.557	18003
907.674	17809
907.79	17923
907.907	17904
908.023	17977
908.139	17893
908.256	17817
908.372	17790
908.488	17802
908.604	17649
908.72	17532
908.836	17516
908.952	17619
909.068	17558
909.184	17661
909.3	17554
909.415	17668
909.531	17509
909.647	17303
909.762	17429
909.878	17421
909.993	17307
910.108	17356
910.224	17303
910.339	17204
910.454	17102
910.57	17064
910.685	17067
910.8	17311
910.915	17242
911.03	17086
911.145	16904
911.259	16854
911.374	16790
911.489	16866
911.604	16831
911.718	16554
911.833	16531
911.947	16531
912.062	16500
912.176	16672
912.291	16660
912.405	16584
912.519	16786
912.633	16862
912.748	16668
912.862	16546
912.976	16405
913.09	16272
913.204	16478
913.318	16523
913.431	16443
913.545	16470
913.659	16584
913.772	16356
913.886	16238
914	16238
914.113	16318
914.226	16306
914.34	16234
914.453	16147
914.566	16143
914.68	16093
914.793	16025
914.906	15915
915.019	15873
915.132	15701
915.245	15865
915.358	15827
915.47	15747
915.583	15869
915.696	15732
915.809	15911
915.921	15945
916.034	15736
916.146	15705
916.259	15622
916.371	15899
916.483	15778
916.595	15606
916.708	15648
916.82	15538
916.932	15511
917.044	15584
917.156	15625
917.268	15306
917.38	15473
917.491	15454
917.603	15439
917.715	15530
917.826	15408
917.938	15386
918.049	15192
918.161	15287
918.272	15424
918.384	15450
918.495	15378
918.606	15233
918.717	15077
918.828	15214
918.939	15233
919.05	15047
919.161	15195
919.272	14906
919.383	14952
919.494	15112
919.604	15321
919.715	15154
919.826	14979
919.936	15108
920.047	15176
920.157	15131
920.267	15249
920.378	15097
920.488	15093
920.598	15218
920.708	15458
920.818	15188
920.928	15233
921.038	15431
921.148	15283
921.258	15009
921.368	14971
921.477	14849
921.587	14944
921.697	14678
921.806	14819
921.916	14568
922.025	14499
922.134	14404
922.244	14419
922.353	14564
922.462	14324
922.571	14320
922.68	14191
922.789	14164
922.898	14107
923.007	14020
923.116	14092
923.224	14088
923.333	14035
923.442	13993
923.55	14001
923.659	13963
923.767	13967
923.876	13776
923.984	14024
924.092	13742
924.201	13906
924.309	13909
924.417	13822
924.525	13696
924.633	13803
924.741	14621
924.849	13563
924.956	13769
925.064	13430
925.172	13426
925.279	13578
925.387	13586
925.494	13529
925.602	13689
925.709	13597
925.816	13350
925.924	13518
926.031	13518
926.138	13419
926.245	13514
926.352	13293
926.459	13578
926.566	13491
926.673	13373
926.779	13190
926.886	13278
926.993	13080
927.099	13126
927.206	13050
927.312	13008
927.419	13099
927.525	12970
927.631	13137
927.737	12875
927.843	12920
927.95	12722
928.056	12829
928.162	12745
928.267	12928
928.373	13582
928.479	12856
928.585	12760
928.69	12798
928.796	12814
928.901	12749
929.007	12650
929.112	12768
929.218	12726
929.323	12570
929.428	12532
929.533	12764
929.638	12513
929.743	12498
929.848	12582
929.953	12433
930.058	12464
930.163	12251
930.267	12182
930.372	12403
930.477	12216
930.581	12418
930.685	12232
930.79	12140
930.894	12201
930.998	12057
931.103	12209
931.207	11923
931.311	11718
931.415	11741
931.519	11547
931.623	11444
