Data from test_V78500241_2676.txt Node
Date: Fri Mar 25 16:00:20 CST 2022
User: usil
Spectrometer: V785-0024
Trigger mode: 0
Integration Time (sec): 4.000000E-1
Scans to average: 1
Nonlinearity correction enabled: false
Boxcar width: 0
Storing dark spectrum: false
XAxis mode: Wavelengths
Number of Pixels in Spectrum: 1024
>>>>>Begin Spectral Data<<<<<
801.071	28656
801.214	28763
801.356	28668
801.499	28573
801.641	28440
801.783	28409
801.926	28512
802.068	28455
802.211	28382
802.353	28257
802.496	28177
802.638	28101
802.78	27994
802.923	28051
803.065	28025
803.208	28078
803.35	28101
803.492	28173
803.635	28341
803.777	28112
803.919	28306
804.061	28660
804.204	28440
804.346	28466
804.488	28276
804.63	28329
804.773	28246
804.915	28470
805.057	28554
805.199	28481
805.341	28565
805.483	28546
805.626	28379
805.768	28413
805.91	28443
806.052	28565
806.194	28523
806.336	28725
806.478	28569
806.62	28519
806.762	28611
806.904	28771
807.046	29033
807.188	28923
807.33	28847
807.472	29181
807.614	28934
807.756	28949
807.898	28793
808.04	28824
808.182	28664
808.324	28843
808.465	28927
808.607	29071
808.749	29048
808.891	29246
809.033	29345
809.174	29250
809.316	29155
809.458	29124
809.6	29060
809.741	29444
809.883	29288
810.025	29520
810.166	29589
810.308	29554
810.45	29299
810.591	29471
810.733	29136
810.875	29208
811.016	29273
811.158	29136
811.299	29334
811.441	29375
811.582	29379
811.724	29193
811.865	29242
812.007	29254
812.148	29239
812.29	29303
812.431	29486
812.573	29638
812.714	29653
812.855	29805
812.997	29775
813.138	29992
813.279	29828
813.421	29638
813.562	29646
813.703	29619
813.845	29360
813.986	29181
814.127	29075
814.268	28987
814.41	28957
814.551	28892
814.692	28953
814.833	28866
814.974	28942
815.115	28976
815.256	28858
815.397	28774
815.539	28900
815.68	28672
815.821	28637
815.962	28790
816.103	28812
816.244	28675
816.385	28637
816.526	28729
816.666	28481
816.807	28219
816.948	28287
817.089	28459
817.23	28154
817.371	28348
817.512	28261
817.653	28025
817.793	28223
817.934	28417
818.075	28299
818.216	28158
818.356	28291
818.497	28166
818.638	28192
818.778	27972
818.919	27934
819.06	28188
819.2	28188
819.341	28059
819.481	28173
819.622	28489
819.762	28554
819.903	28615
820.043	28390
820.184	28535
820.324	28523
820.465	28462
820.605	28379
820.746	28424
820.886	28363
821.026	28512
821.167	28314
821.307	28493
821.447	28234
821.588	28063
821.728	28013
821.868	27888
822.008	27743
822.149	27759
822.289	27686
822.429	27443
822.569	27405
822.709	27332
822.849	27317
822.99	27363
823.13	27370
823.27	27176
823.41	27112
823.55	27017
823.69	27020
823.83	27039
823.97	26918
824.11	26975
824.25	27013
824.389	26826
824.529	26990
824.669	26853
824.809	27043
824.949	27017
825.089	27127
825.228	27001
825.368	26697
825.508	26716
825.648	26727
825.787	26857
825.927	26910
826.067	26777
826.206	26705
826.346	26777
826.485	26868
826.625	26807
826.765	26872
826.904	26781
827.044	26617
827.183	26556
827.323	26453
827.462	26602
827.601	26419
827.741	26663
827.88	26556
828.02	26309
828.159	26453
828.298	26518
828.437	26568
828.577	26434
828.716	26461
828.855	26377
828.994	26183
829.134	26218
829.273	26240
829.412	26195
829.551	26168
829.69	26164
829.829	26278
829.968	26180
830.107	26267
830.246	26153
830.385	26134
830.524	26088
830.663	25860
830.802	25902
830.941	25837
831.08	25723
831.219	25708
831.357	25902
831.496	25951
831.635	25738
831.774	25746
831.913	25597
832.051	25575
832.19	25567
832.329	25601
832.467	25525
832.606	25381
832.744	25438
832.883	25422
833.022	25316
833.16	25487
833.299	25537
833.437	25506
833.576	25567
833.714	25533
833.852	25590
833.991	25571
834.129	25616
834.267	25529
834.406	25575
834.544	25483
834.682	25624
834.821	25510
834.959	25632
835.097	25487
835.235	25700
835.373	25563
835.511	25396
835.65	25388
835.788	25339
835.926	25259
836.064	25202
836.202	25179
836.34	25472
836.478	25479
836.615	25301
836.753	25343
836.891	25495
837.029	25362
837.167	25312
837.305	25282
837.443	25228
837.58	25213
837.718	25175
837.856	25145
837.993	25088
838.131	25266
838.269	25148
838.406	25019
838.544	24962
838.681	24829
838.819	24909
838.956	24559
839.094	24585
839.231	24616
839.369	24840
839.506	25107
839.643	24844
839.781	24601
839.918	24582
840.055	24677
840.193	24555
840.33	24433
840.467	24532
840.604	24536
840.742	24707
840.879	24304
841.016	24433
841.153	24486
841.29	24578
841.427	24467
841.564	24471
841.701	24456
841.838	24407
841.975	24422
842.112	24486
842.249	24296
842.385	24224
842.522	24456
842.659	24300
842.796	24239
842.933	24262
843.069	24148
843.206	24251
843.343	24350
843.479	24251
843.616	24270
843.752	24121
843.889	24201
844.025	24281
844.162	24091
844.298	24110
844.435	24087
844.571	24064
844.708	24186
844.844	24190
844.98	24133
845.117	24110
845.253	24072
845.389	23882
845.525	23980
845.661	23897
845.798	23809
845.934	23961
846.07	23809
846.206	23897
846.342	23973
846.478	23718
846.614	23562
846.75	23391
846.886	23448
847.022	23672
847.158	23490
847.294	23577
847.429	23562
847.565	23596
847.701	23866
847.837	23204
847.972	23208
848.108	23455
848.244	23368
848.379	23193
848.515	23117
848.65	23029
848.786	23124
848.921	22987
849.057	23143
849.192	23189
849.328	23155
849.463	22984
849.598	23185
849.734	22953
849.869	23006
850.004	22790
850.14	22854
850.275	22957
850.41	22702
850.545	22797
850.68	22949
850.815	22949
850.95	22904
851.085	23079
851.22	22965
851.355	22911
851.49	22759
851.625	22873
851.76	22885
851.895	22873
852.03	22816
852.165	22797
852.299	22885
852.434	22839
852.569	22919
852.703	22755
852.838	23010
852.973	23010
853.107	22972
853.242	22755
853.376	22759
853.511	22565
853.645	22596
853.78	22713
853.914	22721
854.048	22721
854.183	22634
854.317	22744
854.451	22774
854.585	22683
854.72	22736
854.854	22873
854.988	22763
855.122	22721
855.256	22538
855.39	22759
855.524	22729
855.658	22740
855.792	22782
855.926	22622
856.06	22790
856.194	22835
856.327	22664
856.461	22698
856.595	22611
856.729	22782
856.862	22675
856.996	22736
857.13	22656
857.263	22744
857.397	22805
857.53	22683
857.664	22854
857.797	22683
857.931	22729
858.064	22660
858.197	22710
858.331	22679
858.464	22691
858.597	22607
858.731	22752
858.864	22573
858.997	22706
859.13	22721
859.263	22660
859.396	22793
859.529	22675
859.662	22527
859.795	22596
859.928	22702
860.061	22774
860.194	22831
860.327	22584
860.46	22679
860.592	22797
860.725	22866
860.858	22710
860.99	22660
861.123	22706
861.256	22736
861.388	22683
861.521	23414
861.653	22512
861.786	22394
861.918	22577
862.05	22557
862.183	22660
862.315	22603
862.447	22634
862.58	22493
862.712	22428
862.844	22333
862.976	22440
863.108	22489
863.24	22816
863.372	22367
863.504	22398
863.636	22386
863.768	22432
863.9	22462
864.032	22344
864.164	22470
864.296	22478
864.428	22466
864.559	22440
864.691	22394
864.823	22394
864.954	22363
865.086	22318
865.217	22329
865.349	22215
865.48	22306
865.612	22272
865.743	22421
865.875	22280
866.006	22246
866.137	22234
866.269	22337
866.4	22131
866.531	22226
866.662	22135
866.793	22074
866.924	22196
867.055	22249
867.186	22291
867.317	22101
867.448	22173
867.579	22131
867.71	22143
867.841	22097
867.972	22257
868.103	22177
868.233	22265
868.364	22200
868.495	22344
868.625	22466
868.756	22656
868.886	22485
869.017	22382
869.147	22550
869.278	22538
869.408	22519
869.539	22352
869.669	22516
869.799	22363
869.929	22626
870.06	22622
870.19	22687
870.32	22626
870.45	22729
870.58	22866
870.71	22835
870.84	22999
870.97	22866
871.1	22908
871.23	22949
871.36	23037
871.489	22938
871.619	23037
871.749	23102
871.879	23079
872.008	23121
872.138	23128
872.267	22995
872.397	22786
872.526	22790
872.656	22953
872.785	22919
872.915	23185
873.044	23128
873.173	23098
873.303	23102
873.432	23006
873.561	23231
873.69	23223
873.819	23128
873.948	23189
874.077	23014
874.206	23014
874.335	22968
874.464	23075
874.593	23280
874.722	23265
874.851	23322
874.979	23250
875.108	23452
875.237	23166
875.365	23193
875.494	23231
875.623	23185
875.751	23239
875.88	23235
876.008	23307
876.136	23398
876.265	23687
876.393	23847
876.521	23589
876.65	23611
876.778	23699
876.906	23695
877.034	23722
877.162	23680
877.29	23444
877.418	23577
877.546	23585
877.674	23581
877.802	23585
877.93	23672
878.058	23509
878.185	23516
878.313	23528
878.441	23615
878.568	23292
878.696	23589
878.824	23809
878.951	23627
879.079	23859
879.206	23961
879.333	23695
879.461	23611
879.588	23646
879.715	23756
879.842	23817
879.97	23646
880.097	23356
880.224	23326
880.351	23505
880.478	23528
880.605	23334
880.732	23379
880.859	23657
880.986	23414
881.112	23467
881.239	23334
881.366	23083
881.493	23136
881.619	23006
881.746	22987
881.872	22869
881.999	22999
882.125	22862
882.252	22972
882.378	23044
882.505	23079
882.631	22847
882.757	22752
882.883	22850
883.01	22637
883.136	22733
883.262	22637
883.388	22474
883.514	22725
883.64	22649
883.766	22561
883.892	22421
884.018	22398
884.143	22649
884.269	22702
884.395	22306
884.52	22223
884.646	22287
884.772	22204
884.897	22139
885.023	22310
885.148	22421
885.274	22246
885.399	22363
885.524	22185
885.65	22230
885.775	22287
885.9	22303
886.025	22333
886.15	22344
886.275	22177
886.4	22226
886.525	22207
886.65	22067
886.775	22192
886.9	22440
887.025	22424
887.149	22265
887.274	22017
887.399	22143
887.523	22044
887.648	21949
887.773	21945
887.897	22135
888.021	22055
888.146	21991
888.27	22226
888.395	22173
888.519	22032
888.643	22147
888.767	22021
888.891	21987
889.015	21819
889.139	21907
889.263	21774
889.387	22040
889.511	22055
889.635	22010
889.759	21747
889.883	21793
890.006	21800
890.13	21903
890.254	21835
890.377	21766
890.501	21663
890.624	21713
890.748	21625
890.871	21344
890.995	21389
891.118	21435
891.241	21374
891.364	21310
891.488	21496
891.611	21469
891.734	21447
891.857	21473
891.98	21412
892.103	21313
892.226	21367
892.349	21412
892.471	21169
892.594	21123
892.717	21252
892.839	21306
892.962	21298
893.085	21317
893.207	21382
893.33	21188
893.452	21112
893.575	21310
893.697	21237
893.819	21416
893.941	21485
894.064	21435
894.186	21252
894.308	21180
894.43	21146
894.552	21344
894.674	21378
894.796	21173
894.918	21180
895.04	21268
895.161	21317
895.283	21401
895.405	21100
895.526	21260
895.648	21268
895.769	21325
895.891	21336
896.012	21340
896.134	21218
896.255	21363
896.376	21055
896.498	21188
896.619	21252
896.74	21138
896.861	21313
896.982	21610
897.103	21610
897.224	21500
897.345	21408
897.466	21344
897.587	21374
897.708	21595
897.828	21447
897.949	21374
898.07	21355
898.19	21351
898.311	21652
898.431	21439
898.552	21428
898.672	21378
898.792	21534
898.913	21488
899.033	21329
899.153	21161
899.273	21127
899.393	21154
899.513	21203
899.633	21245
899.753	21150
899.873	21176
899.993	21249
900.113	21066
900.232	21127
900.352	21093
900.472	21058
900.591	20895
900.711	21077
900.83	20921
900.95	21039
901.069	21043
901.189	20792
901.308	20530
901.427	20484
901.546	20533
901.665	20514
901.784	20499
901.904	20415
902.023	20195
902.141	20005
902.26	19928
902.379	19993
902.498	20012
902.617	19955
902.735	19963
902.854	19906
902.973	19856
903.091	19537
903.21	19624
903.328	19658
903.446	19483
903.565	19567
903.683	19335
903.801	19449
903.919	19373
904.038	19426
904.156	19152
904.274	19396
904.392	19213
904.51	19160
904.627	19050
904.745	19228
904.863	19312
904.981	19065
905.098	18875
905.216	18829
905.334	18916
905.451	18810
905.569	18810
905.686	18951
905.803	18654
905.921	18753
906.038	18787
906.155	18681
906.272	18486
906.389	18582
906.506	18441
906.623	18426
906.74	18353
906.857	18292
906.974	18391
907.091	18471
907.208	18555
907.324	18452
907.441	18296
907.557	18251
907.674	18171
907.79	18003
907.907	18068
908.023	18140
908.139	18216
908.256	18053
908.372	17992
908.488	17931
908.604	17901
908.72	17836
908.836	17893
908.952	17638
909.068	17813
909.184	17965
909.3	17859
909.415	17870
909.531	17821
909.647	17600
909.762	17448
909.878	17501
909.993	17566
910.108	17376
910.224	17471
910.339	17474
910.454	17444
910.57	17345
910.685	17235
910.8	17512
910.915	17463
911.03	17288
911.145	17124
911.259	16961
911.374	17056
911.489	17025
911.604	17010
911.718	16839
911.833	16873
911.947	16793
912.062	16710
912.176	16885
912.291	16854
912.405	16930
912.519	16946
912.633	17018
912.748	16934
912.862	16790
912.976	16698
913.09	16679
913.204	16592
913.318	16679
913.431	16839
913.545	16782
913.659	16828
913.772	16611
913.886	16447
914	16462
914.113	16443
914.226	16656
914.34	16565
914.453	16329
914.566	16443
914.68	16398
914.793	16120
914.906	16032
915.019	16071
915.132	15960
915.245	15983
915.358	16010
915.47	15987
915.583	15960
915.696	15994
915.809	16040
915.921	16116
916.034	15895
916.146	15846
916.259	15857
916.371	15888
916.483	15876
916.595	15846
916.708	15743
916.82	15797
916.932	15755
917.044	15720
917.156	15629
917.268	15652
917.38	15656
917.491	15614
917.603	15584
917.715	15720
917.826	15736
917.938	15530
918.049	15450
918.161	15564
918.272	15656
918.384	15713
918.495	15469
918.606	15408
918.717	15272
918.828	15348
918.939	15450
919.05	15211
919.161	15332
919.272	15199
919.383	15146
919.494	15405
919.604	15542
919.715	15310
919.826	15241
919.936	15321
920.047	15336
920.157	15237
920.267	15545
920.378	15344
920.488	15306
920.598	15553
920.708	15633
920.818	15477
920.928	15329
921.038	15576
921.148	15469
921.258	15237
921.368	15138
921.477	15055
921.587	15032
921.697	14937
921.806	15062
921.916	14876
922.025	14781
922.134	14659
922.244	14575
922.353	14705
922.462	14575
922.571	14499
922.68	14347
922.789	14351
922.898	14278
923.007	14259
923.116	14229
923.224	14324
923.333	14290
923.442	14130
923.55	13993
923.659	14145
923.767	14313
923.876	14126
923.984	14157
924.092	14001
924.201	14077
924.309	13967
924.417	13974
924.525	14016
924.633	13917
924.741	14815
924.849	13704
924.956	13860
925.064	13757
925.172	13685
925.279	13639
925.387	13704
925.494	13746
925.602	13651
925.709	13696
925.816	13590
925.924	13582
926.031	13674
926.138	13613
926.245	13658
926.352	13597
926.459	13666
926.566	13670
926.673	13529
926.779	13434
926.886	13411
926.993	13190
927.099	13171
927.206	13179
927.312	13179
927.419	13244
927.525	13274
927.631	13175
927.737	13141
927.843	13042
927.95	12932
928.056	13034
928.162	13019
928.267	13034
928.373	13510
928.479	13133
928.585	12806
928.69	13004
928.796	12970
928.901	12905
929.007	12707
929.112	12875
929.218	12852
929.323	12738
929.428	12776
929.533	12787
929.638	12642
929.743	12707
929.848	12707
929.953	12707
930.058	12612
930.163	12407
930.267	12323
930.372	12460
930.477	12311
930.581	12532
930.685	12486
930.79	12254
930.894	12304
930.998	12266
931.103	12456
931.207	11977
931.311	11923
931.415	11813
931.519	11657
931.623	11608
