Data from test_V78500241_3263.txt Node
Date: Fri Mar 25 16:04:24 CST 2022
User: usil
Spectrometer: V785-0024
Trigger mode: 0
Integration Time (sec): 4.000000E-1
Scans to average: 1
Nonlinearity correction enabled: false
Boxcar width: 0
Storing dark spectrum: false
XAxis mode: Wavelengths
Number of Pixels in Spectrum: 1024
>>>>>Begin Spectral Data<<<<<
801.071	28873
801.214	28816
801.356	28668
801.499	28531
801.641	28268
801.783	28367
801.926	28405
802.068	28405
802.211	28314
802.353	28185
802.496	28109
802.638	28025
802.78	27941
802.923	27994
803.065	27926
803.208	28067
803.35	28017
803.492	28261
803.635	28192
803.777	28105
803.919	28394
804.061	28740
804.204	28436
804.346	28295
804.488	28181
804.63	28356
804.773	28204
804.915	28299
805.057	28455
805.199	28398
805.341	28379
805.483	28394
805.626	28481
805.768	28295
805.91	28618
806.052	28462
806.194	28379
806.336	28763
806.478	28447
806.62	28398
806.762	28630
806.904	28839
807.046	28915
807.188	28877
807.33	28908
807.472	29025
807.614	28828
807.756	28934
807.898	28923
808.04	28866
808.182	28752
808.324	28885
808.465	28976
808.607	29143
808.749	29109
808.891	29334
809.033	29239
809.174	29242
809.316	29140
809.458	29132
809.6	29029
809.741	29436
809.883	29315
810.025	29425
810.166	29395
810.308	29581
810.45	29512
810.591	29303
810.733	29197
810.875	29307
811.016	29216
811.158	29197
811.299	29269
811.441	29383
811.582	29322
811.724	29250
811.865	29193
812.007	29246
812.148	29239
812.29	29269
812.431	29459
812.573	29600
812.714	29551
812.855	29798
812.997	29843
813.138	29821
813.279	29916
813.421	29786
813.562	29566
813.703	29589
813.845	29406
813.986	29166
814.127	29143
814.268	28927
814.41	29056
814.551	28881
814.692	28946
814.833	28930
814.974	28888
815.115	29003
815.256	28854
815.397	28862
815.539	28904
815.68	28698
815.821	28763
815.962	28820
816.103	28896
816.244	28630
816.385	28607
816.526	28557
816.666	28356
816.807	28272
816.948	28234
817.089	28470
817.23	28223
817.371	28348
817.512	28310
817.653	28261
817.793	28226
817.934	28173
818.075	28200
818.216	28246
818.356	28192
818.497	27998
818.638	28010
818.778	27895
818.919	27930
819.06	28090
819.2	28040
819.341	28287
819.481	28276
819.622	28421
819.762	28656
819.903	28599
820.043	28459
820.184	28432
820.324	28421
820.465	28478
820.605	28424
820.746	28382
820.886	28455
821.026	28405
821.167	28314
821.307	28329
821.447	28261
821.588	28188
821.728	28097
821.868	27774
822.008	27789
822.149	27690
822.289	27755
822.429	27507
822.569	27405
822.709	27389
822.849	27351
822.99	27154
823.13	27199
823.27	27207
823.41	27077
823.55	26914
823.69	27093
823.83	27001
823.97	26861
824.11	26948
824.25	26895
824.389	26963
824.529	26967
824.669	26819
824.809	27017
824.949	26933
825.089	26960
825.228	26960
825.368	26769
825.508	26826
825.648	26769
825.787	26788
825.927	26701
826.067	26804
826.206	26819
826.346	26716
826.485	26845
826.625	26743
826.765	26883
826.904	26845
827.044	26609
827.183	26495
827.323	26514
827.462	26648
827.601	26495
827.741	26522
827.88	26537
828.02	26461
828.159	26393
828.298	26511
828.437	26518
828.577	26621
828.716	26533
828.855	26431
828.994	26252
829.134	26237
829.273	26111
829.412	26149
829.551	25986
829.69	26199
829.829	26142
829.968	26393
830.107	26305
830.246	26115
830.385	26252
830.524	26138
830.663	25959
830.802	25925
830.941	25719
831.08	25689
831.219	25894
831.357	25868
831.496	26107
831.635	25887
831.774	25723
831.913	25658
832.051	25734
832.19	25445
832.329	25567
832.467	25396
832.606	25430
832.744	25369
832.883	25449
833.022	25422
833.16	25312
833.299	25514
833.437	25483
833.576	25575
833.714	25575
833.852	25506
833.991	25449
834.129	25601
834.267	25734
834.406	25518
834.544	25438
834.682	25426
834.821	25468
834.959	25647
835.097	25449
835.235	25479
835.373	25415
835.511	25525
835.65	25426
835.788	25400
835.926	25194
836.064	25057
836.202	25206
836.34	25472
836.478	25518
836.615	25316
836.753	25396
836.891	25411
837.029	25369
837.167	25362
837.305	25304
837.443	25324
837.58	25168
837.718	25266
837.856	25183
837.993	25103
838.131	25198
838.269	24966
838.406	25126
838.544	24958
838.681	24856
838.819	24875
838.956	24749
839.094	24673
839.231	24642
839.369	24837
839.506	25015
839.643	24829
839.781	24555
839.918	24604
840.055	24578
840.193	24601
840.33	24540
840.467	24479
840.604	24627
840.742	24844
840.879	24445
841.016	24517
841.153	24433
841.29	24620
841.427	24563
841.564	24490
841.701	24479
841.838	24479
841.975	24551
842.112	24426
842.249	24460
842.385	24369
842.522	24483
842.659	24483
842.796	24323
842.933	24273
843.069	24384
843.206	24319
843.343	24460
843.479	24304
843.616	24323
843.752	24182
843.889	24155
844.025	24209
844.162	24121
844.298	24262
844.435	23984
844.571	24186
844.708	24125
844.844	24254
844.98	24186
845.117	24174
845.253	23973
845.389	23927
845.525	23855
845.661	23912
845.798	23790
845.934	23843
846.07	23813
846.206	23973
846.342	23931
846.478	23786
846.614	23752
846.75	23455
846.886	23490
847.022	23520
847.158	23528
847.294	23558
847.429	23516
847.565	23505
847.701	23832
847.837	23197
847.972	23113
848.108	23341
848.244	23486
848.379	23124
848.515	23147
848.65	23132
848.786	23094
848.921	23143
849.057	23322
849.192	23216
849.328	23155
849.463	23098
849.598	23029
849.734	22869
849.869	23128
850.004	22930
850.14	22847
850.275	22733
850.41	22759
850.545	22812
850.68	22740
850.815	22881
850.95	22961
851.085	23037
851.22	23067
851.355	22877
851.49	22858
851.625	22946
851.76	22828
851.895	22820
852.03	22812
852.165	22869
852.299	22889
852.434	22942
852.569	22911
852.703	22710
852.838	22923
852.973	23010
853.107	23010
853.242	22858
853.376	22778
853.511	22698
853.645	22748
853.78	22892
853.914	22755
854.048	22630
854.183	22759
854.317	22683
854.451	22854
854.585	22630
854.72	22782
854.854	22786
854.988	22698
855.122	22691
855.256	22599
855.39	22744
855.524	22824
855.658	22824
855.792	22748
855.926	22702
856.06	22793
856.194	22706
856.327	22535
856.461	22717
856.595	22611
856.729	22694
856.862	22797
856.996	22698
857.13	22767
857.263	22824
857.397	22752
857.53	22740
857.664	22797
857.797	22736
857.931	22694
858.064	22694
858.197	22831
858.331	22733
858.464	22577
858.597	22546
858.731	22679
858.864	22683
858.997	22668
859.13	22725
859.263	22790
859.396	22755
859.529	22626
859.662	22710
859.795	22599
859.928	22691
860.061	22976
860.194	22854
860.327	22721
860.46	22672
860.592	22809
860.725	22862
860.858	22915
860.99	22649
861.123	22672
861.256	22717
861.388	22592
861.521	23349
861.653	22596
861.786	22462
861.918	22459
862.05	22421
862.183	22603
862.315	22816
862.447	22736
862.58	22550
862.712	22455
862.844	22295
862.976	22546
863.108	22394
863.24	22805
863.372	22428
863.504	22382
863.636	22344
863.768	22561
863.9	22550
864.032	22367
864.164	22386
864.296	22546
864.428	22485
864.559	22607
864.691	22542
864.823	22500
864.954	22478
865.086	22356
865.217	22192
865.349	22139
865.48	22249
865.612	22344
865.743	22527
865.875	22219
866.006	22280
866.137	22303
866.269	22291
866.4	22242
866.531	22204
866.662	22124
866.793	22188
866.924	22261
867.055	22226
867.186	22173
867.317	22154
867.448	22055
867.579	22135
867.71	22169
867.841	22166
867.972	22086
868.103	22105
868.233	22284
868.364	22272
868.495	22333
868.625	22424
868.756	22527
868.886	22352
869.017	22398
869.147	22481
869.278	22478
869.408	22588
869.539	22405
869.669	22459
869.799	22523
869.929	22481
870.06	22550
870.19	22702
870.32	22694
870.45	22725
870.58	22889
870.71	22927
870.84	22968
870.97	22843
871.1	22869
871.23	23132
871.36	23033
871.489	22984
871.619	23041
871.749	23033
871.879	23170
872.008	23200
872.138	23098
872.267	23105
872.397	22919
872.526	22881
872.656	22824
872.785	22877
872.915	23083
873.044	23102
873.173	23102
873.303	23246
873.432	23029
873.561	23098
873.69	23109
873.819	23056
873.948	23060
874.077	23136
874.206	23022
874.335	23143
874.464	23220
874.593	23273
874.722	23360
874.851	23440
874.979	23444
875.108	23421
875.237	23261
875.365	23258
875.494	23296
875.623	23288
875.751	23334
875.88	23299
876.008	23334
876.136	23547
876.265	23729
876.393	23748
876.521	23798
876.65	23904
876.778	23668
876.906	23707
877.034	23627
877.162	23783
877.29	23718
877.418	23596
877.546	23657
877.674	23672
877.802	23756
877.93	23539
878.058	23627
878.185	23558
878.313	23543
878.441	23524
878.568	23448
878.696	23646
878.824	23718
878.951	23729
879.079	23904
879.206	23931
879.333	23802
879.461	23748
879.588	23722
879.715	23874
879.842	24026
879.97	23668
880.097	23486
880.224	23512
880.351	23406
880.478	23402
880.605	23356
880.732	23535
880.859	23684
880.986	23661
881.112	23349
881.239	23349
881.366	23216
881.493	22972
881.619	23197
881.746	23041
881.872	23052
881.999	22953
882.125	22930
882.252	23029
882.378	23003
882.505	22995
882.631	22896
882.757	22679
882.883	22790
883.01	22790
883.136	22679
883.262	22474
883.388	22504
883.514	22763
883.64	22535
883.766	22710
883.892	22421
884.018	22462
884.143	22660
884.269	22729
884.395	22417
884.52	22295
884.646	22287
884.772	22230
884.897	22242
885.023	22280
885.148	22432
885.274	22523
885.399	22443
885.524	22379
885.65	22379
885.775	22402
885.9	22287
886.025	22428
886.15	22379
886.275	22219
886.4	22219
886.525	22333
886.65	22249
886.775	22177
886.9	22322
887.025	22557
887.149	22291
887.274	22051
887.399	22090
887.523	22021
887.648	22093
887.773	21934
887.897	22173
888.021	22169
888.146	21994
888.27	22105
888.395	22265
888.519	22044
888.643	22215
888.767	22109
888.891	22036
889.015	21846
889.139	21930
889.263	21835
889.387	21994
889.511	22074
889.635	22017
889.759	21907
889.883	21797
890.006	21934
890.13	21876
890.254	21789
890.377	21755
890.501	21526
890.624	21507
890.748	21652
890.871	21504
890.995	21291
891.118	21420
891.241	21496
891.364	21264
891.488	21488
891.611	21469
891.734	21447
891.857	21412
891.98	21412
892.103	21523
892.226	21393
892.349	21283
892.471	21195
892.594	21340
892.717	21317
892.839	21359
892.962	21332
893.085	21492
893.207	21245
893.33	21188
893.452	21287
893.575	21428
893.697	21325
893.819	21340
893.941	21561
894.064	21405
894.186	21268
894.308	21298
894.43	21340
894.552	21363
894.674	21302
894.796	21142
894.918	21233
895.04	21355
895.161	21306
895.283	21511
895.405	21279
895.526	21370
895.648	21302
895.769	21321
895.891	21260
896.012	21359
896.134	21325
896.255	21218
896.376	21272
896.498	21184
896.619	21424
896.74	21313
896.861	21378
896.982	21610
897.103	21804
897.224	21545
897.345	21561
897.466	21348
897.587	21473
897.708	21671
897.828	21412
897.949	21473
898.07	21351
898.19	21412
898.311	21583
898.431	21321
898.552	21344
898.672	21477
898.792	21580
898.913	21523
899.033	21367
899.153	21192
899.273	21108
899.393	21192
899.513	21325
899.633	21180
899.753	21256
899.873	21245
899.993	21272
900.113	21116
900.232	21154
900.352	21150
900.472	21051
900.591	20857
900.711	20963
900.83	20986
900.95	21077
901.069	21070
901.189	20819
901.308	20705
901.427	20484
901.546	20609
901.665	20609
901.784	20575
901.904	20351
902.023	20278
902.141	20180
902.26	20119
902.379	20107
902.498	20107
902.617	20069
902.735	20088
902.854	20096
902.973	19940
903.091	19681
903.21	19620
903.328	19753
903.446	19556
903.565	19525
903.683	19518
903.801	19365
903.919	19365
904.038	19396
904.156	19221
904.274	19369
904.392	19190
904.51	19244
904.627	19285
904.745	19308
904.863	19289
904.981	19027
905.098	18985
905.216	18966
905.334	18962
905.451	18962
905.569	18981
905.686	18928
905.803	18939
905.921	18608
906.038	18772
906.155	18707
906.272	18547
906.389	18673
906.506	18448
906.623	18513
906.74	18448
906.857	18369
906.974	18277
907.091	18570
907.208	18540
907.324	18395
907.441	18281
907.557	18098
907.674	18190
907.79	18072
907.907	18121
908.023	18117
908.139	18190
908.256	18087
908.372	18045
908.488	18083
908.604	17935
908.72	17805
908.836	17897
908.952	17897
909.068	17939
909.184	17904
909.3	17843
909.415	17901
909.531	17775
909.647	17668
909.762	17634
909.878	17589
909.993	17554
910.108	17433
910.224	17501
910.339	17497
910.454	17364
910.57	17372
910.685	17273
910.8	17528
910.915	17414
911.03	17433
911.145	17136
911.259	17155
911.374	17189
911.489	17045
911.604	16972
911.718	16847
911.833	16881
911.947	16797
912.062	16744
912.176	16881
912.291	16877
912.405	16805
912.519	17052
912.633	17029
912.748	16930
912.862	16892
912.976	16687
913.09	16561
913.204	16580
913.318	16843
913.431	16736
913.545	16721
913.659	16790
913.772	16637
913.886	16527
914	16405
914.113	16660
914.226	16531
914.34	16402
914.453	16337
914.566	16466
914.68	16249
914.793	16265
914.906	16135
915.019	16135
915.132	15937
915.245	16059
915.358	15979
915.47	15930
915.583	16063
915.696	16078
915.809	16059
915.921	16192
916.034	15953
916.146	15899
916.259	16006
916.371	16006
916.483	15934
916.595	15819
916.708	15812
916.82	15857
916.932	15686
917.044	15781
917.156	15682
917.268	15770
917.38	15671
917.491	15751
917.603	15728
917.715	15751
917.826	15755
917.938	15576
918.049	15496
918.161	15534
918.272	15778
918.384	15705
918.495	15568
918.606	15485
918.717	15344
918.828	15443
918.939	15431
919.05	15321
919.161	15348
919.272	15150
919.383	15245
919.494	15348
919.604	15496
919.715	15397
919.826	15329
919.936	15348
920.047	15473
920.157	15367
920.267	15473
920.378	15344
920.488	15264
920.598	15469
920.708	15667
920.818	15507
920.928	15431
921.038	15599
921.148	15644
921.258	15272
921.368	15180
921.477	15093
921.587	15009
921.697	14967
921.806	15058
921.916	14979
922.025	14796
922.134	14670
922.244	14655
922.353	14678
922.462	14579
922.571	14450
922.68	14415
922.789	14275
922.898	14389
923.007	14282
923.116	14408
923.224	14256
923.333	14309
923.442	14278
923.55	14123
923.659	14248
923.767	14206
923.876	14111
923.984	14195
924.092	13955
924.201	14031
924.309	14012
924.417	14073
924.525	13974
924.633	13921
924.741	14739
924.849	13780
924.956	13894
925.064	13731
925.172	13784
925.279	13708
925.387	13719
925.494	13712
925.602	13772
925.709	13715
925.816	13571
925.924	13731
926.031	13677
926.138	13616
926.245	13609
926.352	13518
926.459	13696
926.566	13685
926.673	13480
926.779	13373
926.886	13438
926.993	13308
927.099	13225
927.206	13198
927.312	13149
927.419	13308
927.525	13091
927.631	13255
927.737	13175
927.843	13088
927.95	12932
928.056	13065
928.162	13050
928.267	13133
928.373	13662
928.479	13019
928.585	12894
928.69	12977
928.796	12943
928.901	12901
929.007	12696
929.112	12935
929.218	12913
929.323	12810
929.428	12764
929.533	12844
929.638	12768
929.743	12684
929.848	12726
929.953	12734
930.058	12627
930.163	12296
930.267	12372
930.372	12540
930.477	12418
930.581	12582
930.685	12460
930.79	12266
930.894	12304
930.998	12224
931.103	12357
931.207	12079
931.311	11988
931.415	11897
931.519	11695
931.623	11634
