Data from test_V78500241_2010.txt Node
Date: Fri Mar 25 15:55:43 CST 2022
User: usil
Spectrometer: V785-0024
Trigger mode: 0
Integration Time (sec): 4.000000E-1
Scans to average: 1
Nonlinearity correction enabled: false
Boxcar width: 0
Storing dark spectrum: false
XAxis mode: Wavelengths
Number of Pixels in Spectrum: 1024
>>>>>Begin Spectral Data<<<<<
801.071	28516
801.214	28314
801.356	28124
801.499	27998
801.641	27972
801.783	27979
801.926	27991
802.068	27994
802.211	27911
802.353	27911
802.496	27778
802.638	27679
802.78	27622
802.923	27606
803.065	27549
803.208	27614
803.35	27629
803.492	27823
803.635	27899
803.777	27762
803.919	27880
804.061	28135
804.204	27880
804.346	27949
804.488	27812
804.63	27964
804.773	27823
804.915	27960
805.057	28051
805.199	27880
805.341	27964
805.483	28143
805.626	28124
805.768	27884
805.91	27987
806.052	27850
806.194	27892
806.336	28093
806.478	28040
806.62	27953
806.762	28128
806.904	28211
807.046	28451
807.188	28352
807.33	28428
807.472	28497
807.614	28352
807.756	28478
807.898	28284
808.04	28322
808.182	28303
808.324	28489
808.465	28375
808.607	28615
808.749	28641
808.891	28805
809.033	28877
809.174	28713
809.316	28687
809.458	28729
809.6	28649
809.741	28694
809.883	28987
810.025	28984
810.166	29052
810.308	29022
810.45	29041
810.591	28904
810.733	28752
810.875	28675
811.016	28493
811.158	28691
811.299	28752
811.441	28934
811.582	28828
811.724	28645
811.865	28660
812.007	28683
812.148	28801
812.29	28691
812.431	28900
812.573	28965
812.714	29216
812.855	29166
812.997	29345
813.138	29383
813.279	29345
813.421	29265
813.562	28946
813.703	28858
813.845	28995
813.986	28542
814.127	28561
814.268	28409
814.41	28436
814.551	28356
814.692	28409
814.833	28421
814.974	28401
815.115	28409
815.256	28223
815.397	28246
815.539	28128
815.68	28135
815.821	28291
815.962	28242
816.103	28154
816.244	28002
816.385	27998
816.526	27873
816.666	27857
816.807	27603
816.948	27610
817.089	27751
817.23	27603
817.371	27724
817.512	27625
817.653	27644
817.793	27557
817.934	27694
818.075	27705
818.216	27793
818.356	27690
818.497	27500
818.638	27302
818.778	27557
818.919	27443
819.06	27412
819.2	27511
819.341	27679
819.481	27576
819.622	27911
819.762	27983
819.903	28010
820.043	27835
820.184	27861
820.324	27789
820.465	27968
820.605	27717
820.746	27926
820.886	27766
821.026	27785
821.167	27728
821.307	27698
821.447	27766
821.588	27755
821.728	27519
821.868	27317
822.008	27142
822.149	27070
822.289	27192
822.429	26990
822.569	26826
822.709	26876
822.849	26613
822.99	26796
823.13	26644
823.27	26712
823.41	26465
823.55	26415
823.69	26571
823.83	26632
823.97	26533
824.11	26305
824.25	26244
824.389	26332
824.529	26465
824.669	26237
824.809	26511
824.949	26431
825.089	26427
825.228	26381
825.368	26168
825.508	26355
825.648	26343
825.787	26400
825.927	26362
826.067	26225
826.206	26210
826.346	26370
826.485	26343
826.625	26122
826.765	26259
826.904	26286
827.044	25978
827.183	26005
827.323	25982
827.462	26054
827.601	26039
827.741	25936
827.88	25982
828.02	25833
828.159	25780
828.298	25951
828.437	25826
828.577	25799
828.716	25986
828.855	25784
828.994	25746
829.134	25533
829.273	25647
829.412	25662
829.551	25655
829.69	25552
829.829	25590
829.968	25738
830.107	25761
830.246	25723
830.385	25567
830.524	25419
830.663	25354
830.802	25377
830.941	25304
831.08	25266
831.219	25263
831.357	25434
831.496	25499
831.635	25339
831.774	25228
831.913	25126
832.051	25000
832.19	25057
832.329	24981
832.467	25027
832.606	24905
832.744	24863
832.883	24867
833.022	24856
833.16	24871
833.299	25008
833.437	25042
833.576	24947
833.714	25061
833.852	24909
833.991	25080
834.129	24871
834.267	25141
834.406	24985
834.544	24958
834.682	24882
834.821	24806
834.959	24970
835.097	24848
835.235	25061
835.373	24947
835.511	24989
835.65	24753
835.788	24886
835.926	24616
836.064	24555
836.202	24673
836.34	24882
836.478	24958
836.615	24623
836.753	24707
836.891	24776
837.029	24802
837.167	24734
837.305	24677
837.443	24665
837.58	24601
837.718	24608
837.856	24650
837.993	24688
838.131	24661
838.269	24528
838.406	24429
838.544	24521
838.681	24258
838.819	24197
838.956	24155
839.094	24186
839.231	24110
839.369	24281
839.506	24414
839.643	24338
839.781	24060
839.918	23942
840.055	24011
840.193	24133
840.33	23950
840.467	24045
840.604	24064
840.742	24308
840.879	23942
841.016	23923
841.153	23874
841.29	24186
841.427	23927
841.564	23988
841.701	23980
841.838	23912
841.975	23870
842.112	23813
842.249	23885
842.385	23760
842.522	23923
842.659	23851
842.796	23752
842.933	23767
843.069	23737
843.206	23604
843.343	23767
843.479	23638
843.616	23668
843.752	23520
843.889	23516
844.025	23699
844.162	23372
844.298	23642
844.435	23474
844.571	23535
844.708	23535
844.844	23615
844.98	23783
845.117	23672
845.253	23387
845.389	23410
845.525	23463
845.661	23402
845.798	23246
845.934	23326
846.07	23170
846.206	23330
846.342	23349
846.478	23303
846.614	23086
846.75	22816
846.886	23048
847.022	23041
847.158	23025
847.294	23003
847.429	22961
847.565	22961
847.701	23235
847.837	22660
847.972	22649
848.108	22801
848.244	22908
848.379	22626
848.515	22519
848.65	22596
848.786	22485
848.921	22481
849.057	22740
849.192	22580
849.328	22630
849.463	22573
849.598	22474
849.734	22504
849.869	22455
850.004	22238
850.14	22234
850.275	22257
850.41	22280
850.545	22196
850.68	22257
850.815	22200
850.95	22344
851.085	22527
851.22	22421
851.355	22432
851.49	22306
851.625	22253
851.76	22295
851.895	22147
852.03	22219
852.165	22333
852.299	22371
852.434	22398
852.569	22371
852.703	22268
852.838	22295
852.973	22504
853.107	22421
853.242	22375
853.376	22204
853.511	22059
853.645	22211
853.78	22173
853.914	22200
854.048	22025
854.183	22109
854.317	22280
854.451	22211
854.585	22040
854.72	22246
854.854	22207
854.988	22109
855.122	22006
855.256	22086
855.39	22086
855.524	22044
855.658	22204
855.792	22074
855.926	22063
856.06	22234
856.194	22219
856.327	22147
856.461	22124
856.595	22166
856.729	22166
856.862	22299
856.996	22166
857.13	22169
857.263	22246
857.397	22257
857.53	22090
857.664	22287
857.797	22204
857.931	22287
858.064	22120
858.197	22143
858.331	21998
858.464	22032
858.597	21960
858.731	22112
858.864	22097
858.997	22147
859.13	22169
859.263	22223
859.396	22230
859.529	22082
859.662	22059
859.795	22044
859.928	22162
860.061	22284
860.194	22462
860.327	22207
860.46	22154
860.592	22268
860.725	22257
860.858	22173
860.99	22181
861.123	21945
861.256	22128
861.388	22082
861.521	22854
861.653	21972
861.786	21892
861.918	21930
862.05	22029
862.183	22002
862.315	22086
862.447	22166
862.58	22002
862.712	21937
862.844	21732
862.976	21994
863.108	21918
863.24	22287
863.372	21800
863.504	21945
863.636	21759
863.768	21926
863.9	21728
864.032	21724
864.164	21903
864.296	21892
864.428	21983
864.559	21816
864.691	21895
864.823	21861
864.954	21759
865.086	21762
865.217	21675
865.349	21663
865.48	21751
865.612	21709
865.743	21899
865.875	21793
866.006	21667
866.137	21804
866.269	21713
866.4	21774
866.531	21610
866.662	21637
866.793	21564
866.924	21641
867.055	21637
867.186	21682
867.317	21576
867.448	21587
867.579	21656
867.71	21660
867.841	21523
867.972	21583
868.103	21781
868.233	21610
868.364	21690
868.495	21743
868.625	21926
868.756	21934
868.886	21842
869.017	21899
869.147	22010
869.278	21949
869.408	22025
869.539	21915
869.669	21975
869.799	21930
869.929	21979
870.06	22029
870.19	22223
870.32	22329
870.45	22299
870.58	22173
870.71	22417
870.84	22394
870.97	22200
871.1	22405
871.23	22344
871.36	22592
871.489	22211
871.619	22504
871.749	22519
871.879	22428
872.008	22557
872.138	22447
872.267	22451
872.397	22550
872.526	22230
872.656	22348
872.785	22390
872.915	22474
873.044	22588
873.173	22603
873.303	22603
873.432	22569
873.561	22455
873.69	22561
873.819	22538
873.948	22584
874.077	22580
874.206	22451
874.335	22390
874.464	22588
874.593	22706
874.722	22630
874.851	22721
874.979	22706
875.108	22771
875.237	22759
875.365	22573
875.494	22790
875.623	22778
875.751	22626
875.88	22668
876.008	22812
876.136	22885
876.265	23102
876.393	23368
876.521	23140
876.65	23204
876.778	23143
876.906	23105
877.034	23060
877.162	23029
877.29	23121
877.418	23083
877.546	23094
877.674	23064
877.802	23052
877.93	23128
878.058	22984
878.185	22927
878.313	22999
878.441	23006
878.568	22797
878.696	23022
878.824	23128
878.951	23204
879.079	23235
879.206	23303
879.333	23334
879.461	23121
879.588	23166
879.715	23223
879.842	23452
879.97	23083
880.097	22961
880.224	22889
880.351	22991
880.478	22748
880.605	22809
880.732	22858
880.859	23029
880.986	22896
881.112	22858
881.239	22725
881.366	22573
881.493	22546
881.619	22481
881.746	22428
881.872	22409
881.999	22440
882.125	22303
882.252	22573
882.378	22497
882.505	22596
882.631	22440
882.757	22051
882.883	22166
883.01	22325
883.136	22029
883.262	22093
883.388	22067
883.514	22268
883.64	22158
883.766	21991
883.892	21857
884.018	21994
884.143	22078
884.269	22101
884.395	21869
884.52	21717
884.646	21762
884.772	21686
884.897	21599
885.023	21701
885.148	21869
885.274	21869
885.399	21819
885.524	21846
885.65	21774
885.775	21869
885.9	21778
886.025	21945
886.15	21869
886.275	21663
886.4	21591
886.525	21766
886.65	21580
886.775	21819
886.9	21903
887.025	22093
887.149	21797
887.274	21526
887.399	21519
887.523	21526
887.648	21606
887.773	21401
887.897	21549
888.021	21492
888.146	21496
888.27	21652
888.395	21625
888.519	21473
888.643	21507
888.767	21481
888.891	21549
889.015	21310
889.139	21397
889.263	21386
889.387	21485
889.511	21500
889.635	21466
889.759	21310
889.883	21294
890.006	21287
890.13	21397
890.254	21279
890.377	21268
890.501	21093
890.624	21112
890.748	21161
890.871	20967
890.995	20956
891.118	20849
891.241	20864
891.364	20998
891.488	21043
891.611	20956
891.734	20921
891.857	21009
891.98	20910
892.103	20864
892.226	20967
892.349	20883
892.471	20670
892.594	20731
892.717	20819
892.839	20853
892.962	20750
893.085	20838
893.207	20811
893.33	20629
893.452	20689
893.575	20739
893.697	20754
893.819	20925
893.941	20944
894.064	20963
894.186	20758
894.308	20712
894.43	20902
894.552	20910
894.674	20864
894.796	20716
894.918	20819
895.04	20785
895.161	20849
895.283	20773
895.405	20701
895.526	20727
895.648	20674
895.769	20739
895.891	20693
896.012	20887
896.134	20868
896.255	20739
896.376	20617
896.498	20708
896.619	20826
896.74	20697
896.861	20746
896.982	21051
897.103	21180
897.224	21039
897.345	20975
897.466	20906
897.587	20971
897.708	21005
897.828	21093
897.949	20944
898.07	20781
898.19	20895
898.311	20948
898.431	20952
898.552	20933
898.672	21096
898.792	21043
898.913	20948
899.033	20864
899.153	20606
899.273	20625
899.393	20792
899.513	20716
899.633	20697
899.753	20765
899.873	20670
899.993	20689
900.113	20556
900.232	20579
900.352	20617
900.472	20526
900.591	20434
900.711	20564
900.83	20381
900.95	20530
901.069	20526
901.189	20431
901.308	20305
901.427	20077
901.546	20107
901.665	20058
901.784	20054
901.904	19921
902.023	19807
902.141	19563
902.26	19677
902.379	19666
902.498	19537
902.617	19548
902.735	19651
902.854	19586
902.973	19464
903.091	19369
903.21	19202
903.328	19232
903.446	19152
903.565	19057
903.683	19031
903.801	18878
903.919	19027
904.038	19038
904.156	18833
904.274	18875
904.392	18764
904.51	18776
904.627	18665
904.745	18825
904.863	18757
904.981	18525
905.098	18388
905.216	18414
905.334	18426
905.451	18494
905.569	18399
905.686	18486
905.803	18410
905.921	18243
906.038	18311
906.155	18205
906.272	18133
906.389	18114
906.506	17999
906.623	18068
906.74	18095
906.857	17878
906.974	17874
907.091	18068
907.208	18068
907.324	17965
907.441	17912
907.557	17771
907.674	17779
907.79	17684
907.907	17703
908.023	17676
908.139	17512
908.256	17684
908.372	17543
908.488	17611
908.604	17406
908.72	17356
908.836	17307
908.952	17421
909.068	17528
909.184	17471
909.3	17356
909.415	17391
909.531	17402
909.647	17151
909.762	17113
909.878	17094
909.993	17136
910.108	17083
910.224	17003
910.339	17056
910.454	16904
910.57	16900
910.685	16862
910.8	17124
910.915	16991
911.03	16885
911.145	16755
911.259	16710
911.374	16729
911.489	16558
911.604	16611
911.718	16493
911.833	16474
911.947	16375
912.062	16333
912.176	16474
912.291	16481
912.405	16398
912.519	16630
912.633	16615
912.748	16462
912.862	16402
912.976	16200
913.09	16021
913.204	16253
913.318	16223
913.431	16284
913.545	16329
913.659	16322
913.772	16207
913.886	16048
914	15930
914.113	16135
914.226	16109
914.34	16135
914.453	15949
914.566	16059
914.68	15953
914.793	15892
914.906	15743
915.019	15591
915.132	15481
915.245	15641
915.358	15572
915.47	15538
915.583	15660
915.696	15679
915.809	15568
915.921	15804
916.034	15568
916.146	15591
916.259	15584
916.371	15610
916.483	15549
916.595	15420
916.708	15466
916.82	15378
916.932	15447
917.044	15435
917.156	15447
917.268	15230
917.38	15279
917.491	15214
917.603	15283
917.715	15329
917.826	15416
917.938	15157
918.049	15085
918.161	15192
918.272	15332
918.384	15298
918.495	15112
918.606	15024
918.717	14963
918.828	15039
918.939	14944
919.05	14906
919.161	15077
919.272	14720
919.383	14815
919.494	15150
919.604	15207
919.715	14929
919.826	14765
919.936	14998
920.047	15074
920.157	15009
920.267	15093
920.378	14998
920.488	14830
920.598	15058
920.708	15272
920.818	15032
920.928	15017
921.038	15203
921.148	15218
921.258	14941
921.368	14785
921.477	14674
921.587	14670
921.697	14541
921.806	14693
921.916	14590
922.025	14324
922.134	14374
922.244	14252
922.353	14336
922.462	14271
922.571	14096
922.68	13963
922.789	13936
922.898	13955
923.007	13879
923.116	13947
923.224	13890
923.333	13852
923.442	13769
923.55	13791
923.659	13818
923.767	13807
923.876	13723
923.984	13776
924.092	13651
924.201	13693
924.309	13719
924.417	13628
924.525	13632
924.633	13575
924.741	14259
924.849	13426
924.956	13415
925.064	13441
925.172	13304
925.279	13327
925.387	13381
925.494	13327
925.602	13407
925.709	13499
925.816	13297
925.924	13255
926.031	13350
926.138	13320
926.245	13373
926.352	13168
926.459	13304
926.566	13365
926.673	13278
926.779	13072
926.886	13076
926.993	12875
927.099	13004
927.206	12920
927.312	12840
927.419	12935
927.525	12947
927.631	12954
927.737	12753
927.843	12650
927.95	12639
928.056	12726
928.162	12692
928.267	12738
928.373	13510
928.479	12726
928.585	12544
928.69	12681
928.796	12730
928.901	12502
929.007	12334
929.112	12612
929.218	12540
929.323	12460
929.428	12311
929.533	12547
929.638	12289
929.743	12407
929.848	12410
929.953	12342
930.058	12262
930.163	12205
930.267	12167
930.372	12220
930.477	12041
930.581	12315
930.685	12152
930.79	12019
930.894	11992
930.998	12060
931.103	12102
931.207	11775
931.311	11592
931.415	11596
931.519	11387
931.623	11395
