Data from test_V78500241_1941.txt Node
Date: Fri Mar 25 15:55:14 CST 2022
User: usil
Spectrometer: V785-0024
Trigger mode: 0
Integration Time (sec): 4.000000E-1
Scans to average: 1
Nonlinearity correction enabled: false
Boxcar width: 0
Storing dark spectrum: false
XAxis mode: Wavelengths
Number of Pixels in Spectrum: 1024
>>>>>Begin Spectral Data<<<<<
801.071	28793
801.214	28542
801.356	28428
801.499	28455
801.641	28382
801.783	28162
801.926	28474
802.068	28322
802.211	28177
802.353	28177
802.496	27911
802.638	28051
802.78	27861
802.923	27960
803.065	27907
803.208	27857
803.35	27972
803.492	28131
803.635	28150
803.777	28097
803.919	28268
804.061	28588
804.204	28272
804.346	28135
804.488	28223
804.63	28192
804.773	28223
804.915	28238
805.057	28360
805.199	28173
805.341	28459
805.483	28451
805.626	28348
805.768	28154
805.91	28299
806.052	28409
806.194	28341
806.336	28550
806.478	28348
806.62	28310
806.762	28436
806.904	28683
807.046	28888
807.188	28835
807.33	28877
807.472	28995
807.614	28713
807.756	28740
807.898	28748
808.04	28611
808.182	28755
808.324	28649
808.465	28759
808.607	28862
808.749	29075
808.891	29208
809.033	29140
809.174	29048
809.316	29121
809.458	29071
809.6	29083
809.741	29193
809.883	29109
810.025	29402
810.166	29372
810.308	29261
810.45	29288
810.591	29334
810.733	28999
810.875	29090
811.016	28900
811.158	28915
811.299	29273
811.441	29197
811.582	29147
811.724	29124
811.865	29090
812.007	29033
812.148	29071
812.29	29136
812.431	29315
812.573	29398
812.714	29425
812.855	29623
812.997	29684
813.138	29767
813.279	29745
813.421	29600
813.562	29425
813.703	29414
813.845	29387
813.986	29041
814.127	28961
814.268	28687
814.41	28702
814.551	28763
814.692	28763
814.833	28885
814.974	28664
815.115	28755
815.256	28565
815.397	28603
815.539	28793
815.68	28497
815.821	28436
815.962	28637
816.103	28637
816.244	28481
816.385	28459
816.526	28261
816.666	28112
816.807	27994
816.948	28215
817.089	28147
817.23	28173
817.371	27972
817.512	28006
817.653	28082
817.793	28006
817.934	27975
818.075	28002
818.216	28177
818.356	27941
818.497	28124
818.638	27914
818.778	27755
818.919	27922
819.06	27941
819.2	27991
819.341	28048
819.481	28006
819.622	28105
819.762	28523
819.903	28299
820.043	28360
820.184	28432
820.324	28128
820.465	28265
820.605	28181
820.746	28219
820.886	28032
821.026	28074
821.167	28230
821.307	28185
821.447	28154
821.588	28093
821.728	27865
821.868	27648
822.008	27572
822.149	27610
822.289	27644
822.429	27279
822.569	27291
822.709	27237
822.849	27131
822.99	27066
823.13	27119
823.27	27043
823.41	26792
823.55	26731
823.69	26792
823.83	26937
823.97	26868
824.11	26693
824.25	26701
824.389	26750
824.529	26701
824.669	26659
824.809	26830
824.949	26720
825.089	26895
825.228	26731
825.368	26507
825.508	26609
825.648	26712
825.787	26811
825.927	26682
826.067	26568
826.206	26609
826.346	26609
826.485	26636
826.625	26609
826.765	26724
826.904	26689
827.044	26473
827.183	26400
827.323	26339
827.462	26431
827.601	26389
827.741	26309
827.88	26336
828.02	26259
828.159	26286
828.298	26324
828.437	26473
828.577	26183
828.716	26469
828.855	26294
828.994	26031
829.134	25993
829.273	26027
829.412	26043
829.551	25970
829.69	25993
829.829	26069
829.968	26111
830.107	25955
830.246	25856
830.385	25841
830.524	25887
830.663	25955
830.802	25738
830.941	25708
831.08	25521
831.219	25784
831.357	25723
831.496	25982
831.635	25597
831.774	25548
831.913	25514
832.051	25544
832.19	25495
832.329	25419
832.467	25304
832.606	25491
832.744	25304
832.883	25438
833.022	25198
833.16	25141
833.299	25438
833.437	25464
833.576	25472
833.714	25445
833.852	25339
833.991	25460
834.129	25521
834.267	25487
834.406	25479
834.544	25514
834.682	25411
834.821	25247
834.959	25567
835.097	25388
835.235	25415
835.373	25350
835.511	25343
835.65	25301
835.788	25240
835.926	25103
836.064	25000
836.202	25069
836.34	25133
836.478	25278
836.615	25160
836.753	25156
836.891	25327
837.029	25343
837.167	25110
837.305	24992
837.443	25198
837.58	25046
837.718	25168
837.856	25061
837.993	24973
838.131	25091
838.269	24973
838.406	24928
838.544	24886
838.681	24665
838.819	24661
838.956	24441
839.094	24589
839.231	24563
839.369	24707
839.506	24939
839.643	24703
839.781	24540
839.918	24486
840.055	24513
840.193	24391
840.33	24429
840.467	24517
840.604	24429
840.742	24696
840.879	24125
841.016	24338
841.153	24395
841.29	24460
841.427	24403
841.564	24414
841.701	24350
841.838	24361
841.975	24323
842.112	24323
842.249	24258
842.385	24163
842.522	24308
842.659	24380
842.796	24121
842.933	24121
843.069	24011
843.206	24133
843.343	24178
843.479	24201
843.616	24117
843.752	23920
843.889	24026
844.025	23973
844.162	23923
844.298	23999
844.435	23828
844.571	23775
844.708	23931
844.844	24148
844.98	24083
845.117	24121
845.253	23904
845.389	23714
845.525	23859
845.661	23809
845.798	23729
845.934	23756
846.07	23630
846.206	23737
846.342	23714
846.478	23611
846.614	23360
846.75	23326
846.886	23417
847.022	23471
847.158	23471
847.294	23414
847.429	23592
847.565	23349
847.701	23501
847.837	23094
847.972	23170
848.108	23174
848.244	23155
848.379	22961
848.515	22885
848.65	22869
848.786	22980
848.921	22900
849.057	23029
849.192	23033
849.328	23048
849.463	23044
849.598	22908
849.734	22790
849.869	22831
850.004	22752
850.14	22687
850.275	22767
850.41	22611
850.545	22828
850.68	22687
850.815	22675
850.95	22721
851.085	22873
851.22	22873
851.355	22782
851.49	22755
851.625	22660
851.76	22675
851.895	22618
852.03	22615
852.165	22759
852.299	22656
852.434	22740
852.569	22869
852.703	22740
852.838	22717
852.973	22812
853.107	22805
853.242	22626
853.376	22588
853.511	22508
853.645	22519
853.78	22607
853.914	22622
854.048	22596
854.183	22630
854.317	22641
854.451	22596
854.585	22592
854.72	22542
854.854	22607
854.988	22402
855.122	22504
855.256	22390
855.39	22459
855.524	22641
855.658	22668
855.792	22519
855.926	22451
856.06	22474
856.194	22500
856.327	22535
856.461	22428
856.595	22481
856.729	22417
856.862	22675
856.996	22637
857.13	22603
857.263	22538
857.397	22561
857.53	22618
857.664	22535
857.797	22687
857.931	22615
858.064	22546
858.197	22618
858.331	22500
858.464	22577
858.597	22497
858.731	22561
858.864	22611
858.997	22470
859.13	22580
859.263	22554
859.396	22584
859.529	22523
859.662	22626
859.795	22462
859.928	22596
860.061	22573
860.194	22691
860.327	22634
860.46	22645
860.592	22698
860.725	22641
860.858	22607
860.99	22519
861.123	22538
861.256	22535
861.388	22599
861.521	23337
861.653	22455
861.786	22325
861.918	22394
862.05	22447
862.183	22405
862.315	22382
862.447	22470
862.58	22382
862.712	22299
862.844	22150
862.976	22230
863.108	22200
863.24	22790
863.372	22268
863.504	22253
863.636	22177
863.768	22272
863.9	22287
864.032	22196
864.164	22192
864.296	22211
864.428	22238
864.559	22367
864.691	22329
864.823	22192
864.954	22196
865.086	22169
865.217	22162
865.349	22029
865.48	22162
865.612	22238
865.743	22211
865.875	22150
866.006	22074
866.137	22097
866.269	22063
866.4	22101
866.531	22032
866.662	21960
866.793	22013
866.924	22055
867.055	22158
867.186	22097
867.317	21937
867.448	21937
867.579	22002
867.71	21937
867.841	21911
867.972	22086
868.103	22051
868.233	22036
868.364	22010
868.495	22147
868.625	22310
868.756	22382
868.886	22280
869.017	22249
869.147	22333
869.278	22379
869.408	22284
869.539	22295
869.669	22329
869.799	22409
869.929	22398
870.06	22390
870.19	22641
870.32	22618
870.45	22637
870.58	22615
870.71	22725
870.84	22748
870.97	22748
871.1	22793
871.23	22889
871.36	22862
871.489	22744
871.619	22934
871.749	22938
871.879	22934
872.008	22980
872.138	22953
872.267	22831
872.397	22725
872.526	22607
872.656	22816
872.785	22694
872.915	22869
873.044	22942
873.173	22858
873.303	22904
873.432	22949
873.561	23033
873.69	22934
873.819	22881
873.948	22930
874.077	22889
874.206	22805
874.335	22919
874.464	23014
874.593	23105
874.722	22980
874.851	23113
874.979	23117
875.108	23147
875.237	23105
875.365	23037
875.494	23056
875.623	23162
875.751	23083
875.88	23098
876.008	23193
876.136	23307
876.265	23516
876.393	23649
876.521	23729
876.65	23520
876.778	23486
876.906	23455
877.034	23463
877.162	23417
877.29	23349
877.418	23516
877.546	23448
877.674	23467
877.802	23421
877.93	23452
878.058	23474
878.185	23273
878.313	23288
878.441	23398
878.568	23299
878.696	23322
878.824	23387
878.951	23535
879.079	23665
879.206	23760
879.333	23687
879.461	23391
879.588	23554
879.715	23619
879.842	23737
879.97	23391
880.097	23235
880.224	23360
880.351	23299
880.478	23258
880.605	23216
880.732	23379
880.859	23463
880.986	23269
881.112	23356
881.239	23029
881.366	23067
881.493	22869
881.619	22793
881.746	22915
881.872	22820
881.999	22805
882.125	22767
882.252	22847
882.378	22869
882.505	22946
882.631	22786
882.757	22421
882.883	22611
883.01	22588
883.136	22474
883.262	22405
883.388	22329
883.514	22672
883.64	22580
883.766	22478
883.892	22276
884.018	22295
884.143	22417
884.269	22592
884.395	22223
884.52	22112
884.646	22128
884.772	22078
884.897	22090
885.023	22188
885.148	22253
885.274	22325
885.399	22169
885.524	22162
885.65	22173
885.775	21975
885.9	22101
886.025	22246
886.15	22272
886.275	22303
886.4	22082
886.525	22082
886.65	22204
886.775	21979
886.9	22131
887.025	22272
887.149	22139
887.274	21972
887.399	21979
887.523	21975
887.648	21835
887.773	21679
887.897	22055
888.021	21781
888.146	21994
888.27	21918
888.395	21903
888.519	21915
888.643	21884
888.767	21930
888.891	21797
889.015	21709
889.139	21793
889.263	21580
889.387	21682
889.511	21800
889.635	21808
889.759	21603
889.883	21724
890.006	21720
890.13	21747
890.254	21454
890.377	21542
890.501	21454
890.624	21363
890.748	21412
890.871	21329
890.995	21325
891.118	21180
891.241	21275
891.364	21214
891.488	21310
891.611	21275
891.734	21131
891.857	21252
891.98	21188
892.103	21291
892.226	21195
892.349	21211
892.471	20982
892.594	21051
892.717	21192
892.839	21112
892.962	21173
893.085	21218
893.207	21066
893.33	21032
893.452	21024
893.575	21123
893.697	21066
893.819	21237
893.941	21283
894.064	21393
894.186	21081
894.308	21074
894.43	21237
894.552	21230
894.674	21230
894.796	20956
894.918	21142
895.04	21093
895.161	21138
895.283	21123
895.405	20960
895.526	21074
895.648	21146
895.769	21127
895.891	21173
896.012	21180
896.134	20994
896.255	20929
896.376	20975
896.498	21165
896.619	21096
896.74	21142
896.861	21291
896.982	21412
897.103	21523
897.224	21355
897.345	21313
897.466	21279
897.587	21382
897.708	21382
897.828	21321
897.949	21272
898.07	21081
898.19	21184
898.311	21329
898.431	21165
898.552	21298
898.672	21374
898.792	21291
898.913	21275
899.033	21135
899.153	21020
899.273	20925
899.393	20960
899.513	21047
899.633	21066
899.753	21093
899.873	20914
899.993	21157
900.113	20956
900.232	20941
900.352	20857
900.472	20842
900.591	20758
900.711	20811
900.83	20743
900.95	20952
901.069	20849
901.189	20625
901.308	20583
901.427	20347
901.546	20339
901.665	20427
901.784	20400
901.904	20191
902.023	20214
902.141	19970
902.26	19822
902.379	19845
902.498	19879
902.617	19852
902.735	19974
902.854	19791
902.973	19818
903.091	19620
903.21	19529
903.328	19514
903.446	19483
903.565	19263
903.683	19213
903.801	19316
903.919	19301
904.038	19335
904.156	19129
904.274	19198
904.392	19069
904.51	19126
904.627	19103
904.745	19053
904.863	19160
904.981	18901
905.098	18791
905.216	18715
905.334	18734
905.451	18783
905.569	18848
905.686	18696
905.803	18711
905.921	18498
906.038	18669
906.155	18620
906.272	18513
906.389	18509
906.506	18315
906.623	18395
906.74	18311
906.857	18148
906.974	18220
907.091	18369
907.208	18384
907.324	18273
907.441	18174
907.557	18133
907.674	18098
907.79	17942
907.907	18076
908.023	18060
908.139	17999
908.256	17931
908.372	17939
908.488	17863
908.604	17672
908.72	17710
908.836	17745
908.952	17714
909.068	17779
909.184	17779
909.3	17672
909.415	17821
909.531	17676
909.647	17444
909.762	17364
909.878	17398
909.993	17497
910.108	17410
910.224	17345
910.339	17421
910.454	17258
910.57	17242
910.685	17098
910.8	17433
910.915	17353
911.03	17189
911.145	17033
911.259	17041
911.374	17033
911.489	17060
911.604	16771
911.718	16881
911.833	16725
911.947	16687
912.062	16596
912.176	16809
912.291	16835
912.405	16713
912.519	16831
912.633	16881
912.748	16672
912.862	16698
912.976	16611
913.09	16417
913.204	16519
913.318	16504
913.431	16641
913.545	16615
913.659	16584
913.772	16645
913.886	16333
914	16352
914.113	16432
914.226	16436
914.34	16375
914.453	16272
914.566	16375
914.68	16150
914.793	16051
914.906	15998
915.019	15934
915.132	15945
915.245	15922
915.358	15960
915.47	15949
915.583	15903
915.696	15953
915.809	16067
915.921	16017
916.034	15800
916.146	15812
916.259	15739
916.371	15911
916.483	15899
916.595	15766
916.708	15759
916.82	15713
916.932	15584
917.044	15637
917.156	15538
917.268	15580
917.38	15549
917.491	15507
917.603	15526
917.715	15538
917.826	15641
917.938	15515
918.049	15351
918.161	15564
918.272	15663
918.384	15553
918.495	15450
918.606	15325
918.717	15252
918.828	15370
918.939	15313
919.05	15260
919.161	15256
919.272	15150
919.383	15154
919.494	15287
919.604	15469
919.715	15226
919.826	15127
919.936	15161
920.047	15252
920.157	15249
920.267	15405
920.378	15260
920.488	15199
920.598	15363
920.708	15496
920.818	15378
920.928	15367
921.038	15496
921.148	15439
921.258	15146
921.368	15100
921.477	14864
921.587	15032
921.697	14777
921.806	14963
921.916	14800
922.025	14625
922.134	14587
922.244	14431
922.353	14564
922.462	14412
922.571	14366
922.68	14263
922.789	14267
922.898	14123
923.007	14191
923.116	14233
923.224	14237
923.333	14282
923.442	14077
923.55	14077
923.659	14069
923.767	14073
923.876	13925
923.984	14115
924.092	13871
924.201	13982
924.309	13906
924.417	14065
924.525	13925
924.633	13894
924.741	14731
924.849	13628
924.956	13791
925.064	13601
925.172	13559
925.279	13586
925.387	13639
925.494	13540
925.602	13761
925.709	13632
925.816	13518
925.924	13480
926.031	13586
926.138	13518
926.245	13556
926.352	13480
926.459	13563
926.566	13658
926.673	13419
926.779	13194
926.886	13274
926.993	13202
927.099	13206
927.206	13095
927.312	13027
927.419	13221
927.525	13126
927.631	13183
927.737	13137
927.843	13065
927.95	12905
928.056	12886
928.162	12916
928.267	12916
928.373	13548
928.479	13015
928.585	12806
928.69	12890
928.796	12966
928.901	12795
929.007	12627
929.112	12871
929.218	12760
929.323	12627
929.428	12711
929.533	12840
929.638	12563
929.743	12620
929.848	12631
929.953	12623
930.058	12483
930.163	12228
930.267	12399
930.372	12448
930.477	12270
930.581	12464
930.685	12441
930.79	12228
930.894	12216
930.998	12213
931.103	12319
931.207	11980
931.311	11855
931.415	11790
931.519	11619
931.623	11592
