Data from test_V78500241_2030.txt Node
Date: Fri Mar 25 15:55:51 CST 2022
User: usil
Spectrometer: V785-0024
Trigger mode: 0
Integration Time (sec): 4.000000E-1
Scans to average: 1
Nonlinearity correction enabled: false
Boxcar width: 0
Storing dark spectrum: false
XAxis mode: Wavelengths
Number of Pixels in Spectrum: 1024
>>>>>Begin Spectral Data<<<<<
801.071	28888
801.214	28923
801.356	28733
801.499	28523
801.641	28615
801.783	28672
801.926	28550
802.068	28626
802.211	28580
802.353	28466
802.496	28295
802.638	28093
802.78	28135
802.923	28040
803.065	28086
803.208	28143
803.35	28196
803.492	28569
803.635	28535
803.777	28188
803.919	28451
804.061	28755
804.204	28561
804.346	28417
804.488	28440
804.63	28497
804.773	28421
804.915	28455
805.057	28592
805.199	28405
805.341	28641
805.483	28443
805.626	28497
805.768	28493
805.91	28645
806.052	28599
806.194	28500
806.336	28698
806.478	28733
806.62	28580
806.762	28820
806.904	28923
807.046	29052
807.188	29018
807.33	28968
807.472	29083
807.614	29178
807.756	29033
807.898	28961
808.04	28900
808.182	28888
808.324	29102
808.465	28938
808.607	29128
808.749	29231
808.891	29334
809.033	29608
809.174	29330
809.316	29402
809.458	29353
809.6	29216
809.741	29463
809.883	29558
810.025	29699
810.166	29589
810.308	29642
810.45	29520
810.591	29600
810.733	29398
810.875	29375
811.016	29242
811.158	29151
811.299	29421
811.441	29562
811.582	29417
811.724	29395
811.865	29220
812.007	29337
812.148	29303
812.29	29486
812.431	29353
812.573	29680
812.714	29786
812.855	29798
812.997	29912
813.138	30083
813.279	30091
813.421	29885
813.562	29840
813.703	29661
813.845	29551
813.986	29398
814.127	29041
814.268	29056
814.41	29022
814.551	28965
814.692	29174
814.833	28942
814.974	29067
815.115	29242
815.256	28843
815.397	28915
815.539	28930
815.68	28668
815.821	28862
815.962	28885
816.103	28953
816.244	28820
816.385	28615
816.526	28546
816.666	28379
816.807	28325
816.948	28417
817.089	28333
817.23	28356
817.371	28500
817.512	28333
817.653	28523
817.793	28417
817.934	28253
818.075	28333
818.216	28356
818.356	28314
818.497	28207
818.638	28135
818.778	28169
818.919	28074
819.06	28223
819.2	28303
819.341	28367
819.481	28329
819.622	28474
819.762	28786
819.903	28519
820.043	28634
820.184	28504
820.324	28615
820.465	28497
820.605	28462
820.746	28394
820.886	28344
821.026	28436
821.167	28519
821.307	28523
821.447	28382
821.588	28360
821.728	28166
821.868	28154
822.008	27804
822.149	27903
822.289	27800
822.429	27595
822.569	27564
822.709	27447
822.849	27237
822.99	27416
823.13	27329
823.27	27401
823.41	27211
823.55	27013
823.69	27024
823.83	27294
823.97	27245
824.11	26971
824.25	26960
824.389	27157
824.529	27154
824.669	27081
824.809	27272
824.949	27195
825.089	27017
825.228	27001
825.368	26960
825.508	26815
825.648	27062
825.787	26956
825.927	26990
826.067	27005
826.206	26963
826.346	27028
826.485	26979
826.625	26899
826.765	26967
826.904	26880
827.044	26648
827.183	26743
827.323	26594
827.462	26651
827.601	26625
827.741	26552
827.88	26632
828.02	26533
828.159	26777
828.298	26670
828.437	26617
828.577	26545
828.716	26716
828.855	26545
828.994	26294
829.134	26484
829.273	26282
829.412	26358
829.551	26294
829.69	26301
829.829	26381
829.968	26347
830.107	26446
830.246	26343
830.385	26313
830.524	26320
830.663	26084
830.802	25989
830.941	25940
831.08	25868
831.219	26092
831.357	25921
831.496	26119
831.635	26058
831.774	25909
831.913	25936
832.051	25666
832.19	25693
832.329	25765
832.467	25601
832.606	25578
832.744	25483
832.883	25616
833.022	25559
833.16	25594
833.299	25753
833.437	25502
833.576	25632
833.714	25639
833.852	25807
833.991	25742
834.129	25693
834.267	25852
834.406	25670
834.544	25635
834.682	25651
834.821	25670
834.959	25666
835.097	25594
835.235	25712
835.373	25750
835.511	25605
835.65	25518
835.788	25521
835.926	25285
836.064	25415
836.202	25312
836.34	25339
836.478	25590
836.615	25491
836.753	25464
836.891	25502
837.029	25438
837.167	25483
837.305	25384
837.443	25392
837.58	25377
837.718	25384
837.856	25384
837.993	25339
838.131	25247
838.269	25259
838.406	25289
838.544	25145
838.681	24951
838.819	24871
838.956	24791
839.094	24833
839.231	24878
839.369	25034
839.506	25263
839.643	25110
839.781	24757
839.918	24681
840.055	24829
840.193	24840
840.33	24597
840.467	24719
840.604	24703
840.742	25027
840.879	24582
841.016	24616
841.153	24589
841.29	24821
841.427	24623
841.564	24741
841.701	24597
841.838	24650
841.975	24604
842.112	24654
842.249	24365
842.385	24353
842.522	24559
842.659	24544
842.796	24437
842.933	24369
843.069	24365
843.206	24289
843.343	24441
843.479	24395
843.616	24357
843.752	24129
843.889	24178
844.025	24232
844.162	24110
844.298	24270
844.435	24213
844.571	24197
844.708	24239
844.844	24330
844.98	24247
845.117	24391
845.253	24159
845.389	24163
845.525	24091
845.661	24038
845.798	24057
845.934	23843
846.07	23946
846.206	23889
846.342	24117
846.478	23935
846.614	23809
846.75	23573
846.886	23638
847.022	23718
847.158	23699
847.294	23710
847.429	23649
847.565	23615
847.701	23897
847.837	23406
847.972	23334
848.108	23551
848.244	23509
848.379	23414
848.515	23185
848.65	23166
848.786	23197
848.921	23181
849.057	23250
849.192	23349
849.328	23421
849.463	23376
849.598	23231
849.734	22961
849.869	23121
850.004	23064
850.14	23010
850.275	22972
850.41	22923
850.545	23014
850.68	22942
850.815	22919
850.95	23041
851.085	23185
851.22	23254
851.355	23064
851.49	22896
851.625	22999
851.76	23025
851.895	22942
852.03	22942
852.165	22957
852.299	23113
852.434	23006
852.569	23041
852.703	23166
852.838	23140
852.973	23117
853.107	23033
853.242	23056
853.376	22866
853.511	22797
853.645	22820
853.78	22900
853.914	22949
854.048	22793
854.183	22885
854.317	22885
854.451	23006
854.585	22801
854.72	22835
854.854	22889
854.988	22713
855.122	22862
855.256	22733
855.39	22763
855.524	22873
855.658	22923
855.792	22938
855.926	22900
856.06	22934
856.194	22854
856.327	22729
856.461	22782
856.595	22831
856.729	22866
856.862	22942
856.996	22942
857.13	22904
857.263	23014
857.397	22957
857.53	22717
857.664	22889
857.797	22843
857.931	22892
858.064	22809
858.197	22828
858.331	22854
858.464	22717
858.597	22641
858.731	22809
858.864	22892
858.997	22866
859.13	22957
859.263	22828
859.396	22831
859.529	22793
859.662	22904
859.795	22820
859.928	22778
860.061	22980
860.194	23003
860.327	22919
860.46	22839
860.592	22946
860.725	22961
860.858	22927
860.99	22877
861.123	22759
861.256	22801
861.388	22850
861.521	23779
861.653	22713
861.786	22634
861.918	22702
862.05	22782
862.183	22656
862.315	22713
862.447	22759
862.58	22763
862.712	22599
862.844	22432
862.976	22554
863.108	22573
863.24	23003
863.372	22538
863.504	22493
863.636	22470
863.768	22535
863.9	22493
864.032	22424
864.164	22531
864.296	22615
864.428	22698
864.559	22740
864.691	22455
864.823	22519
864.954	22424
865.086	22440
865.217	22451
865.349	22356
865.48	22424
865.612	22375
865.743	22573
865.875	22493
866.006	22375
866.137	22413
866.269	22333
866.4	22284
866.531	22303
866.662	22257
866.793	22379
866.924	22363
867.055	22402
867.186	22295
867.317	22295
867.448	22249
867.579	22299
867.71	22226
867.841	22257
867.972	22402
868.103	22390
868.233	22325
868.364	22329
868.495	22459
868.625	22497
868.756	22725
868.886	22474
869.017	22523
869.147	22653
869.278	22618
869.408	22474
869.539	22527
869.669	22630
869.799	22527
869.929	22725
870.06	22557
870.19	22999
870.32	22831
870.45	22949
870.58	22904
870.71	23079
870.84	23060
870.97	22915
871.1	22881
871.23	23147
871.36	23136
871.489	22965
871.619	22995
871.749	23117
871.879	23121
872.008	23242
872.138	23147
872.267	23132
872.397	22972
872.526	22919
872.656	22987
872.785	22946
872.915	23193
873.044	23189
873.173	23124
873.303	23303
873.432	23109
873.561	23433
873.69	23174
873.819	23124
873.948	23292
874.077	23151
874.206	23056
874.335	23170
874.464	23258
874.593	23349
874.722	23284
874.851	23459
874.979	23341
875.108	23463
875.237	23318
875.365	23178
875.494	23345
875.623	23341
875.751	23501
875.88	23379
876.008	23543
876.136	23592
876.265	23668
876.393	23809
876.521	23863
876.65	23775
876.778	23733
876.906	23836
877.034	23733
877.162	23760
877.29	23634
877.418	23680
877.546	23756
877.674	23668
877.802	23691
877.93	23691
878.058	23676
878.185	23695
878.313	23608
878.441	23729
878.568	23566
878.696	23764
878.824	23790
878.951	23779
879.079	23923
879.206	23908
879.333	23859
879.461	23726
879.588	23756
879.715	23874
879.842	23931
879.97	23824
880.097	23661
880.224	23577
880.351	23592
880.478	23512
880.605	23387
880.732	23585
880.859	23733
880.986	23592
881.112	23570
881.239	23334
881.366	23299
881.493	23181
881.619	23136
881.746	23037
881.872	23117
881.999	23052
882.125	23022
882.252	23086
882.378	23079
882.505	23109
882.631	22968
882.757	22763
882.883	22771
883.01	22858
883.136	22694
883.262	22622
883.388	22660
883.514	22763
883.64	22843
883.766	22618
883.892	22500
884.018	22516
884.143	22713
884.269	22831
884.395	22375
884.52	22447
884.646	22523
884.772	22272
884.897	22341
885.023	22447
885.148	22561
885.274	22489
885.399	22508
885.524	22386
885.65	22417
885.775	22386
885.9	22379
886.025	22443
886.15	22470
886.275	22337
886.4	22242
886.525	22352
886.65	22287
886.775	22344
886.9	22489
887.025	22656
887.149	22409
887.274	22200
887.399	22173
887.523	22200
887.648	22051
887.773	22128
887.897	22112
888.021	22185
888.146	22055
888.27	22135
888.395	22230
888.519	22093
888.643	22135
888.767	22211
888.891	22090
889.015	21968
889.139	22002
889.263	21934
889.387	22036
889.511	22185
889.635	22109
889.759	21759
889.883	22029
890.006	21876
890.13	21941
890.254	21895
890.377	21861
890.501	21808
890.624	21762
890.748	21671
890.871	21496
890.995	21393
891.118	21340
891.241	21488
891.364	21549
891.488	21625
891.611	21538
891.734	21538
891.857	21595
891.98	21519
892.103	21583
892.226	21500
892.349	21435
892.471	21256
892.594	21321
892.717	21424
892.839	21329
892.962	21374
893.085	21408
893.207	21393
893.33	21310
893.452	21351
893.575	21435
893.697	21264
893.819	21504
893.941	21447
894.064	21458
894.186	21310
894.308	21294
894.43	21443
894.552	21515
894.674	21389
894.796	21287
894.918	21230
895.04	21367
895.161	21431
895.283	21340
895.405	21256
895.526	21329
895.648	21252
895.769	21462
895.891	21336
896.012	21386
896.134	21313
896.255	21332
896.376	21310
896.498	21431
896.619	21363
896.74	21226
896.861	21447
896.982	21675
897.103	21797
897.224	21580
897.345	21530
897.466	21500
897.587	21466
897.708	21648
897.828	21549
897.949	21458
898.07	21359
898.19	21359
898.311	21511
898.431	21431
898.552	21606
898.672	21580
898.792	21587
898.913	21511
899.033	21439
899.153	21401
899.273	21218
899.393	21203
899.513	21306
899.633	21275
899.753	21287
899.873	21317
899.993	21207
900.113	21272
900.232	21222
900.352	21138
900.472	21138
900.591	20960
900.711	21028
900.83	21009
900.95	21062
901.069	21047
901.189	20792
901.308	20693
901.427	20602
901.546	20564
901.665	20632
901.784	20590
901.904	20408
902.023	20385
902.141	20176
902.26	20145
902.379	20248
902.498	20031
902.617	20031
902.735	20202
902.854	19917
902.973	19989
903.091	19746
903.21	19666
903.328	19769
903.446	19658
903.565	19441
903.683	19533
903.801	19373
903.919	19506
904.038	19438
904.156	19301
904.274	19362
904.392	19282
904.51	19263
904.627	19278
904.745	19213
904.863	19289
904.981	19015
905.098	19133
905.216	19015
905.334	19008
905.451	19103
905.569	18943
905.686	18901
905.803	18966
905.921	18673
906.038	18814
906.155	18715
906.272	18738
906.389	18631
906.506	18437
906.623	18532
906.74	18418
906.857	18353
906.974	18460
907.091	18509
907.208	18582
907.324	18445
907.441	18277
907.557	18243
907.674	18235
907.79	18178
907.907	18155
908.023	18300
908.139	18186
908.256	18030
908.372	18015
908.488	18144
908.604	17973
908.72	17813
908.836	17939
908.952	17897
909.068	17916
909.184	17977
909.3	17832
909.415	17992
909.531	17767
909.647	17646
909.762	17570
909.878	17691
909.993	17532
910.108	17543
910.224	17543
910.339	17512
910.454	17638
910.57	17349
910.685	17417
910.8	17665
910.915	17368
911.03	17383
911.145	17159
911.259	17185
911.374	17162
911.489	17102
911.604	16976
911.718	16911
911.833	16915
911.947	16748
912.062	16733
912.176	16828
912.291	16896
912.405	17128
912.519	17090
912.633	17143
912.748	16911
912.862	16858
912.976	16774
913.09	16546
913.204	16717
913.318	16641
913.431	16782
913.545	16782
913.659	16656
913.772	16679
913.886	16577
914	16535
914.113	16691
914.226	16645
914.34	16485
914.453	16421
914.566	16447
914.68	16371
914.793	16325
914.906	16211
915.019	16067
915.132	16078
915.245	16150
915.358	16112
915.47	16128
915.583	16074
915.696	16010
915.809	16139
915.921	16128
916.034	15907
916.146	15991
916.259	15953
916.371	16044
916.483	16002
916.595	15937
916.708	15835
916.82	15899
916.932	15846
917.044	15842
917.156	15850
917.268	15671
917.38	15717
917.491	15713
917.603	15785
917.715	15713
917.826	15720
917.938	15694
918.049	15557
918.161	15523
918.272	15770
918.384	15724
918.495	15766
918.606	15435
918.717	15386
918.828	15496
918.939	15473
919.05	15386
919.161	15348
919.272	15154
919.383	15218
919.494	15534
919.604	15599
919.715	15447
919.826	15382
919.936	15310
920.047	15469
920.157	15359
920.267	15553
920.378	15405
920.488	15393
920.598	15488
920.708	15641
920.818	15420
920.928	15561
921.038	15728
921.148	15625
921.258	15199
921.368	15192
921.477	15104
921.587	15180
921.697	14952
921.806	15112
921.916	14998
922.025	14788
922.134	14739
922.244	14625
922.353	14701
922.462	14606
922.571	14541
922.68	14393
922.789	14385
922.898	14301
923.007	14271
923.116	14343
923.224	14366
923.333	14320
923.442	14267
923.55	14229
923.659	14206
923.767	14259
923.876	14043
923.984	14187
924.092	14115
924.201	14054
924.309	14077
924.417	14107
924.525	14046
924.633	14035
924.741	14826
924.849	13738
924.956	13936
925.064	13769
925.172	13689
925.279	13772
925.387	13757
925.494	13727
925.602	13826
925.709	13788
925.816	13552
925.924	13658
926.031	13753
926.138	13578
926.245	13632
926.352	13605
926.459	13639
926.566	13765
926.673	13586
926.779	13457
926.886	13430
926.993	13282
927.099	13209
927.206	13244
927.312	13263
927.419	13289
927.525	13293
927.631	13358
927.737	13118
927.843	13171
927.95	13061
928.056	13057
928.162	13053
928.267	13149
928.373	13636
928.479	13110
928.585	12928
928.69	13008
928.796	12935
928.901	12932
929.007	12681
929.112	12962
929.218	12894
929.323	12719
929.428	12783
929.533	12856
929.638	12787
929.743	12639
929.848	12700
929.953	12677
930.058	12631
930.163	12452
930.267	12422
930.372	12612
930.477	12391
930.581	12631
930.685	12407
930.79	12315
930.894	12323
930.998	12262
931.103	12403
931.207	12060
931.311	12064
931.415	11931
931.519	11691
931.623	11653
