Data from test_V78500241_3634.txt Node
Date: Fri Mar 25 16:06:58 CST 2022
User: usil
Spectrometer: V785-0024
Trigger mode: 0
Integration Time (sec): 4.000000E-1
Scans to average: 1
Nonlinearity correction enabled: false
Boxcar width: 0
Storing dark spectrum: false
XAxis mode: Wavelengths
Number of Pixels in Spectrum: 1024
>>>>>Begin Spectral Data<<<<<
801.071	27732
801.214	27500
801.356	27443
801.499	27264
801.641	27272
801.783	27131
801.926	27184
802.068	27009
802.211	27081
802.353	27161
802.496	26876
802.638	26940
802.78	26727
802.923	26750
803.065	26727
803.208	26735
803.35	26800
803.492	27058
803.635	27047
803.777	26910
803.919	26940
804.061	27332
804.204	27077
804.346	26887
804.488	26906
804.63	27032
804.773	26925
804.915	27013
805.057	27138
805.199	26975
805.341	27070
805.483	27039
805.626	27169
805.768	26887
805.91	27108
806.052	27188
806.194	27032
806.336	27245
806.478	27100
806.62	27157
806.762	27192
806.904	27317
807.046	27618
807.188	27496
807.33	27580
807.472	27690
807.614	27466
807.756	27572
807.898	27401
808.04	27340
808.182	27329
808.324	27454
808.465	27321
808.607	27751
808.749	27698
808.891	27941
809.033	27892
809.174	27698
809.316	27759
809.458	27838
809.6	27660
809.741	27831
809.883	27941
810.025	27972
810.166	28128
810.308	28025
810.45	27892
810.591	28063
810.733	27751
810.875	27747
811.016	27591
811.158	27572
811.299	27838
811.441	27797
811.582	27914
811.724	27743
811.865	27739
812.007	27614
812.148	27686
812.29	27736
812.431	27846
812.573	28090
812.714	28021
812.855	28249
812.997	28322
813.138	28386
813.279	28265
813.421	28204
813.562	28188
813.703	27972
813.845	27895
813.986	27572
814.127	27530
814.268	27462
814.41	27466
814.551	27325
814.692	27496
814.833	27367
814.974	27431
815.115	27488
815.256	27233
815.397	27127
815.539	27252
815.68	27287
815.821	27218
815.962	27241
816.103	27146
816.244	27009
816.385	26971
816.526	26773
816.666	26670
816.807	26571
816.948	26815
817.089	26815
817.23	26674
817.371	26651
817.512	26674
817.653	26606
817.793	26617
817.934	26552
818.075	26674
818.216	26727
818.356	26537
818.497	26625
818.638	26381
818.778	26381
818.919	26499
819.06	26469
819.2	26575
819.341	26724
819.481	26667
819.622	26834
819.762	27036
819.903	26853
820.043	26838
820.184	26796
820.324	26902
820.465	26785
820.605	26895
820.746	26861
820.886	26663
821.026	26708
821.167	26693
821.307	26823
821.447	26743
821.588	26606
821.728	26362
821.868	26377
822.008	26199
822.149	26107
822.289	26142
822.429	25909
822.569	25890
822.709	25769
822.849	25780
822.99	25712
823.13	25685
823.27	25651
823.41	25552
823.55	25586
823.69	25510
823.83	25472
823.97	25396
824.11	25240
824.25	25255
824.389	25293
824.529	25274
824.669	25301
824.809	25502
824.949	25495
825.089	25396
825.228	25384
825.368	25031
825.508	25031
825.648	25114
825.787	25244
825.927	25198
826.067	25103
826.206	25008
826.346	25232
826.485	25289
826.625	25156
826.765	25240
826.904	25217
827.044	24882
827.183	24817
827.323	24779
827.462	25015
827.601	24878
827.741	24802
827.88	24867
828.02	24814
828.159	24730
828.298	25012
828.437	25061
828.577	24886
828.716	24962
828.855	24768
828.994	24597
829.134	24715
829.273	24517
829.412	24540
829.551	24608
829.69	24585
829.829	24604
829.968	24597
830.107	24566
830.246	24616
830.385	24426
830.524	24525
830.663	24323
830.802	24114
830.941	24114
831.08	24171
831.219	24350
831.357	24292
831.496	24426
831.635	24159
831.774	24076
831.913	24083
832.051	23931
832.19	23996
832.329	24003
832.467	24007
832.606	23813
832.744	23935
832.883	23836
833.022	23859
833.16	23870
833.299	23908
833.437	23988
833.576	23885
833.714	23977
833.852	23916
833.991	23931
834.129	24041
834.267	23920
834.406	23847
834.544	23897
834.682	23958
834.821	23851
834.959	23999
835.097	23866
835.235	23935
835.373	23935
835.511	23847
835.65	23843
835.788	23756
835.926	23699
836.064	23573
836.202	23604
836.34	23790
836.478	23798
836.615	23642
836.753	23878
836.891	23764
837.029	23752
837.167	23661
837.305	23630
837.443	23611
837.58	23581
837.718	23596
837.856	23619
837.993	23376
838.131	23684
838.269	23497
838.406	23471
838.544	23459
838.681	23159
838.819	23098
838.956	23003
839.094	23003
839.231	23056
839.369	23132
839.506	23474
839.643	23288
839.781	22965
839.918	22858
840.055	23018
840.193	22946
840.33	22919
840.467	22965
840.604	23044
840.742	23311
840.879	22915
841.016	22946
841.153	22812
841.29	22991
841.427	22927
841.564	22927
841.701	22961
841.838	22915
841.975	22934
842.112	22820
842.249	22698
842.385	22771
842.522	22984
842.659	22729
842.796	22847
842.933	22835
843.069	22748
843.206	22641
843.343	22698
843.479	22736
843.616	22660
843.752	22493
843.889	22577
844.025	22622
844.162	22455
844.298	22565
844.435	22508
844.571	22504
844.708	22565
844.844	22710
844.98	22691
845.117	22653
845.253	22531
845.389	22382
845.525	22500
845.661	22382
845.798	22196
845.934	22398
846.07	22299
846.206	22234
846.342	22295
846.478	22265
846.614	22048
846.75	21934
846.886	21987
847.022	22070
847.158	22044
847.294	22017
847.429	22017
847.565	21838
847.701	22131
847.837	21690
847.972	21724
848.108	21739
848.244	21838
848.379	21580
848.515	21511
848.65	21408
848.786	21591
848.921	21534
849.057	21633
849.192	21671
849.328	21610
849.463	21610
849.598	21458
849.734	21458
849.869	21439
850.004	21367
850.14	21332
850.275	21332
850.41	21317
850.545	21256
850.68	21279
850.815	21370
850.95	21230
851.085	21545
851.22	21370
851.355	21336
851.49	21207
851.625	21233
851.76	21272
851.895	21275
852.03	21241
852.165	21275
852.299	21310
852.434	21564
852.569	21298
852.703	21180
852.838	21310
852.973	21359
853.107	21447
853.242	21363
853.376	21119
853.511	21058
853.645	21127
853.78	21230
853.914	21157
854.048	21135
854.183	21070
854.317	21188
854.451	21355
854.585	21169
854.72	21028
854.854	21264
854.988	21043
855.122	21150
855.256	21017
855.39	21135
855.524	21302
855.658	21165
855.792	21237
855.926	21138
856.06	21131
856.194	21310
856.327	21173
856.461	21123
856.595	21123
856.729	21184
856.862	21302
856.996	21169
857.13	21272
857.263	21207
857.397	21176
857.53	21089
857.664	21135
857.797	21051
857.931	21214
858.064	21047
858.197	21154
858.331	21161
858.464	21165
858.597	21093
858.731	21096
858.864	21093
858.997	21077
859.13	21142
859.263	21085
859.396	21313
859.529	21146
859.662	21058
859.795	21104
859.928	21203
860.061	21321
860.194	21397
860.327	21176
860.46	21157
860.592	21203
860.725	21317
860.858	21157
860.99	21051
861.123	21085
861.256	21123
861.388	21112
861.521	21960
861.653	21017
861.786	20975
861.918	20937
862.05	21032
862.183	21093
862.315	21013
862.447	21169
862.58	20941
862.712	20925
862.844	20853
862.976	20921
863.108	20914
863.24	21420
863.372	20842
863.504	20880
863.636	20956
863.768	20979
863.9	20811
864.032	20777
864.164	20777
864.296	20834
864.428	20887
864.559	20880
864.691	20823
864.823	20891
864.954	20800
865.086	20849
865.217	20792
865.349	20800
865.48	20674
865.612	20731
865.743	20792
865.875	20716
866.006	20765
866.137	20682
866.269	20678
866.4	20830
866.531	20651
866.662	20686
866.793	20629
866.924	20697
867.055	20765
867.186	20640
867.317	20667
867.448	20594
867.579	20716
867.71	20629
867.841	20670
867.972	20693
868.103	20731
868.233	20788
868.364	20632
868.495	20800
868.625	21024
868.756	21077
868.886	20864
869.017	20914
869.147	21047
869.278	21077
869.408	20952
869.539	20960
869.669	21070
869.799	20971
869.929	21112
870.06	21157
870.19	21313
870.32	21237
870.45	21355
870.58	21363
870.71	21545
870.84	21519
870.97	21397
871.1	21336
871.23	21355
871.36	21462
871.489	21367
871.619	21538
871.749	21587
871.879	21561
872.008	21671
872.138	21553
872.267	21644
872.397	21416
872.526	21374
872.656	21466
872.785	21378
872.915	21492
873.044	21644
873.173	21587
873.303	21656
873.432	21606
873.561	21705
873.69	21580
873.819	21622
873.948	21660
874.077	21671
874.206	21530
874.335	21648
874.464	21728
874.593	21827
874.722	21755
874.851	21838
874.979	21880
875.108	21762
875.237	21694
875.365	21736
875.494	21865
875.623	21808
875.751	21675
875.88	21892
876.008	21968
876.136	22010
876.265	22185
876.393	22261
876.521	22265
876.65	22360
876.778	22204
876.906	22150
877.034	22063
877.162	22280
877.29	22063
877.418	22238
877.546	22082
877.674	22112
877.802	22124
877.93	22097
878.058	21983
878.185	21964
878.313	22128
878.441	22166
878.568	21903
878.696	22120
878.824	22192
878.951	22196
879.079	22299
879.206	22508
879.333	22390
879.461	22188
879.588	22234
879.715	22428
879.842	22497
879.97	22192
880.097	21956
880.224	22044
880.351	22097
880.478	21949
880.605	21907
880.732	21972
880.859	22310
880.986	22006
881.112	21964
881.239	21861
881.366	21816
881.493	21641
881.619	21526
881.746	21576
881.872	21629
881.999	21511
882.125	21492
882.252	21610
882.378	21473
882.505	21682
882.631	21466
882.757	21291
882.883	21481
883.01	21272
883.136	21195
883.262	21070
883.388	21138
883.514	21294
883.64	21294
883.766	21184
883.892	20929
884.018	20887
884.143	21233
884.269	21302
884.395	20937
884.52	20796
884.646	21032
884.772	20864
884.897	20800
885.023	20948
885.148	21062
885.274	21009
885.399	20944
885.524	20739
885.65	20872
885.775	20914
885.9	20925
886.025	21017
886.15	20906
886.275	20777
886.4	20815
886.525	20948
886.65	20857
886.775	20792
886.9	21020
887.025	21096
887.149	20899
887.274	20625
887.399	20667
887.523	20678
887.648	20629
887.773	20594
887.897	20788
888.021	20697
888.146	20743
888.27	20712
888.395	20785
888.519	20697
888.643	20724
888.767	20686
888.891	20568
889.015	20484
889.139	20590
889.263	20454
889.387	20648
889.511	20564
889.635	20587
889.759	20400
889.883	20446
890.006	20590
890.13	20419
890.254	20442
890.377	20457
890.501	20362
890.624	20256
890.748	20351
890.871	20111
890.995	20084
891.118	19986
891.241	20088
891.364	20142
891.488	20172
891.611	20005
891.734	20157
891.857	20103
891.98	20134
892.103	20126
892.226	19963
892.349	19997
892.471	19925
892.594	19795
892.717	20024
892.839	19982
892.962	20046
893.085	20031
893.207	19986
893.33	19830
893.452	19894
893.575	20005
893.697	19902
893.819	20092
893.941	20027
894.064	20073
894.186	19959
894.308	19811
894.43	20115
894.552	20096
894.674	20001
894.796	19845
894.918	19951
895.04	19860
895.161	20012
895.283	19951
895.405	19811
895.526	19944
895.648	20024
895.769	19890
895.891	19955
896.012	20161
896.134	20054
896.255	19970
896.376	19959
896.498	19932
896.619	20081
896.74	19963
896.861	20065
896.982	20252
897.103	20412
897.224	20271
897.345	20214
897.466	20199
897.587	20164
897.708	20286
897.828	20126
897.949	20092
898.07	20100
898.19	20107
898.311	20126
898.431	20191
898.552	20218
898.672	20294
898.792	20218
898.913	20229
899.033	20008
899.153	20031
899.273	19909
899.393	19947
899.513	19963
899.633	19864
899.753	19944
899.873	20024
899.993	20046
900.113	19982
900.232	19982
900.352	19898
900.472	19868
900.591	19715
900.711	19727
900.83	19651
900.95	19799
901.069	19860
901.189	19556
901.308	19403
901.427	19396
901.546	19274
901.665	19308
901.784	19400
901.904	19141
902.023	19034
902.141	18886
902.26	18909
902.379	18886
902.498	18833
902.617	18760
902.735	18924
902.854	18802
902.973	18700
903.091	18559
903.21	18407
903.328	18525
903.446	18327
903.565	18467
903.683	18323
903.801	18155
903.919	18220
904.038	18262
904.156	18057
904.274	18232
904.392	18079
904.51	18076
904.627	18003
904.745	18072
904.863	18079
904.981	17901
905.098	17790
905.216	17790
905.334	17729
905.451	17794
905.569	17707
905.686	17733
905.803	17794
905.921	17566
906.038	17657
906.155	17493
906.272	17459
906.389	17482
906.506	17242
906.623	17223
906.74	17223
906.857	17204
906.974	17025
907.091	17395
907.208	17330
907.324	17261
907.441	17166
907.557	16995
907.674	16984
907.79	16976
907.907	16961
908.023	16995
908.139	17022
908.256	16927
908.372	16873
908.488	16873
908.604	16854
908.72	16748
908.836	16675
908.952	16736
909.068	16725
909.184	16828
909.3	16664
909.415	16736
909.531	16736
909.647	16546
909.762	16504
909.878	16421
909.993	16424
910.108	16375
910.224	16223
910.339	16375
910.454	16261
910.57	16226
910.685	16090
910.8	16470
910.915	16284
911.03	16169
911.145	16044
911.259	15994
911.374	15994
911.489	15892
911.604	15949
911.718	15747
911.833	15747
911.947	15679
912.062	15698
912.176	15755
912.291	15804
912.405	15751
912.519	15915
912.633	16002
912.748	15812
912.862	15789
912.976	15595
913.09	15542
913.204	15435
913.318	15587
913.431	15766
913.545	15629
913.659	15701
913.772	15595
913.886	15332
914	15359
914.113	15450
914.226	15408
914.34	15393
914.453	15192
914.566	15325
914.68	15218
914.793	15226
914.906	15074
915.019	14937
915.132	14918
915.245	15024
915.358	14941
915.47	14914
915.583	14895
915.696	15013
915.809	15009
915.921	15119
916.034	14910
916.146	14918
916.259	14842
916.371	14944
916.483	14941
916.595	14807
916.708	14735
916.82	14899
916.932	14834
917.044	14644
917.156	14720
917.268	14602
917.38	14663
917.491	14587
917.603	14670
917.715	14674
917.826	14746
917.938	14560
918.049	14568
918.161	14663
918.272	14731
918.384	14670
918.495	14701
918.606	14454
918.717	14457
918.828	14309
918.939	14454
919.05	14324
919.161	14396
919.272	14195
919.383	14210
919.494	14419
919.604	14518
919.715	14370
919.826	14336
919.936	14355
920.047	14419
920.157	14381
920.267	14526
920.378	14332
920.488	14374
920.598	14526
920.708	14632
920.818	14503
920.928	14564
921.038	14632
921.148	14590
921.258	14248
921.368	14294
921.477	14168
921.587	14126
921.697	13959
921.806	14081
921.916	13921
922.025	13791
922.134	13776
922.244	13696
922.353	13788
922.462	13727
922.571	13575
922.68	13510
922.789	13438
922.898	13472
923.007	13365
923.116	13373
923.224	13384
923.333	13293
923.442	13293
923.55	13175
923.659	13247
923.767	13358
923.876	13149
923.984	13236
924.092	13149
924.201	13126
924.309	13183
924.417	13179
924.525	13095
924.633	13099
924.741	14008
924.849	12894
924.956	12985
925.064	12897
925.172	12829
925.279	12817
925.387	12886
925.494	12795
925.602	12962
925.709	12894
925.816	12749
925.924	12783
926.031	12859
926.138	12730
926.245	12730
926.352	12658
926.459	12715
926.566	12882
926.673	12722
926.779	12604
926.886	12616
926.993	12521
927.099	12357
927.206	12338
927.312	12270
927.419	12475
927.525	12327
927.631	12448
927.737	12319
927.843	12251
927.95	12106
928.056	12247
928.162	12262
928.267	12323
928.373	12821
928.479	12380
928.585	12064
928.69	12201
928.796	12175
928.901	12079
929.007	11923
929.112	12087
929.218	11999
929.323	12117
929.428	11897
929.533	12136
929.638	11977
929.743	11874
929.848	11984
929.953	11897
930.058	11767
930.163	11627
930.267	11672
930.372	11764
930.477	11619
930.581	11885
930.685	11649
930.79	11478
930.894	11630
930.998	11539
931.103	11733
931.207	11345
931.311	11227
931.415	11075
931.519	11014
931.623	10790
