Data from test_V78500241_126.txt Node
Date: Fri Mar 25 15:42:40 CST 2022
User: usil
Spectrometer: V785-0024
Trigger mode: 0
Integration Time (sec): 4.000000E-1
Scans to average: 1
Nonlinearity correction enabled: false
Boxcar width: 0
Storing dark spectrum: false
XAxis mode: Wavelengths
Number of Pixels in Spectrum: 1024
>>>>>Begin Spectral Data<<<<<
801.071	30251
801.214	30030
801.356	29904
801.499	29687
801.641	29573
801.783	29638
801.926	29859
802.068	29657
802.211	29589
802.353	29497
802.496	29398
802.638	29387
802.78	29265
802.923	29292
803.065	29235
803.208	29307
803.35	29341
803.492	29387
803.635	29490
803.777	29322
803.919	29452
804.061	29779
804.204	29402
804.346	29353
804.488	29375
804.63	29303
804.773	29402
804.915	29440
805.057	29406
805.199	29337
805.341	29406
805.483	29471
805.626	29646
805.768	29486
805.91	29531
806.052	29596
806.194	29410
806.336	29642
806.478	29566
806.62	29444
806.762	29543
806.904	29760
807.046	30057
807.188	29908
807.33	29809
807.472	29923
807.614	29851
807.756	29916
807.898	29802
808.04	29684
808.182	29771
808.324	29566
808.465	29608
808.607	29889
808.749	29965
808.891	30194
809.033	30213
809.174	30095
809.316	30136
809.458	30125
809.6	29992
809.741	30076
809.883	29961
810.025	30327
810.166	30289
810.308	30384
810.45	30323
810.591	30197
810.733	30140
810.875	30053
811.016	30060
811.158	29897
811.299	30125
811.441	30338
811.582	30285
811.724	30015
811.865	30003
812.007	30053
812.148	30018
812.29	30053
812.431	30224
812.573	30258
812.714	30353
812.855	30502
812.997	30620
813.138	30863
813.279	30692
813.421	30517
813.562	30410
813.703	30296
813.845	30224
813.986	29809
814.127	29874
814.268	29627
814.41	29619
814.551	29737
814.692	29718
814.833	29665
814.974	29615
815.115	29558
815.256	29467
815.397	29512
815.539	29493
815.68	29478
815.821	29242
815.962	29490
816.103	29429
816.244	29265
816.385	29178
816.526	29064
816.666	28847
816.807	28653
816.948	28786
817.089	28847
817.23	28797
817.371	28934
817.512	28698
817.653	28725
817.793	28603
817.934	28668
818.075	28706
818.216	28778
818.356	28721
818.497	28637
818.638	28474
818.778	28386
818.919	28565
819.06	28546
819.2	28706
819.341	28721
819.481	28687
819.622	28759
819.762	28938
819.903	28927
820.043	28858
820.184	28721
820.324	28805
820.465	28873
820.605	28801
820.746	28771
820.886	28645
821.026	28683
821.167	28763
821.307	28725
821.447	28683
821.588	28459
821.728	28405
821.868	28272
822.008	28078
822.149	28101
822.289	28116
822.429	27918
822.569	27690
822.709	27751
822.849	27644
822.99	27622
823.13	27382
823.27	27492
823.41	27302
823.55	27359
823.69	27370
823.83	27275
823.97	27207
824.11	27199
824.25	27138
824.389	27047
824.529	27287
824.669	27135
824.809	27298
824.949	27222
825.089	27199
825.228	27066
825.368	26823
825.508	27009
825.648	27028
825.787	26971
825.927	26982
826.067	26940
826.206	26868
826.346	27058
826.485	27108
826.625	26975
826.765	26902
826.904	27020
827.044	26678
827.183	26609
827.323	26678
827.462	26678
827.601	26587
827.741	26594
827.88	26716
828.02	26419
828.159	26560
828.298	26587
828.437	26743
828.577	26568
828.716	26697
828.855	26598
828.994	26240
829.134	26275
829.273	26336
829.412	26221
829.551	26259
829.69	26202
829.829	26290
829.968	26305
830.107	26278
830.246	26157
830.385	26229
830.524	26088
830.663	25925
830.802	25959
830.941	25750
831.08	25696
831.219	25902
831.357	25849
831.496	26073
831.635	25639
831.774	25734
831.913	25677
832.051	25624
832.19	25487
832.329	25655
832.467	25426
832.606	25491
832.744	25373
832.883	25411
833.022	25225
833.16	25457
833.299	25392
833.437	25301
833.576	25422
833.714	25445
833.852	25407
833.991	25537
834.129	25479
834.267	25426
834.406	25411
834.544	25350
834.682	25251
834.821	25415
834.959	25616
835.097	25350
835.235	25263
835.373	25358
835.511	25365
835.65	25183
835.788	25187
835.926	25095
836.064	24962
836.202	25076
836.34	25213
836.478	25297
836.615	25069
836.753	25145
836.891	25206
837.029	25099
837.167	25206
837.305	25080
837.443	24989
837.58	24947
837.718	25042
837.856	25084
837.993	24897
838.131	25084
838.269	24935
838.406	24897
838.544	24722
838.681	24578
838.819	24555
838.956	24521
839.094	24346
839.231	24464
839.369	24593
839.506	24791
839.643	24631
839.781	24403
839.918	24422
840.055	24407
840.193	24372
840.33	24262
840.467	24365
840.604	24456
840.742	24509
840.879	24106
841.016	24209
841.153	24114
841.29	24300
841.427	24049
841.564	24285
841.701	24251
841.838	24136
841.975	24121
842.112	24239
842.249	24106
842.385	23977
842.522	24235
842.659	24155
842.796	24079
842.933	24102
843.069	23912
843.206	23775
843.343	23946
843.479	23904
843.616	23958
843.752	23596
843.889	23752
844.025	23843
844.162	23687
844.298	23661
844.435	23699
844.571	23459
844.708	23756
844.844	23866
844.98	23798
845.117	23672
845.253	23493
845.389	23497
845.525	23528
845.661	23551
845.798	23444
845.934	23334
846.07	23341
846.206	23364
846.342	23531
846.478	23322
846.614	23200
846.75	23086
846.886	23155
847.022	23185
847.158	23212
847.294	23159
847.429	23022
847.565	23048
847.701	23326
847.837	22850
847.972	22755
848.108	22850
848.244	22828
848.379	22622
848.515	22527
848.65	22584
848.786	22611
848.921	22656
849.057	22729
849.192	22565
849.328	22683
849.463	22626
849.598	22531
849.734	22443
849.869	22569
850.004	22382
850.14	22375
850.275	22409
850.41	22284
850.545	22382
850.68	22341
850.815	22287
850.95	22325
851.085	22561
851.22	22405
851.355	22226
851.49	22314
851.625	22303
851.76	22173
851.895	22257
852.03	22086
852.165	22394
852.299	22394
852.434	22379
852.569	22230
852.703	22314
852.838	22470
852.973	22462
853.107	22451
853.242	22257
853.376	22173
853.511	22017
853.645	22055
853.78	22303
853.914	22112
854.048	22162
854.183	22051
854.317	22112
854.451	22211
854.585	22032
854.72	22128
854.854	22112
854.988	22029
855.122	22185
855.256	21979
855.39	22200
855.524	22150
855.658	22040
855.792	22139
855.926	22109
856.06	22200
856.194	22188
856.327	22158
856.461	22128
856.595	22139
856.729	22181
856.862	22295
856.996	22093
857.13	22154
857.263	22166
857.397	22200
857.53	22070
857.664	22128
857.797	22166
857.931	22215
858.064	22166
858.197	22181
858.331	22074
858.464	22021
858.597	21975
858.731	21941
858.864	22032
858.997	22017
859.13	21972
859.263	22090
859.396	22086
859.529	22135
859.662	21968
859.795	21968
859.928	22078
860.061	22242
860.194	22147
860.327	22188
860.46	22101
860.592	22128
860.725	22067
860.858	22226
860.99	21998
861.123	21846
861.256	21968
861.388	22086
861.521	22630
861.653	21895
861.786	21888
861.918	21918
862.05	22044
862.183	22032
862.315	22143
862.447	22223
862.58	22048
862.712	21918
862.844	21774
862.976	21800
863.108	21762
863.24	22051
863.372	21663
863.504	21800
863.636	21720
863.768	21747
863.9	21816
864.032	21561
864.164	21526
864.296	21671
864.428	21808
864.559	21842
864.691	21812
864.823	21690
864.954	21690
865.086	21648
865.217	21644
865.349	21515
865.48	21564
865.612	21652
865.743	21759
865.875	21583
866.006	21606
866.137	21576
866.269	21690
866.4	21701
866.531	21576
866.662	21496
866.793	21473
866.924	21428
867.055	21587
867.186	21557
867.317	21462
867.448	21416
867.579	21542
867.71	21397
867.841	21386
867.972	21576
868.103	21496
868.233	21603
868.364	21538
868.495	21504
868.625	21774
868.756	21865
868.886	21648
869.017	21736
869.147	21800
869.278	21762
869.408	21778
869.539	21701
869.669	21869
869.799	21751
869.929	21873
870.06	21876
870.19	22158
870.32	21998
870.45	22044
870.58	21972
870.71	22207
870.84	22204
870.97	22112
871.1	22177
871.23	22253
871.36	22291
871.489	22242
871.619	22322
871.749	22310
871.879	22348
872.008	22466
872.138	22303
872.267	22333
872.397	22188
872.526	22120
872.656	22124
872.785	22276
872.915	22428
873.044	22371
873.173	22341
873.303	22261
873.432	22394
873.561	22478
873.69	22341
873.819	22360
873.948	22443
874.077	22386
874.206	22223
874.335	22341
874.464	22409
874.593	22508
874.722	22493
874.851	22634
874.979	22683
875.108	22687
875.237	22569
875.365	22542
875.494	22527
875.623	22618
875.751	22512
875.88	22523
876.008	22710
876.136	22850
876.265	22995
876.393	23022
876.521	23048
876.65	22938
876.778	23003
876.906	22946
877.034	22866
877.162	22877
877.29	22915
877.418	22957
877.546	22923
877.674	22904
877.802	22980
877.93	22896
878.058	22847
878.185	22904
878.313	22889
878.441	22949
878.568	22679
878.696	22900
878.824	22881
878.951	22957
879.079	23159
879.206	23227
879.333	23155
879.461	22904
879.588	23067
879.715	23022
879.842	23140
879.97	23003
880.097	22809
880.224	22710
880.351	22805
880.478	22889
880.605	22725
880.732	22630
880.859	22987
880.986	22797
881.112	22866
881.239	22584
881.366	22424
881.493	22379
881.619	22329
881.746	22386
881.872	22348
881.999	22379
882.125	22223
882.252	22440
882.378	22379
882.505	22459
882.631	22188
882.757	22070
882.883	22139
883.01	21937
883.136	22063
883.262	21964
883.388	21972
883.514	22074
883.64	22078
883.766	21937
883.892	21724
884.018	21884
884.143	21934
884.269	22196
884.395	21827
884.52	21641
884.646	21812
884.772	21751
884.897	21637
885.023	21633
885.148	21732
885.274	21781
885.399	21808
885.524	21675
885.65	21618
885.775	21717
885.9	21713
886.025	21576
886.15	21690
886.275	21660
886.4	21496
886.525	21671
886.65	21466
886.775	21530
886.9	21762
887.025	21930
887.149	21545
887.274	21450
887.399	21492
887.523	21401
887.648	21298
887.773	21310
887.897	21344
888.021	21374
888.146	21397
888.27	21344
888.395	21378
888.519	21439
888.643	21382
888.767	21416
888.891	21370
889.015	21313
889.139	21294
889.263	20967
889.387	21226
889.511	21359
889.635	21325
889.759	21100
889.883	21104
890.006	21154
890.13	21195
890.254	21070
890.377	20971
890.501	20944
890.624	20952
890.748	20944
890.871	20887
890.995	20674
891.118	20636
891.241	20705
891.364	20777
891.488	20819
891.611	20754
891.734	20800
891.857	20701
891.98	20689
892.103	20826
892.226	20746
892.349	20667
892.471	20438
892.594	20754
892.717	20659
892.839	20674
892.962	20674
893.085	20762
893.207	20629
893.33	20598
893.452	20609
893.575	20663
893.697	20651
893.819	20792
893.941	20807
894.064	20674
894.186	20552
894.308	20560
894.43	20743
894.552	20807
894.674	20693
894.796	20568
894.918	20552
895.04	20667
895.161	20667
895.283	20571
895.405	20579
895.526	20575
895.648	20621
895.769	20617
895.891	20701
896.012	20735
896.134	20663
896.255	20655
896.376	20629
896.498	20769
896.619	20689
896.74	20617
896.861	20697
896.982	20960
897.103	21020
897.224	20929
897.345	20914
897.466	20788
897.587	20952
897.708	20967
897.828	20925
897.949	20777
898.07	20693
898.19	20735
898.311	20990
898.431	20807
898.552	20773
898.672	20960
898.792	20895
898.913	20925
899.033	20670
899.153	20587
899.273	20427
899.393	20587
899.513	20503
899.633	20492
899.753	20442
899.873	20499
899.993	20461
900.113	20415
900.232	20480
900.352	20495
900.472	20328
900.591	20358
900.711	20355
900.83	20290
900.95	20412
901.069	20381
901.189	20176
901.308	19955
901.427	19807
901.546	19849
901.665	19959
901.784	19852
901.904	19666
902.023	19651
902.141	19384
902.26	19373
902.379	19468
902.498	19255
902.617	19285
902.735	19476
902.854	19225
902.973	19263
903.091	19038
903.21	19042
903.328	19065
903.446	18932
903.565	18833
903.683	18715
903.801	18620
903.919	18806
904.038	18745
904.156	18650
904.274	18639
904.392	18650
904.51	18490
904.627	18563
904.745	18631
904.863	18525
904.981	18372
905.098	18228
905.216	18171
905.334	18258
905.451	18235
905.569	18209
905.686	18258
905.803	18159
905.921	18030
906.038	18121
906.155	18064
906.272	17859
906.389	17859
906.506	17767
906.623	17703
906.74	17760
906.857	17813
906.974	17566
907.091	17783
907.208	17870
907.324	17817
907.441	17722
907.557	17516
907.674	17417
907.79	17356
907.907	17250
908.023	17520
908.139	17406
908.256	17402
908.372	17277
908.488	17326
908.604	17174
908.72	17181
908.836	17140
908.952	17060
909.068	17109
909.184	17136
909.3	17056
909.415	17132
909.531	17094
909.647	16778
909.762	16752
909.878	16687
909.993	16744
910.108	16721
910.224	16713
910.339	16748
910.454	16656
910.57	16573
910.685	16580
910.8	16713
910.915	16767
911.03	16645
911.145	16325
911.259	16352
911.374	16341
911.489	16318
911.604	16230
911.718	16150
911.833	16147
911.947	16044
912.062	15964
912.176	16131
912.291	16249
912.405	16116
912.519	16257
912.633	16382
912.748	16150
912.862	15949
912.976	15937
913.09	15778
913.204	15873
913.318	15873
913.431	16002
913.545	15907
913.659	16029
913.772	15812
913.886	15686
914	15736
914.113	15747
914.226	15793
914.34	15743
914.453	15644
914.566	15667
914.68	15599
914.793	15408
914.906	15351
915.019	15355
915.132	15252
915.245	15268
915.358	15306
915.47	15325
915.583	15249
915.696	15325
915.809	15519
915.921	15450
916.034	15275
916.146	15313
916.259	15127
916.371	15272
916.483	15180
916.595	15173
916.708	15104
916.82	15138
916.932	15112
917.044	15005
917.156	15146
917.268	14937
917.38	14902
917.491	14883
917.603	14925
917.715	14960
917.826	14883
917.938	14811
918.049	14819
918.161	14861
918.272	15001
918.384	14891
918.495	14891
918.606	14693
918.717	14530
918.828	14731
918.939	14640
919.05	14575
919.161	14602
919.272	14450
919.383	14461
919.494	14610
919.604	14933
919.715	14659
919.826	14560
919.936	14693
920.047	14644
920.157	14651
920.267	14811
920.378	14613
920.488	14602
920.598	14674
920.708	14830
920.818	14689
920.928	14705
921.038	14910
921.148	14899
921.258	14545
921.368	14511
921.477	14355
921.587	14278
921.697	14233
921.806	14328
921.916	14191
922.025	14027
922.134	13932
922.244	13932
922.353	14043
922.462	13856
922.571	13833
922.68	13636
922.789	13639
922.898	13624
923.007	13533
923.116	13632
923.224	13521
923.333	13499
923.442	13476
923.55	13308
923.659	13453
923.767	13468
923.876	13343
923.984	13358
924.092	13282
924.201	13324
924.309	13274
924.417	13346
924.525	13194
924.633	13263
924.741	13997
924.849	13095
924.956	13072
925.064	12962
925.172	13023
925.279	13050
925.387	12989
925.494	12996
925.602	13137
925.709	13019
925.816	12928
925.924	12916
926.031	13023
926.138	12943
926.245	12939
926.352	12764
926.459	12951
926.566	13069
926.673	12871
926.779	12764
926.886	12639
926.993	12658
927.099	12544
927.206	12563
927.312	12441
927.419	12658
927.525	12555
927.631	12570
927.737	12456
927.843	12388
927.95	12281
928.056	12384
928.162	12296
928.267	12376
928.373	12996
928.479	12448
928.585	12292
928.69	12308
928.796	12289
928.901	12190
929.007	12022
929.112	12190
929.218	12095
929.323	12125
929.428	12045
929.533	12304
929.638	12011
929.743	12076
929.848	12148
929.953	12057
930.058	12045
930.163	11748
930.267	11741
930.372	11988
930.477	11786
930.581	11935
930.685	11847
930.79	11638
930.894	11672
930.998	11585
931.103	11707
931.207	11444
931.311	11261
931.415	11235
931.519	10987
931.623	11003
