Data from test_V78500241_3566.txt Node
Date: Fri Mar 25 16:06:30 CST 2022
User: usil
Spectrometer: V785-0024
Trigger mode: 0
Integration Time (sec): 4.000000E-1
Scans to average: 1
Nonlinearity correction enabled: false
Boxcar width: 0
Storing dark spectrum: false
XAxis mode: Wavelengths
Number of Pixels in Spectrum: 1024
>>>>>Begin Spectral Data<<<<<
801.071	28835
801.214	28801
801.356	28660
801.499	28557
801.641	28436
801.783	28455
801.926	28504
802.068	28382
802.211	28318
802.353	28398
802.496	28223
802.638	27991
802.78	28093
802.923	28051
803.065	27972
803.208	28109
803.35	28147
803.492	28398
803.635	28238
803.777	28188
803.919	28371
804.061	28649
804.204	28394
804.346	28386
804.488	28295
804.63	28356
804.773	28284
804.915	28318
805.057	28542
805.199	28322
805.341	28352
805.483	28519
805.626	28588
805.768	28386
805.91	28577
806.052	28546
806.194	28424
806.336	28706
806.478	28546
806.62	28451
806.762	28675
806.904	28866
807.046	29029
807.188	28892
807.33	28892
807.472	29067
807.614	28904
807.756	29041
807.898	28923
808.04	28858
808.182	28793
808.324	28717
808.465	28904
808.607	29086
808.749	29303
808.891	29292
809.033	29372
809.174	29417
809.316	29292
809.458	29254
809.6	29193
809.741	29334
809.883	29288
810.025	29490
810.166	29455
810.308	29383
810.45	29433
810.591	29326
810.733	29258
810.875	29258
811.016	29178
811.158	29105
811.299	29375
811.441	29326
811.582	29608
811.724	29364
811.865	29189
812.007	29227
812.148	29330
812.29	29448
812.431	29490
812.573	29646
812.714	29790
812.855	29657
812.997	29824
813.138	30064
813.279	29843
813.421	29718
813.562	29771
813.703	29528
813.845	29581
813.986	29216
814.127	28987
814.268	28930
814.41	28793
814.551	28866
814.692	29018
814.833	28881
814.974	28949
815.115	29041
815.256	28900
815.397	28877
815.539	28828
815.68	28858
815.821	28580
815.962	28755
816.103	28767
816.244	28656
816.385	28504
816.526	28481
816.666	28268
816.807	28215
816.948	28478
817.089	28428
817.23	28249
817.371	28257
817.512	28314
817.653	28207
817.793	28109
817.934	28200
818.075	28333
818.216	28234
818.356	28314
818.497	28344
818.638	27987
818.778	28112
818.919	28090
819.06	28207
819.2	28211
819.341	28238
819.481	28230
819.622	28341
819.762	28691
819.903	28523
820.043	28436
820.184	28348
820.324	28322
820.465	28512
820.605	28291
820.746	28375
820.886	28318
821.026	28382
821.167	28310
821.307	28504
821.447	28356
821.588	28185
821.728	28147
821.868	27850
822.008	27625
822.149	27838
822.289	27785
822.429	27466
822.569	27268
822.709	27332
822.849	27283
822.99	27382
823.13	27310
823.27	27074
823.41	27070
823.55	26857
823.69	27237
823.83	27081
823.97	26956
824.11	26845
824.25	26823
824.389	26902
824.529	27001
824.669	26887
824.809	26963
824.949	27085
825.089	27032
825.228	26979
825.368	26815
825.508	26853
825.648	26712
825.787	26804
825.927	26868
826.067	26773
826.206	26815
826.346	26724
826.485	26758
826.625	26785
826.765	26918
826.904	26727
827.044	26415
827.183	26575
827.323	26583
827.462	26632
827.601	26465
827.741	26412
827.88	26568
828.02	26347
828.159	26404
828.298	26549
828.437	26522
828.577	26332
828.716	26575
828.855	26480
828.994	26168
829.134	26103
829.273	26233
829.412	26229
829.551	26176
829.69	26343
829.829	26256
829.968	26267
830.107	26404
830.246	26199
830.385	26202
830.524	26020
830.663	26008
830.802	25852
830.941	25856
831.08	25670
831.219	25894
831.357	25917
831.496	26020
831.635	25662
831.774	25647
831.913	25712
832.051	25590
832.19	25578
832.329	25655
832.467	25529
832.606	25491
832.744	25350
832.883	25514
833.022	25419
833.16	25567
833.299	25529
833.437	25396
833.576	25590
833.714	25594
833.852	25518
833.991	25586
834.129	25624
834.267	25632
834.406	25586
834.544	25590
834.682	25518
834.821	25578
834.959	25651
835.097	25403
835.235	25605
835.373	25514
835.511	25552
835.65	25335
835.788	25377
835.926	25324
836.064	25255
836.202	25240
836.34	25289
836.478	25373
836.615	25278
836.753	25407
836.891	25449
837.029	25407
837.167	25293
837.305	25335
837.443	25168
837.58	25251
837.718	25225
837.856	25175
837.993	25069
838.131	25031
838.269	25072
838.406	25171
838.544	24970
838.681	24795
838.819	24901
838.956	24669
839.094	24677
839.231	24665
839.369	24806
839.506	25023
839.643	24939
839.781	24559
839.918	24658
840.055	24681
840.193	24692
840.33	24547
840.467	24551
840.604	24635
840.742	24703
840.879	24350
841.016	24608
841.153	24456
841.29	24631
841.427	24544
841.564	24521
841.701	24601
841.838	24464
841.975	24464
842.112	24407
842.249	24384
842.385	24232
842.522	24502
842.659	24376
842.796	24270
842.933	24281
843.069	24330
843.206	24209
843.343	24319
843.479	24239
843.616	24235
843.752	24152
843.889	24060
844.025	24273
844.162	23996
844.298	24091
844.435	24110
844.571	23992
844.708	24136
844.844	24159
844.98	24148
845.117	24220
845.253	23973
845.389	23958
845.525	23832
845.661	23897
845.798	23832
845.934	23935
846.07	23802
846.206	23847
846.342	24045
846.478	23783
846.614	23509
846.75	23478
846.886	23455
847.022	23611
847.158	23493
847.294	23634
847.429	23547
847.565	23452
847.701	23802
847.837	23242
847.972	23337
848.108	23280
848.244	23341
848.379	23162
848.515	23064
848.65	23136
848.786	23147
848.921	23064
849.057	23181
849.192	23181
849.328	23124
849.463	23109
849.598	23090
849.734	23044
849.869	22946
850.004	22843
850.14	22953
850.275	22847
850.41	22900
850.545	22847
850.68	22923
850.815	22946
850.95	22900
851.085	23121
851.22	23006
851.355	22946
851.49	22843
851.625	22656
851.76	22991
851.895	22919
852.03	22984
852.165	23033
852.299	22828
852.434	22915
852.569	22938
852.703	22869
852.838	22847
852.973	23090
853.107	22949
853.242	22736
853.376	22649
853.511	22584
853.645	22828
853.78	22873
853.914	22805
854.048	22812
854.183	22637
854.317	22725
854.451	22908
854.585	22569
854.72	22790
854.854	22710
854.988	22729
855.122	22736
855.256	22615
855.39	22752
855.524	22805
855.658	22835
855.792	22641
855.926	22691
856.06	22675
856.194	22744
856.327	22687
856.461	22599
856.595	22615
856.729	22725
856.862	22759
856.996	22812
857.13	22637
857.263	22889
857.397	22748
857.53	22687
857.664	22805
857.797	22793
857.931	22843
858.064	22710
858.197	22873
858.331	22736
858.464	22660
858.597	22603
858.731	22622
858.864	22519
858.997	22584
859.13	22725
859.263	22729
859.396	22679
859.529	22618
859.662	22607
859.795	22599
859.928	22577
860.061	22805
860.194	22881
860.327	22740
860.46	22729
860.592	22869
860.725	22873
860.858	22702
860.99	22797
861.123	22656
861.256	22637
861.388	22801
861.521	23410
861.653	22504
861.786	22436
861.918	22596
862.05	22516
862.183	22649
862.315	22706
862.447	22546
862.58	22637
862.712	22242
862.844	22436
862.976	22382
863.108	22504
863.24	22801
863.372	22405
863.504	22432
863.636	22417
863.768	22360
863.9	22367
864.032	22306
864.164	22356
864.296	22424
864.428	22546
864.559	22474
864.691	22432
864.823	22455
864.954	22390
865.086	22363
865.217	22276
865.349	22238
865.48	22341
865.612	22291
865.743	22322
865.875	22386
866.006	22268
866.137	22238
866.269	22223
866.4	22253
866.531	22234
866.662	22207
866.793	22147
866.924	22291
867.055	22268
867.186	22253
867.317	22188
867.448	22025
867.579	22158
867.71	22070
867.841	22128
867.972	22226
868.103	22211
868.233	22109
868.364	22185
868.495	22234
868.625	22432
868.756	22443
868.886	22405
869.017	22428
869.147	22443
869.278	22592
869.408	22493
869.539	22348
869.669	22527
869.799	22386
869.929	22580
870.06	22481
870.19	22771
870.32	22748
870.45	22771
870.58	22733
870.71	22919
870.84	22930
870.97	22949
871.1	22908
871.23	22984
871.36	23132
871.489	22835
871.619	22961
871.749	23239
871.879	22968
872.008	23117
872.138	23185
872.267	23064
872.397	22938
872.526	22843
872.656	22908
872.785	22755
872.915	23067
873.044	23231
873.173	22957
873.303	23200
873.432	22968
873.561	23258
873.69	23197
873.819	22957
873.948	23052
874.077	23102
874.206	23033
874.335	23075
874.464	23094
874.593	23296
874.722	23155
874.851	23379
874.979	23239
875.108	23414
875.237	23235
875.365	23064
875.494	23265
875.623	23448
875.751	23143
875.88	23296
876.008	23353
876.136	23490
876.265	23741
876.393	23767
876.521	23638
876.65	23745
876.778	23741
876.906	23566
877.034	23623
877.162	23649
877.29	23653
877.418	23710
877.546	23535
877.674	23608
877.802	23604
877.93	23592
878.058	23642
878.185	23471
878.313	23566
878.441	23619
878.568	23512
878.696	23493
878.824	23726
878.951	23745
879.079	23668
879.206	23790
879.333	23748
879.461	23722
879.588	23733
879.715	23775
879.842	23988
879.97	23748
880.097	23497
880.224	23516
880.351	23440
880.478	23490
880.605	23376
880.732	23398
880.859	23714
880.986	23383
881.112	23376
881.239	23185
881.366	23037
881.493	23025
881.619	23086
881.746	23109
881.872	22923
881.999	22946
882.125	22923
882.252	23052
882.378	22987
882.505	23064
882.631	22877
882.757	22694
882.883	22702
883.01	22664
883.136	22519
883.262	22531
883.388	22550
883.514	22573
883.64	22679
883.766	22554
883.892	22421
884.018	22504
884.143	22527
884.269	22702
884.395	22402
884.52	22272
884.646	22371
884.772	22143
884.897	22158
885.023	22291
885.148	22417
885.274	22440
885.399	22398
885.524	22360
885.65	22173
885.775	22249
885.9	22322
886.025	22402
886.15	22390
886.275	22207
886.4	22276
886.525	22230
886.65	22360
886.775	22272
886.9	22314
887.025	22310
887.149	22314
887.274	22070
887.399	22048
887.523	22002
887.648	21880
887.773	21998
887.897	22219
888.021	22059
888.146	21945
888.27	22059
888.395	22158
888.519	22101
888.643	22158
888.767	22044
888.891	21903
889.015	21911
889.139	21922
889.263	21637
889.387	22010
889.511	22040
889.635	21930
889.759	21819
889.883	21774
890.006	21808
890.13	21854
890.254	21713
890.377	21865
890.501	21591
890.624	21660
890.748	21534
890.871	21473
890.995	21408
891.118	21435
891.241	21519
891.364	21336
891.488	21595
891.611	21416
891.734	21317
891.857	21401
891.98	21473
892.103	21447
892.226	21378
892.349	21184
892.471	21245
892.594	21310
892.717	21272
892.839	21275
892.962	21325
893.085	21321
893.207	21283
893.33	21306
893.452	21207
893.575	21325
893.697	21199
893.819	21466
893.941	21397
894.064	21249
894.186	21214
894.308	21226
894.43	21386
894.552	21321
894.674	21241
894.796	21096
894.918	21207
895.04	21173
895.161	21321
895.283	21294
895.405	21264
895.526	21226
895.648	21058
895.769	21211
895.891	21310
896.012	21393
896.134	21294
896.255	21355
896.376	21237
896.498	21138
896.619	21374
896.74	21268
896.861	21313
896.982	21492
897.103	21667
897.224	21439
897.345	21393
897.466	21359
897.587	21405
897.708	21447
897.828	21469
897.949	21306
898.07	21291
898.19	21233
898.311	21526
898.431	21351
898.552	21447
898.672	21424
898.792	21340
898.913	21466
899.033	21329
899.153	21230
899.273	21169
899.393	21203
899.513	21264
899.633	21192
899.753	21135
899.873	21112
899.993	21173
900.113	21055
900.232	21096
900.352	21066
900.472	21058
900.591	20895
900.711	21005
900.83	20895
900.95	21123
901.069	21062
901.189	20823
901.308	20636
901.427	20465
901.546	20617
901.665	20575
901.784	20488
901.904	20389
902.023	20237
902.141	20058
902.26	19928
902.379	20187
902.498	19913
902.617	20043
902.735	20107
902.854	19860
902.973	19875
903.091	19750
903.21	19548
903.328	19727
903.446	19540
903.565	19563
903.683	19544
903.801	19320
903.919	19396
904.038	19346
904.156	19266
904.274	19346
904.392	19225
904.51	19160
904.627	19202
904.745	19263
904.863	19194
904.981	19061
905.098	18882
905.216	18932
905.334	19015
905.451	18863
905.569	18848
905.686	18848
905.803	18711
905.921	18684
906.038	18715
906.155	18631
906.272	18544
906.389	18597
906.506	18464
906.623	18506
906.74	18376
906.857	18224
906.974	18384
907.091	18426
907.208	18570
907.324	18372
907.441	18251
907.557	18129
907.674	18133
907.79	18110
907.907	18003
908.023	18083
908.139	18095
908.256	18095
908.372	17882
908.488	18007
908.604	17824
908.72	17840
908.836	17775
908.952	17855
909.068	17885
909.184	17954
909.3	17847
909.415	17824
909.531	17882
909.647	17554
909.762	17482
909.878	17532
909.993	17505
910.108	17509
910.224	17482
910.339	17395
910.454	17444
910.57	17273
910.685	17193
910.8	17486
910.915	17414
911.03	17280
911.145	17086
911.259	17010
911.374	17105
911.489	16972
911.604	16946
911.718	16820
911.833	16793
911.947	16843
912.062	16660
912.176	16759
912.291	16835
912.405	16877
912.519	17029
912.633	16923
912.748	16900
912.862	16805
912.976	16698
913.09	16573
913.204	16531
913.318	16694
913.431	16752
913.545	16626
913.659	16683
913.772	16577
913.886	16409
914	16379
914.113	16493
914.226	16519
914.34	16455
914.453	16284
914.566	16478
914.68	16246
914.793	16337
914.906	16078
915.019	16051
915.132	15926
915.245	16048
915.358	16101
915.47	15983
915.583	16025
915.696	16044
915.809	16166
915.921	16097
916.034	15880
916.146	15865
916.259	15922
916.371	16059
916.483	15926
916.595	15739
916.708	15850
916.82	15854
916.932	15724
917.044	15838
917.156	15759
917.268	15656
917.38	15663
917.491	15625
917.603	15587
917.715	15648
917.826	15622
917.938	15504
918.049	15450
918.161	15572
918.272	15667
918.384	15595
918.495	15526
918.606	15416
918.717	15325
918.828	15515
918.939	15382
919.05	15237
919.161	15351
919.272	15074
919.383	15207
919.494	15428
919.604	15549
919.715	15332
919.826	15260
919.936	15321
920.047	15310
920.157	15344
920.267	15447
920.378	15241
920.488	15306
920.598	15405
920.708	15584
920.818	15443
920.928	15477
921.038	15519
921.148	15698
921.258	15184
921.368	15237
921.477	15028
921.587	15055
921.697	14929
921.806	14982
921.916	14899
922.025	14705
922.134	14655
922.244	14644
922.353	14735
922.462	14533
922.571	14389
922.68	14305
922.789	14305
922.898	14256
923.007	14248
923.116	14328
923.224	14328
923.333	14275
923.442	14123
923.55	14065
923.659	14206
923.767	14157
923.876	14073
923.984	14062
924.092	14046
924.201	13978
924.309	14050
924.417	13947
924.525	13970
924.633	13940
924.741	14842
924.849	13746
924.956	13955
925.064	13799
925.172	13563
925.279	13742
925.387	13750
925.494	13704
925.602	13715
925.709	13708
925.816	13537
925.924	13643
926.031	13685
926.138	13643
926.245	13636
926.352	13525
926.459	13552
926.566	13685
926.673	13655
926.779	13483
926.886	13365
926.993	13308
927.099	13274
927.206	13145
927.312	13152
927.419	13282
927.525	13194
927.631	13236
927.737	13069
927.843	13088
927.95	12905
928.056	13076
928.162	13015
928.267	13076
928.373	13704
928.479	13061
928.585	12837
928.69	13015
928.796	13076
928.901	12837
929.007	12688
929.112	12859
929.218	12738
929.323	12696
929.428	12749
929.533	12837
929.638	12669
929.743	12639
929.848	12635
929.953	12635
930.058	12627
930.163	12369
930.267	12414
930.372	12570
930.477	12429
930.581	12544
930.685	12372
930.79	12300
930.894	12273
930.998	12292
931.103	12300
931.207	12015
931.311	11999
931.415	11817
931.519	11611
931.623	11642
