Data from test_V78500241_3697.txt Node
Date: Fri Mar 25 16:07:24 CST 2022
User: usil
Spectrometer: V785-0024
Trigger mode: 0
Integration Time (sec): 4.000000E-1
Scans to average: 1
Nonlinearity correction enabled: false
Boxcar width: 0
Storing dark spectrum: false
XAxis mode: Wavelengths
Number of Pixels in Spectrum: 1024
>>>>>Begin Spectral Data<<<<<
801.071	28394
801.214	28474
801.356	28276
801.499	28131
801.641	28154
801.783	28021
801.926	27979
802.068	28044
802.211	27926
802.353	27934
802.496	27800
802.638	27709
802.78	27800
802.923	27500
803.065	27603
803.208	27530
803.35	27720
803.492	27781
803.635	27888
803.777	27713
803.919	27903
804.061	28226
804.204	27903
804.346	27850
804.488	27789
804.63	27800
804.773	27861
804.915	28082
805.057	28109
805.199	28029
805.341	27911
805.483	28032
805.626	28051
805.768	27854
805.91	28101
806.052	28116
806.194	28082
806.336	28173
806.478	28105
806.62	27991
806.762	28234
806.904	28314
807.046	28455
807.188	28645
807.33	28504
807.472	28607
807.614	28481
807.756	28325
807.898	28348
808.04	28314
808.182	28375
808.324	28421
808.465	28371
808.607	28649
808.749	28702
808.891	28816
809.033	28885
809.174	28930
809.316	28721
809.458	28725
809.6	28805
809.741	28816
809.883	28862
810.025	28965
810.166	29022
810.308	29178
810.45	28953
810.591	28980
810.733	28782
810.875	28740
811.016	28569
811.158	28710
811.299	28687
811.441	28942
811.582	28873
811.724	28797
811.865	28668
812.007	28615
812.148	28748
812.29	28816
812.431	28957
812.573	29113
812.714	29280
812.855	29318
812.997	29440
813.138	29417
813.279	29433
813.421	29345
813.562	29239
813.703	29147
813.845	28957
813.986	28607
814.127	28656
814.268	28512
814.41	28424
814.551	28401
814.692	28516
814.833	28337
814.974	28303
815.115	28405
815.256	28303
815.397	28352
815.539	28268
815.68	28177
815.821	28177
815.962	28261
816.103	28246
816.244	28207
816.385	27934
816.526	28006
816.666	27926
816.807	27656
816.948	27804
817.089	27880
817.23	27823
817.371	27720
817.512	27899
817.653	27743
817.793	27652
817.934	27781
818.075	27690
818.216	27595
818.356	27679
818.497	27500
818.638	27618
818.778	27568
818.919	27469
819.06	27633
819.2	27637
819.341	27667
819.481	27774
819.622	27808
819.762	28158
819.903	28029
820.043	27911
820.184	27804
820.324	27914
820.465	28078
820.605	27934
820.746	27983
820.886	27770
821.026	27781
821.167	27808
821.307	27941
821.447	27751
821.588	27762
821.728	27675
821.868	27424
822.008	27386
822.149	27211
822.289	27131
822.429	26948
822.569	26914
822.709	26979
822.849	26785
822.99	26781
823.13	26667
823.27	26670
823.41	26693
823.55	26446
823.69	26617
823.83	26636
823.97	26480
824.11	26377
824.25	26332
824.389	26419
824.529	26526
824.669	26457
824.809	26503
824.949	26377
825.089	26503
825.228	26434
825.368	26199
825.508	26199
825.648	26199
825.787	26377
825.927	26259
826.067	26282
826.206	26229
826.346	26256
826.485	26256
826.625	26244
826.765	26469
826.904	26252
827.044	26126
827.183	26043
827.323	25959
827.462	26157
827.601	26122
827.741	26016
827.88	25932
828.02	25993
828.159	26008
828.298	26039
828.437	26016
828.577	25932
828.716	26180
828.855	25917
828.994	25734
829.134	25715
829.273	25757
829.412	25655
829.551	25609
829.69	25727
829.829	25700
829.968	25666
830.107	25700
830.246	25647
830.385	25624
830.524	25552
830.663	25411
830.802	25445
830.941	25293
831.08	25209
831.219	25388
831.357	25312
831.496	25540
831.635	25171
831.774	25225
831.913	25129
832.051	24977
832.19	25042
832.329	24943
832.467	25156
832.606	24924
832.744	24958
832.883	24981
833.022	25042
833.16	24951
833.299	25061
833.437	24909
833.576	25050
833.714	25038
833.852	25034
833.991	24992
834.129	25244
834.267	25046
834.406	25027
834.544	25031
834.682	24977
834.821	24871
834.959	25179
835.097	24958
835.235	25141
835.373	24935
835.511	24973
835.65	24894
835.788	24844
835.926	24707
836.064	24608
836.202	24726
836.34	24901
836.478	24954
836.615	24897
836.753	24772
836.891	24871
837.029	24745
837.167	24833
837.305	24665
837.443	24692
837.58	24631
837.718	24711
837.856	24711
837.993	24604
838.131	24547
838.269	24547
838.406	24521
838.544	24505
838.681	24437
838.819	24365
838.956	24102
839.094	24136
839.231	24251
839.369	24247
839.506	24536
839.643	24544
839.781	24125
839.918	24030
840.055	24098
840.193	24072
840.33	23920
840.467	24034
840.604	24045
840.742	24384
840.879	23988
841.016	23969
841.153	23832
841.29	24136
841.427	24072
841.564	24064
841.701	24114
841.838	24015
841.975	23935
842.112	23980
842.249	23798
842.385	23950
842.522	23923
842.659	23878
842.796	23851
842.933	23805
843.069	23771
843.206	23703
843.343	23847
843.479	23821
843.616	23824
843.752	23627
843.889	23623
844.025	23600
844.162	23623
844.298	23676
844.435	23623
844.571	23486
844.708	23589
844.844	23752
844.98	23752
845.117	23638
845.253	23429
845.389	23471
845.525	23463
845.661	23444
845.798	23174
845.934	23414
846.07	23326
846.206	23318
846.342	23315
846.478	23299
846.614	23105
846.75	23003
846.886	23022
847.022	22987
847.158	23162
847.294	22999
847.429	23079
847.565	23029
847.701	23140
847.837	22801
847.972	22801
848.108	22873
848.244	22820
848.379	22672
848.515	22603
848.65	22577
848.786	22573
848.921	22634
849.057	22675
849.192	22721
849.328	22607
849.463	22679
849.598	22493
849.734	22516
849.869	22603
850.004	22596
850.14	22493
850.275	22272
850.41	22367
850.545	22352
850.68	22299
850.815	22538
850.95	22497
851.085	22630
851.22	22557
851.355	22470
851.49	22337
851.625	22459
851.76	22379
851.895	22459
852.03	22314
852.165	22440
852.299	22455
852.434	22573
852.569	22428
852.703	22390
852.838	22306
852.973	22451
853.107	22535
853.242	22188
853.376	22112
853.511	22131
853.645	22090
853.78	22390
853.914	22272
854.048	22139
854.183	22150
854.317	22322
854.451	22360
854.585	22318
854.72	22150
854.854	22421
854.988	22067
855.122	22246
855.256	22185
855.39	22230
855.524	22367
855.658	22261
855.792	22215
855.926	22367
856.06	22253
856.194	22417
856.327	22120
856.461	22147
856.595	22048
856.729	22249
856.862	22261
856.996	22299
857.13	22246
857.263	22299
857.397	22200
857.53	22219
857.664	22230
857.797	22257
857.931	22306
858.064	22318
858.197	22246
858.331	22344
858.464	22120
858.597	22215
858.731	22185
858.864	22158
858.997	22166
859.13	22242
859.263	22265
859.396	22261
859.529	22196
859.662	22196
859.795	22215
859.928	22287
860.061	22310
860.194	22310
860.327	22337
860.46	22276
860.592	22295
860.725	22398
860.858	22360
860.99	22230
861.123	22223
861.256	22143
861.388	22204
861.521	23014
861.653	22131
861.786	21998
861.918	22010
862.05	22025
862.183	22105
862.315	22143
862.447	22185
862.58	22272
862.712	21888
862.844	21945
862.976	22021
863.108	22021
863.24	22341
863.372	21850
863.504	21922
863.636	21865
863.768	22025
863.9	21953
864.032	21941
864.164	21994
864.296	21934
864.428	22082
864.559	22078
864.691	21998
864.823	21895
864.954	21964
865.086	21804
865.217	21823
865.349	21717
865.48	21800
865.612	21759
865.743	22112
865.875	21854
866.006	21732
866.137	21865
866.269	21698
866.4	21888
866.531	21838
866.662	21633
866.793	21732
866.924	21800
867.055	21728
867.186	21751
867.317	21705
867.448	21747
867.579	21705
867.71	21660
867.841	21629
867.972	21808
868.103	21701
868.233	21713
868.364	21800
868.495	21823
868.625	22040
868.756	22131
868.886	21953
869.017	21907
869.147	22143
869.278	22154
869.408	22029
869.539	21895
869.669	22188
869.799	22017
869.929	21907
870.06	22135
870.19	22363
870.32	22253
870.45	22371
870.58	22337
870.71	22379
870.84	22432
870.97	22470
871.1	22428
871.23	22485
871.36	22577
871.489	22504
871.619	22603
871.749	22508
871.879	22630
872.008	22645
872.138	22474
872.267	22481
872.397	22580
872.526	22394
872.656	22371
872.785	22348
872.915	22653
873.044	22694
873.173	22577
873.303	22603
873.432	22660
873.561	22725
873.69	22679
873.819	22596
873.948	22839
874.077	22603
874.206	22557
874.335	22603
874.464	22706
874.593	22869
874.722	22809
874.851	22828
874.979	22915
875.108	22942
875.237	22820
875.365	22782
875.494	22786
875.623	22949
875.751	22725
875.88	22919
876.008	23052
876.136	23067
876.265	23273
876.393	23307
876.521	23318
876.65	23181
876.778	23105
876.906	23216
877.034	23071
877.162	23204
877.29	23174
877.418	23162
877.546	23052
877.674	23117
877.802	23064
877.93	23014
878.058	23109
878.185	23071
878.313	23292
878.441	23094
878.568	23006
878.696	23037
878.824	23280
878.951	23269
879.079	23345
879.206	23429
879.333	23406
879.461	23356
879.588	23326
879.715	23379
879.842	23474
879.97	23250
880.097	23075
880.224	22927
880.351	23079
880.478	23094
880.605	22930
880.732	23044
880.859	23395
880.986	23064
881.112	23105
881.239	22812
881.366	22691
881.493	22702
881.619	22607
881.746	22516
881.872	22546
881.999	22607
882.125	22500
882.252	22630
882.378	22557
882.505	22679
882.631	22417
882.757	22246
882.883	22284
883.01	22261
883.136	22185
883.262	22139
883.388	22036
883.514	22325
883.64	22226
883.766	22200
883.892	21979
884.018	22013
884.143	22223
884.269	22215
884.395	21998
884.52	21899
884.646	21915
884.772	21797
884.897	21751
885.023	21812
885.148	21915
885.274	21937
885.399	22021
885.524	21895
885.65	21835
885.775	21888
885.9	21755
886.025	22017
886.15	21937
886.275	21781
886.4	21755
886.525	21816
886.65	21705
886.775	21739
886.9	21808
887.025	21949
887.149	21865
887.274	21717
887.399	21538
887.523	21644
887.648	21564
887.773	21519
887.897	21698
888.021	21610
888.146	21663
888.27	21709
888.395	21717
888.519	21755
888.643	21648
888.767	21694
888.891	21572
889.015	21458
889.139	21504
889.263	21332
889.387	21549
889.511	21572
889.635	21542
889.759	21447
889.883	21310
890.006	21408
890.13	21420
890.254	21439
890.377	21313
890.501	21100
890.624	21218
890.748	21195
890.871	21039
890.995	21051
891.118	20994
891.241	21116
891.364	20986
891.488	21028
891.611	20918
891.734	20998
891.857	20982
891.98	20849
892.103	21070
892.226	20941
892.349	20956
892.471	20773
892.594	20746
892.717	20971
892.839	20853
892.962	20864
893.085	20929
893.207	20876
893.33	20769
893.452	20765
893.575	20906
893.697	20864
893.819	21032
893.941	21089
894.064	20956
894.186	20788
894.308	20823
894.43	21020
894.552	21028
894.674	21005
894.796	20811
894.918	20796
895.04	20941
895.161	20929
895.283	20891
895.405	20834
895.526	20864
895.648	20853
895.769	20750
895.891	20872
896.012	20952
896.134	20948
896.255	20857
896.376	20788
896.498	20876
896.619	20883
896.74	20975
896.861	20834
896.982	21116
897.103	21332
897.224	21123
897.345	20963
897.466	20990
897.587	21047
897.708	21169
897.828	21074
897.949	21036
898.07	20849
898.19	21009
898.311	21180
898.431	21058
898.552	21028
898.672	20982
898.792	21066
898.913	20994
899.033	21047
899.153	20868
899.273	20674
899.393	20807
899.513	20765
899.633	20800
899.753	20842
899.873	20731
899.993	20967
900.113	20724
900.232	20785
900.352	20708
900.472	20693
900.591	20648
900.711	20617
900.83	20511
900.95	20602
901.069	20648
901.189	20583
901.308	20275
901.427	20008
901.546	20149
901.665	20187
901.784	20138
901.904	19951
902.023	20069
902.141	19807
902.26	19719
902.379	19757
902.498	19647
902.617	19609
902.735	19674
902.854	19582
902.973	19578
903.091	19422
903.21	19297
903.328	19297
903.446	19274
903.565	19122
903.683	19179
903.801	18977
903.919	19012
904.038	19019
904.156	18966
904.274	18939
904.392	18886
904.51	18829
904.627	18810
904.745	18852
904.863	18852
904.981	18722
905.098	18608
905.216	18532
905.334	18589
905.451	18555
905.569	18467
905.686	18456
905.803	18517
905.921	18384
906.038	18407
906.155	18323
906.272	18136
906.389	18194
906.506	18095
906.623	18034
906.74	17927
906.857	17969
906.974	17893
907.091	18114
907.208	18136
907.324	18034
907.441	18011
907.557	17824
907.674	17809
907.79	17767
907.907	17714
908.023	17843
908.139	17710
908.256	17707
908.372	17691
908.488	17611
908.604	17535
908.72	17421
908.836	17551
908.952	17410
909.068	17501
909.184	17474
909.3	17395
909.415	17452
909.531	17478
909.647	17326
909.762	17307
909.878	17113
909.993	17197
910.108	17124
910.224	17178
910.339	17143
910.454	17022
910.57	16934
910.685	16896
910.8	17105
910.915	17048
911.03	16972
911.145	16733
911.259	16641
911.374	16713
911.489	16660
911.604	16607
911.718	16535
911.833	16504
911.947	16356
912.062	16322
912.176	16451
912.291	16459
912.405	16489
912.519	16611
912.633	16618
912.748	16531
912.862	16478
912.976	16291
913.09	16265
913.204	16341
913.318	16398
913.431	16329
913.545	16417
913.659	16436
913.772	16314
913.886	16143
914	16135
914.113	16124
914.226	16284
914.34	16185
914.453	16010
914.566	16223
914.68	15979
914.793	15880
914.906	15850
915.019	15701
915.132	15622
915.245	15595
915.358	15755
915.47	15679
915.583	15732
915.696	15762
915.809	15800
915.921	15766
916.034	15762
916.146	15584
916.259	15595
916.371	15671
916.483	15584
916.595	15515
916.708	15557
916.82	15477
916.932	15538
917.044	15454
917.156	15496
917.268	15355
917.38	15329
917.491	15378
917.603	15252
917.715	15283
917.826	15485
917.938	15310
918.049	15211
918.161	15348
918.272	15359
918.384	15397
918.495	15176
918.606	15077
918.717	15104
918.828	15032
918.939	15070
919.05	15039
919.161	15036
919.272	14921
919.383	14944
919.494	15062
919.604	15184
919.715	15009
919.826	14967
919.936	15001
920.047	15176
920.157	15055
920.267	15184
920.378	14971
920.488	15009
920.598	15211
920.708	15382
920.818	15176
920.928	15180
921.038	15256
921.148	15294
921.258	14883
921.368	14891
921.477	14678
921.587	14682
921.697	14556
921.806	14830
921.916	14594
922.025	14530
922.134	14389
922.244	14328
922.353	14465
922.462	14248
922.571	14256
922.68	14073
922.789	14103
922.898	13989
923.007	14008
923.116	14088
923.224	14069
923.333	13970
923.442	13849
923.55	13852
923.659	13871
923.767	13951
923.876	13734
923.984	13894
924.092	13776
924.201	13757
924.309	13727
924.417	13795
924.525	13616
924.633	13624
924.741	14507
924.849	13422
924.956	13582
925.064	13422
925.172	13331
925.279	13499
925.387	13430
925.494	13392
925.602	13449
925.709	13445
925.816	13392
925.924	13362
926.031	13499
926.138	13411
926.245	13438
926.352	13133
926.459	13453
926.566	13388
926.673	13209
926.779	13145
926.886	13160
926.993	12993
927.099	12916
927.206	12901
927.312	12954
927.419	12989
927.525	13050
927.631	13042
927.737	12905
927.843	12772
927.95	12753
928.056	12806
928.162	12817
928.267	12848
928.373	13472
928.479	12810
928.585	12627
928.69	12616
928.796	12730
928.901	12669
929.007	12502
929.112	12578
929.218	12639
929.323	12471
929.428	12486
929.533	12639
929.638	12372
929.743	12475
929.848	12433
929.953	12395
930.058	12330
930.163	12159
930.267	12213
930.372	12330
930.477	12102
930.581	12429
930.685	12175
930.79	12068
930.894	12136
930.998	12045
931.103	12133
931.207	11802
931.311	11714
931.415	11672
931.519	11452
931.623	11410
