Data from test_V78500241_1711.txt Node
Date: Fri Mar 25 15:53:39 CST 2022
User: usil
Spectrometer: V785-0024
Trigger mode: 0
Integration Time (sec): 4.000000E-1
Scans to average: 1
Nonlinearity correction enabled: false
Boxcar width: 0
Storing dark spectrum: false
XAxis mode: Wavelengths
Number of Pixels in Spectrum: 1024
>>>>>Begin Spectral Data<<<<<
801.071	28493
801.214	28367
801.356	28032
801.499	28101
801.641	28017
801.783	27922
801.926	28021
802.068	27873
802.211	27835
802.353	27789
802.496	27591
802.638	27587
802.78	27519
802.923	27420
803.065	27435
803.208	27492
803.35	27656
803.492	27759
803.635	27759
803.777	27766
803.919	27785
804.061	28097
804.204	27865
804.346	27701
804.488	27686
804.63	27816
804.773	27720
804.915	27842
805.057	27972
805.199	27880
805.341	27865
805.483	28082
805.626	27994
805.768	27854
805.91	27926
806.052	28158
806.194	27899
806.336	28128
806.478	27907
806.62	27945
806.762	28188
806.904	28249
807.046	28405
807.188	28398
807.33	28363
807.472	28508
807.614	28314
807.756	28295
807.898	28310
808.04	28234
808.182	28177
808.324	28280
808.465	28284
808.607	28417
808.749	28611
808.891	28687
809.033	28843
809.174	28687
809.316	28767
809.458	28470
809.6	28508
809.741	28812
809.883	28809
810.025	28908
810.166	29018
810.308	28892
810.45	28828
810.591	28850
810.733	28489
810.875	28740
811.016	28512
811.158	28523
811.299	28786
811.441	28725
811.582	28733
811.724	28626
811.865	28535
812.007	28664
812.148	28527
812.29	28702
812.431	28816
812.573	28927
812.714	28995
812.855	29166
812.997	29303
813.138	29322
813.279	29345
813.421	29102
813.562	29132
813.703	29033
813.845	28991
813.986	28519
814.127	28398
814.268	28363
814.41	28348
814.551	28253
814.692	28341
814.833	28261
814.974	28200
815.115	28390
815.256	28135
815.397	28135
815.539	28226
815.68	28166
815.821	28124
815.962	28188
816.103	28173
816.244	27918
816.385	27781
816.526	27747
816.666	27759
816.807	27606
816.948	27614
817.089	27724
817.23	27671
817.371	27675
817.512	27648
817.653	27625
817.793	27500
817.934	27652
818.075	27534
818.216	27469
818.356	27488
818.497	27504
818.638	27260
818.778	27272
818.919	27291
819.06	27363
819.2	27561
819.341	27572
819.481	27469
819.622	27675
819.762	27770
819.903	27892
820.043	27724
820.184	27747
820.324	27698
820.465	27739
820.605	27701
820.746	27766
820.886	27599
821.026	27610
821.167	27667
821.307	27846
821.447	27641
821.588	27443
821.728	27450
821.868	27207
822.008	26914
822.149	27077
822.289	27138
822.429	26853
822.569	26811
822.709	26880
822.849	26583
822.99	26556
823.13	26423
823.27	26499
823.41	26332
823.55	26343
823.69	26442
823.83	26438
823.97	26377
824.11	26290
824.25	26252
824.389	26263
824.529	26427
824.669	26218
824.809	26374
824.949	26415
825.089	26400
825.228	26377
825.368	25978
825.508	26199
825.648	26149
825.787	26119
825.927	26180
826.067	26153
826.206	26016
826.346	26134
826.485	26142
826.625	26138
826.765	26187
826.904	26103
827.044	25917
827.183	25913
827.323	25715
827.462	25898
827.601	25845
827.741	25795
827.88	25852
828.02	25662
828.159	25811
828.298	25932
828.437	25807
828.577	25746
828.716	25936
828.855	25780
828.994	25594
829.134	25449
829.273	25552
829.412	25544
829.551	25472
829.69	25613
829.829	25521
829.968	25727
830.107	25597
830.246	25537
830.385	25377
830.524	25441
830.663	25407
830.802	25251
830.941	25122
831.08	25168
831.219	25251
831.357	25282
831.496	25221
831.635	25031
831.774	25038
831.913	24966
832.051	24913
832.19	24958
832.329	24977
832.467	24772
832.606	24700
832.744	24715
832.883	24890
833.022	24783
833.16	24719
833.299	24764
833.437	24825
833.576	24852
833.714	24829
833.852	24989
833.991	24856
834.129	24951
834.267	24992
834.406	24924
834.544	25019
834.682	24878
834.821	24806
834.959	24871
835.097	24707
835.235	24875
835.373	24821
835.511	24658
835.65	24764
835.788	24555
835.926	24608
836.064	24418
836.202	24627
836.34	24612
836.478	24814
836.615	24715
836.753	24639
836.891	24779
837.029	24753
837.167	24696
837.305	24574
837.443	24593
837.58	24467
837.718	24612
837.856	24601
837.993	24460
838.131	24502
838.269	24414
838.406	24471
838.544	24262
838.681	24129
838.819	24140
838.956	23988
839.094	23939
839.231	24068
839.369	24152
839.506	24464
839.643	24148
839.781	23984
839.918	23878
840.055	24015
840.193	23999
840.33	23813
840.467	23980
840.604	23980
840.742	24129
840.879	23824
841.016	23775
841.153	23764
841.29	23874
841.427	23931
841.564	23992
841.701	23828
841.838	23939
841.975	23790
842.112	23703
842.249	23642
842.385	23661
842.522	23779
842.659	23665
842.796	23668
842.933	23691
843.069	23684
843.206	23676
843.343	23623
843.479	23554
843.616	23649
843.752	23326
843.889	23497
844.025	23589
844.162	23383
844.298	23558
844.435	23459
844.571	23379
844.708	23463
844.844	23634
844.98	23573
845.117	23395
845.253	23398
845.389	23204
845.525	23341
845.661	23223
845.798	23193
845.934	23227
846.07	23033
846.206	23041
846.342	23368
846.478	23128
846.614	22889
846.75	22904
846.886	22824
847.022	22892
847.158	22748
847.294	22782
847.429	22877
847.565	22812
847.701	23025
847.837	22653
847.972	22580
848.108	22717
848.244	22588
848.379	22550
848.515	22493
848.65	22493
848.786	22493
848.921	22493
849.057	22493
849.192	22561
849.328	22554
849.463	22405
849.598	22363
849.734	22382
849.869	22440
850.004	22169
850.14	22230
850.275	22280
850.41	22246
850.545	22147
850.68	22238
850.815	22272
850.95	22200
851.085	22299
851.22	22398
851.355	22329
851.49	22150
851.625	22169
851.76	22150
851.895	22200
852.03	22067
852.165	22295
852.299	22276
852.434	22246
852.569	22173
852.703	22219
852.838	22246
852.973	22363
853.107	22333
853.242	22200
853.376	22093
853.511	22067
853.645	21991
853.78	22078
853.914	22124
854.048	21945
854.183	22040
854.317	22181
854.451	22219
854.585	22025
854.72	22010
854.854	22124
854.988	21842
855.122	21975
855.256	21945
855.39	22025
855.524	22109
855.658	22010
855.792	22097
855.926	22055
856.06	21991
856.194	22169
856.327	22006
856.461	21930
856.595	22051
856.729	21979
856.862	22086
856.996	22044
857.13	22093
857.263	22044
857.397	22196
857.53	21987
857.664	22116
857.797	22013
857.931	22166
858.064	21907
858.197	22051
858.331	21949
858.464	22010
858.597	21915
858.731	21903
858.864	22010
858.997	21994
859.13	22101
859.263	22078
859.396	22036
859.529	21998
859.662	21998
859.795	22006
859.928	22078
860.061	22196
860.194	22192
860.327	22090
860.46	21972
860.592	22086
860.725	22116
860.858	22207
860.99	21949
861.123	21998
861.256	22070
861.388	22067
861.521	22733
861.653	21907
861.786	21865
861.918	21968
862.05	21915
862.183	22002
862.315	21819
862.447	22147
862.58	21895
862.712	21804
862.844	21720
862.976	21739
863.108	21816
863.24	22200
863.372	21591
863.504	21637
863.636	21800
863.768	21759
863.9	21705
864.032	21606
864.164	21667
864.296	21842
864.428	21861
864.559	21675
864.691	21789
864.823	21739
864.954	21724
865.086	21663
865.217	21572
865.349	21545
865.48	21633
865.612	21652
865.743	21705
865.875	21732
866.006	21583
866.137	21717
866.269	21736
866.4	21564
866.531	21656
866.662	21599
866.793	21523
866.924	21603
867.055	21629
867.186	21557
867.317	21473
867.448	21416
867.579	21507
867.71	21443
867.841	21500
867.972	21557
868.103	21538
868.233	21576
868.364	21538
868.495	21808
868.625	21816
868.756	21956
868.886	21800
869.017	21800
869.147	21892
869.278	21911
869.408	21926
869.539	21819
869.669	21743
869.799	21884
869.929	21979
870.06	21838
870.19	22116
870.32	22147
870.45	22226
870.58	22135
870.71	22386
870.84	22185
870.97	22166
871.1	22055
871.23	22295
871.36	22367
871.489	22238
871.619	22379
871.749	22306
871.879	22398
872.008	22485
872.138	22268
872.267	22455
872.397	22276
872.526	22169
872.656	22280
872.785	22181
872.915	22284
873.044	22489
873.173	22409
873.303	22519
873.432	22500
873.561	22481
873.69	22508
873.819	22352
873.948	22421
874.077	22341
874.206	22352
874.335	22500
874.464	22497
874.593	22672
874.722	22687
874.851	22592
874.979	22637
875.108	22626
875.237	22478
875.365	22504
875.494	22527
875.623	22725
875.751	22550
875.88	22561
876.008	22721
876.136	22793
876.265	23014
876.393	23223
876.521	23064
876.65	23155
876.778	23006
876.906	23029
877.034	22908
877.162	22919
877.29	22900
877.418	22946
877.546	22896
877.674	22946
877.802	22976
877.93	22866
878.058	22847
878.185	22850
878.313	22900
878.441	22927
878.568	22858
878.696	22873
878.824	22976
878.951	22991
879.079	23151
879.206	23250
879.333	23121
879.461	23083
879.588	22999
879.715	23197
879.842	23162
879.97	23041
880.097	22816
880.224	22694
880.351	22797
880.478	22809
880.605	22771
880.732	22881
880.859	23029
880.986	22843
881.112	22881
881.239	22607
881.366	22561
881.493	22462
881.619	22322
881.746	22405
881.872	22497
881.999	22325
882.125	22303
882.252	22402
882.378	22348
882.505	22421
882.631	22211
882.757	22173
882.883	22116
883.01	22002
883.136	22036
883.262	22048
883.388	21827
883.514	22097
883.64	22128
883.766	21911
883.892	21797
884.018	21842
884.143	22017
884.269	22086
884.395	21854
884.52	21618
884.646	21637
884.772	21618
884.897	21492
885.023	21622
885.148	21663
885.274	21785
885.399	21686
885.524	21622
885.65	21641
885.775	21690
885.9	21622
886.025	21618
886.15	21656
886.275	21606
886.4	21622
886.525	21618
886.65	21485
886.775	21625
886.9	21785
887.025	21804
887.149	21580
887.274	21488
887.399	21424
887.523	21435
887.648	21275
887.773	21374
887.897	21526
888.021	21340
888.146	21382
888.27	21454
888.395	21492
888.519	21416
888.643	21321
888.767	21469
888.891	21374
889.015	21233
889.139	21389
889.263	21184
889.387	21435
889.511	21344
889.635	21405
889.759	21222
889.883	21222
890.006	21184
890.13	21317
890.254	21017
890.377	21165
890.501	21032
890.624	20990
890.748	21081
890.871	20944
890.995	20963
891.118	20686
891.241	20667
891.364	20857
891.488	20788
891.611	20788
891.734	20746
891.857	20758
891.98	20838
892.103	20777
892.226	20819
892.349	20705
892.471	20488
892.594	20739
892.717	20750
892.839	20693
892.962	20693
893.085	20765
893.207	20686
893.33	20533
893.452	20598
893.575	20716
893.697	20670
893.819	20796
893.941	20796
894.064	20853
894.186	20575
894.308	20621
894.43	20670
894.552	20891
894.674	20689
894.796	20507
894.918	20625
895.04	20495
895.161	20655
895.283	20678
895.405	20697
895.526	20678
895.648	20667
895.769	20575
895.891	20682
896.012	20880
896.134	20648
896.255	20804
896.376	20716
896.498	20613
896.619	20785
896.74	20644
896.861	20705
896.982	21024
897.103	21154
897.224	20872
897.345	20857
897.466	20910
897.587	20891
897.708	20918
897.828	20986
897.949	20815
898.07	20686
898.19	20823
898.311	21039
898.431	20876
898.552	20823
898.672	20819
898.792	21001
898.913	20967
899.033	20838
899.153	20636
899.273	20632
899.393	20632
899.513	20674
899.633	20636
899.753	20686
899.873	20583
899.993	20659
900.113	20579
900.232	20533
900.352	20621
900.472	20484
900.591	20332
900.711	20457
900.83	20301
900.95	20518
901.069	20507
901.189	20267
901.308	20100
901.427	20001
901.546	19936
901.665	19970
901.784	20024
901.904	19841
902.023	19639
902.141	19544
902.26	19460
902.379	19601
902.498	19548
902.617	19502
902.735	19521
902.854	19426
902.973	19457
903.091	19236
903.21	19072
903.328	19126
903.446	18947
903.565	19012
903.683	18989
903.801	18878
903.919	18928
904.038	18856
904.156	18749
904.274	18867
904.392	18684
904.51	18642
904.627	18806
904.745	18772
904.863	18661
904.981	18525
905.098	18285
905.216	18399
905.334	18475
905.451	18498
905.569	18319
905.686	18304
905.803	18350
905.921	18148
906.038	18209
906.155	18194
906.272	17977
906.389	18060
906.506	17939
906.623	17901
906.74	17893
906.857	17843
906.974	17904
907.091	18083
907.208	17996
907.324	17927
907.441	17794
907.557	17589
907.674	17627
907.79	17532
907.907	17608
908.023	17642
908.139	17589
908.256	17554
908.372	17532
908.488	17486
908.604	17356
908.72	17368
908.836	17292
908.952	17299
909.068	17391
909.184	17448
909.3	17326
909.415	17315
909.531	17269
909.647	17060
909.762	17075
909.878	16957
909.993	17025
910.108	16972
910.224	16961
910.339	17025
910.454	16850
910.57	16869
910.685	16835
910.8	17037
910.915	16889
911.03	16790
911.145	16603
911.259	16668
911.374	16687
911.489	16512
911.604	16592
911.718	16409
911.833	16398
911.947	16257
912.062	16246
912.176	16348
912.291	16291
912.405	16436
912.519	16584
912.633	16554
912.748	16447
912.862	16280
912.976	16226
913.09	16048
913.204	16044
913.318	16253
913.431	16257
913.545	16295
913.659	16207
913.772	16158
913.886	15975
914	15968
914.113	16010
914.226	16074
914.34	16101
914.453	15838
914.566	16010
914.68	15869
914.793	15800
914.906	15625
915.019	15587
915.132	15538
915.245	15523
915.358	15515
915.47	15606
915.583	15515
915.696	15549
915.809	15709
915.921	15641
916.034	15488
916.146	15443
916.259	15405
916.371	15603
916.483	15492
916.595	15325
916.708	15416
916.82	15317
916.932	15355
917.044	15374
917.156	15275
917.268	15089
917.38	15332
917.491	15188
917.603	15230
917.715	15180
917.826	15291
917.938	15066
918.049	15062
918.161	15077
918.272	15252
918.384	15256
918.495	15154
918.606	14956
918.717	14925
918.828	14967
918.939	14975
919.05	14792
919.161	14941
919.272	14746
919.383	14762
919.494	14967
919.604	15116
919.715	14933
919.826	14746
919.936	14864
920.047	14971
920.157	14982
920.267	15066
920.378	14857
920.488	14921
920.598	15017
920.708	15157
920.818	14982
920.928	14941
921.038	15176
921.148	15116
921.258	14777
921.368	14861
921.477	14625
921.587	14590
921.697	14465
921.806	14594
921.916	14446
922.025	14355
922.134	14317
922.244	14206
922.353	14233
922.462	14172
922.571	14092
922.68	13978
922.789	13879
922.898	13871
923.007	13856
923.116	14054
923.224	13955
923.333	13879
923.442	13776
923.55	13765
923.659	13780
923.767	13757
923.876	13605
923.984	13791
924.092	13662
924.201	13734
924.309	13548
924.417	13609
924.525	13540
924.633	13556
924.741	14328
924.849	13358
924.956	13445
925.064	13278
925.172	13312
925.279	13274
925.387	13304
925.494	13278
925.602	13381
925.709	13388
925.816	13190
925.924	13331
926.031	13331
926.138	13209
926.245	13282
926.352	13152
926.459	13263
926.566	13282
926.673	13175
926.779	13072
926.886	13072
926.993	12924
927.099	12810
927.206	12825
927.312	12776
927.419	12905
927.525	12867
927.631	12852
927.737	12707
927.843	12677
927.95	12551
928.056	12779
928.162	12639
928.267	12722
928.373	13365
928.479	12795
928.585	12483
928.69	12555
928.796	12669
928.901	12532
929.007	12346
929.112	12585
929.218	12410
929.323	12414
929.428	12384
929.533	12563
929.638	12308
929.743	12361
929.848	12342
929.953	12384
930.058	12197
930.163	12053
930.267	12133
930.372	12224
930.477	12041
930.581	12205
930.685	12007
930.79	11920
930.894	11980
930.998	11882
931.103	12049
931.207	11600
931.311	11657
931.415	11516
931.519	11376
931.623	11284
