Data from test_V78500241_1258.txt Node
Date: Fri Mar 25 15:50:30 CST 2022
User: usil
Spectrometer: V785-0024
Trigger mode: 0
Integration Time (sec): 4.000000E-1
Scans to average: 1
Nonlinearity correction enabled: false
Boxcar width: 0
Storing dark spectrum: false
XAxis mode: Wavelengths
Number of Pixels in Spectrum: 1024
>>>>>Begin Spectral Data<<<<<
801.071	28866
801.214	28786
801.356	28577
801.499	28531
801.641	28470
801.783	28230
801.926	28409
802.068	28523
802.211	28405
802.353	28238
802.496	28173
802.638	28006
802.78	28158
802.923	28109
803.065	28017
803.208	28013
803.35	28207
803.492	28143
803.635	28325
803.777	28284
803.919	28405
804.061	28611
804.204	28554
804.346	28196
804.488	28238
804.63	28424
804.773	28367
804.915	28375
805.057	28367
805.199	28337
805.341	28550
805.483	28622
805.626	28466
805.768	28462
805.91	28470
806.052	28497
806.194	28538
806.336	28622
806.478	28603
806.62	28573
806.762	28649
806.904	28812
807.046	28987
807.188	28957
807.33	28949
807.472	29121
807.614	28984
807.756	28968
807.898	28790
808.04	28786
808.182	28987
808.324	28885
808.465	28949
808.607	29071
808.749	29288
808.891	29315
809.033	29311
809.174	29261
809.316	29258
809.458	29041
809.6	29121
809.741	29395
809.883	29406
810.025	29627
810.166	29512
810.308	29634
810.45	29539
810.591	29604
810.733	29231
810.875	29292
811.016	29235
811.158	29189
811.299	29143
811.441	29288
811.582	29436
811.724	29216
811.865	29235
812.007	29235
812.148	29208
812.29	29315
812.431	29356
812.573	29551
812.714	29714
812.855	29786
812.997	29862
813.138	30038
813.279	29973
813.421	29794
813.562	29695
813.703	29531
813.845	29573
813.986	29231
814.127	29162
814.268	28850
814.41	28957
814.551	28946
814.692	29060
814.833	29052
814.974	28900
815.115	29052
815.256	28816
815.397	28820
815.539	28793
815.68	28721
815.821	28786
815.962	28881
816.103	28725
816.244	28618
816.385	28710
816.526	28599
816.666	28401
816.807	28226
816.948	28417
817.089	28348
817.23	28356
817.371	28287
817.512	28325
817.653	28337
817.793	28200
817.934	28219
818.075	28428
818.216	28493
818.356	28363
818.497	28276
818.638	28109
818.778	28143
818.919	28059
819.06	28093
819.2	28158
819.341	28276
819.481	28314
819.622	28573
819.762	28672
819.903	28516
820.043	28531
820.184	28500
820.324	28409
820.465	28557
820.605	28348
820.746	28440
820.886	28306
821.026	28474
821.167	28455
821.307	28516
821.447	28318
821.588	28333
821.728	28093
821.868	27888
822.008	27873
822.149	27793
822.289	27728
822.429	27545
822.569	27534
822.709	27515
822.849	27344
822.99	27367
823.13	27408
823.27	27332
823.41	27192
823.55	27039
823.69	27036
823.83	27192
823.97	27066
824.11	27032
824.25	26815
824.389	27043
824.529	26967
824.669	26994
824.809	27104
824.949	27047
825.089	27062
825.228	27074
825.368	26956
825.508	26804
825.648	26979
825.787	26762
825.927	26891
826.067	26788
826.206	26731
826.346	26853
826.485	27039
826.625	26800
826.765	26925
826.904	26830
827.044	26686
827.183	26568
827.323	26511
827.462	26537
827.601	26609
827.741	26575
827.88	26609
828.02	26488
828.159	26453
828.298	26629
828.437	26598
828.577	26549
828.716	26636
828.855	26381
828.994	26370
829.134	26385
829.273	26358
829.412	26347
829.551	26355
829.69	26218
829.829	26396
829.968	26309
830.107	26396
830.246	26210
830.385	26092
830.524	26214
830.663	26134
830.802	25917
830.941	25978
831.08	25913
831.219	25966
831.357	26024
831.496	26134
831.635	25818
831.774	25753
831.913	25811
832.051	25601
832.19	25674
832.329	25594
832.467	25582
832.606	25479
832.744	25506
832.883	25476
833.022	25449
833.16	25434
833.299	25571
833.437	25491
833.576	25460
833.714	25643
833.852	25624
833.991	25670
834.129	25715
834.267	25643
834.406	25605
834.544	25647
834.682	25430
834.821	25453
834.959	25635
835.097	25438
835.235	25563
835.373	25502
835.511	25578
835.65	25400
835.788	25316
835.926	25308
836.064	25289
836.202	25266
836.34	25419
836.478	25468
836.615	25464
836.753	25434
836.891	25506
837.029	25369
837.167	25320
837.305	25206
837.443	25297
837.58	25365
837.718	25274
837.856	25308
837.993	25137
838.131	25206
838.269	25221
838.406	25164
838.544	25019
838.681	24886
838.819	24806
838.956	24627
839.094	24707
839.231	24646
839.369	24894
839.506	25027
839.643	24909
839.781	24620
839.918	24692
840.055	24654
840.193	24604
840.33	24597
840.467	24658
840.604	24692
840.742	24844
840.879	24566
841.016	24566
841.153	24486
841.29	24612
841.427	24597
841.564	24703
841.701	24582
841.838	24532
841.975	24437
842.112	24525
842.249	24323
842.385	24407
842.522	24601
842.659	24399
842.796	24369
842.933	24388
843.069	24319
843.206	24216
843.343	24391
843.479	24342
843.616	24270
843.752	24098
843.889	24064
844.025	24209
844.162	24125
844.298	24163
844.435	24129
844.571	24041
844.708	24098
844.844	24254
844.98	24258
845.117	24239
845.253	24064
845.389	24049
845.525	23965
845.661	23996
845.798	23923
845.934	24011
846.07	23931
846.206	23882
846.342	23977
846.478	23885
846.614	23630
846.75	23429
846.886	23665
847.022	23691
847.158	23611
847.294	23505
847.429	23691
847.565	23551
847.701	23779
847.837	23227
847.972	23227
848.108	23379
848.244	23482
848.379	23292
848.515	23174
848.65	23132
848.786	23102
848.921	23056
849.057	23376
849.192	23204
849.328	23109
849.463	23128
849.598	22965
849.734	23117
849.869	22976
850.004	22984
850.14	23010
850.275	22854
850.41	22881
850.545	22885
850.68	22911
850.815	22911
850.95	22835
851.085	23014
851.22	22984
851.355	22999
851.49	22873
851.625	22991
851.76	22763
851.895	22752
852.03	22748
852.165	22892
852.299	22908
852.434	22980
852.569	22957
852.703	22843
852.838	22858
852.973	23102
853.107	23098
853.242	22850
853.376	22759
853.511	22702
853.645	22675
853.78	22904
853.914	22748
854.048	22691
854.183	22637
854.317	22736
854.451	22911
854.585	22748
854.72	22710
854.854	22786
854.988	22706
855.122	22774
855.256	22679
855.39	22710
855.524	22839
855.658	22797
855.792	22862
855.926	22683
856.06	22618
856.194	22847
856.327	22580
856.461	22607
856.595	22786
856.729	22679
856.862	22847
856.996	22733
857.13	22805
857.263	22904
857.397	22957
857.53	22698
857.664	22752
857.797	22790
857.931	22923
858.064	22908
858.197	22805
858.331	22630
858.464	22721
858.597	22588
858.731	22683
858.864	22740
858.997	22637
859.13	22706
859.263	22755
859.396	22828
859.529	22706
859.662	22687
859.795	22767
859.928	22641
860.061	22706
860.194	22873
860.327	22809
860.46	22896
860.592	22801
860.725	22820
860.858	22812
860.99	22854
861.123	22611
861.256	22565
861.388	22729
861.521	23288
861.653	22584
861.786	22542
861.918	22481
862.05	22500
862.183	22679
862.315	22641
862.447	22698
862.58	22698
862.712	22497
862.844	22390
862.976	22455
863.108	22455
863.24	22759
863.372	22398
863.504	22462
863.636	22402
863.768	22375
863.9	22447
864.032	22367
864.164	22386
864.296	22436
864.428	22531
864.559	22573
864.691	22550
864.823	22474
864.954	22478
865.086	22348
865.217	22276
865.349	22265
865.48	22291
865.612	22318
865.743	22481
865.875	22306
866.006	22284
866.137	22375
866.269	22287
866.4	22318
866.531	22238
866.662	22177
866.793	22192
866.924	22192
867.055	22356
867.186	22226
867.317	22196
867.448	22158
867.579	22242
867.71	22135
867.841	22135
867.972	22272
868.103	22215
868.233	22261
868.364	22169
868.495	22379
868.625	22535
868.756	22645
868.886	22557
869.017	22348
869.147	22607
869.278	22523
869.408	22596
869.539	22432
869.669	22535
869.799	22519
869.929	22542
870.06	22580
870.19	22774
870.32	22733
870.45	22786
870.58	22847
870.71	22968
870.84	22889
870.97	22987
871.1	22987
871.23	23014
871.36	23056
871.489	22889
871.619	23033
871.749	23094
871.879	23102
872.008	23246
872.138	23117
872.267	22999
872.397	23033
872.526	22816
872.656	22873
872.785	22881
872.915	23121
873.044	23140
873.173	23170
873.303	23090
873.432	23155
873.561	23170
873.69	23041
873.819	23037
873.948	23105
874.077	23109
874.206	23178
874.335	23140
874.464	23261
874.593	23261
874.722	23220
874.851	23307
874.979	23273
875.108	23239
875.237	23345
875.365	23220
875.494	23227
875.623	23307
875.751	23292
875.88	23315
876.008	23410
876.136	23535
876.265	23653
876.393	23786
876.521	23707
876.65	23843
876.778	23638
876.906	23684
877.034	23486
877.162	23634
877.29	23627
877.418	23687
877.546	23665
877.674	23539
877.802	23672
877.93	23646
878.058	23589
878.185	23436
878.313	23539
878.441	23623
878.568	23391
878.696	23543
878.824	23668
878.951	23710
879.079	23676
879.206	23965
879.333	23760
879.461	23722
879.588	23805
879.715	23710
879.842	23954
879.97	23741
880.097	23493
880.224	23349
880.351	23379
880.478	23391
880.605	23452
880.732	23493
880.859	23600
880.986	23429
881.112	23360
881.239	23315
881.366	23109
881.493	23086
881.619	23014
881.746	23151
881.872	23018
881.999	22892
882.125	23029
882.252	23022
882.378	22839
882.505	22927
882.631	22911
882.757	22733
882.883	22698
883.01	22649
883.136	22668
883.262	22626
883.388	22634
883.514	22748
883.64	22668
883.766	22790
883.892	22447
884.018	22348
884.143	22500
884.269	22660
884.395	22459
884.52	22303
884.646	22238
884.772	22234
884.897	22196
885.023	22268
885.148	22497
885.274	22516
885.399	22341
885.524	22284
885.65	22333
885.775	22363
885.9	22196
886.025	22379
886.15	22375
886.275	22382
886.4	22223
886.525	22207
886.65	22234
886.775	22253
886.9	22500
887.025	22455
887.149	22051
887.274	22124
887.399	22162
887.523	21991
887.648	21880
887.773	22010
887.897	22234
888.021	22112
888.146	22067
888.27	22112
888.395	22166
888.519	22124
888.643	22192
888.767	22166
888.891	21911
889.015	21956
889.139	21854
889.263	21857
889.387	22006
889.511	22032
889.635	21968
889.759	21808
889.883	21774
890.006	21857
890.13	21876
890.254	21827
890.377	21694
890.501	21591
890.624	21542
890.748	21751
890.871	21504
890.995	21454
891.118	21313
891.241	21435
891.364	21393
891.488	21530
891.611	21397
891.734	21355
891.857	21408
891.98	21401
892.103	21629
892.226	21306
892.349	21340
892.471	21074
892.594	21294
892.717	21321
892.839	21245
892.962	21237
893.085	21397
893.207	21203
893.33	21245
893.452	21135
893.575	21313
893.697	21249
893.819	21504
893.941	21542
894.064	21386
894.186	21116
894.308	21176
894.43	21298
894.552	21511
894.674	21351
894.796	21165
894.918	21214
895.04	21127
895.161	21310
895.283	21298
895.405	21237
895.526	21252
895.648	21188
895.769	21249
895.891	21424
896.012	21473
896.134	21313
896.255	21287
896.376	21294
896.498	21207
896.619	21233
896.74	21176
896.861	21287
896.982	21500
897.103	21583
897.224	21488
897.345	21583
897.466	21454
897.587	21481
897.708	21488
897.828	21443
897.949	21412
898.07	21233
898.19	21359
898.311	21443
898.431	21454
898.552	21435
898.672	21545
898.792	21462
898.913	21473
899.033	21260
899.153	21169
899.273	21157
899.393	21146
899.513	21291
899.633	21268
899.753	21214
899.873	21180
899.993	21146
900.113	21096
900.232	21199
900.352	21180
900.472	20902
900.591	20941
900.711	20963
900.83	20899
900.95	21051
901.069	21081
901.189	20960
901.308	20507
901.427	20355
901.546	20454
901.665	20518
901.784	20556
901.904	20278
902.023	20298
902.141	20088
902.26	19955
902.379	20168
902.498	19970
902.617	19909
902.735	19970
902.854	19928
902.973	19799
903.091	19746
903.21	19658
903.328	19624
903.446	19491
903.565	19544
903.683	19514
903.801	19373
903.919	19540
904.038	19411
904.156	19133
904.274	19301
904.392	19183
904.51	19129
904.627	19225
904.745	19168
904.863	19247
904.981	19004
905.098	18890
905.216	18783
905.334	18928
905.451	18920
905.569	18878
905.686	19000
905.803	18894
905.921	18654
906.038	18779
906.155	18722
906.272	18521
906.389	18582
906.506	18330
906.623	18429
906.74	18350
906.857	18319
906.974	18266
907.091	18407
907.208	18464
907.324	18452
907.441	18327
907.557	18167
907.674	18110
907.79	17996
907.907	18041
908.023	18163
908.139	18133
908.256	18083
908.372	17965
908.488	18015
908.604	17874
908.72	17832
908.836	17821
908.952	17794
909.068	17798
909.184	17961
909.3	17802
909.415	17836
909.531	17859
909.647	17573
909.762	17551
909.878	17478
909.993	17520
910.108	17459
910.224	17341
910.339	17532
910.454	17414
910.57	17269
910.685	17269
910.8	17558
910.915	17433
911.03	17372
911.145	17140
911.259	17033
911.374	17075
911.489	16987
911.604	16877
911.718	16877
911.833	16824
911.947	16774
912.062	16687
912.176	16854
912.291	16839
912.405	16877
912.519	16999
912.633	17010
912.748	16919
912.862	16748
912.976	16653
913.09	16645
913.204	16573
913.318	16675
913.431	16645
913.545	16683
913.659	16820
913.772	16626
913.886	16371
914	16424
914.113	16535
914.226	16440
914.34	16382
914.453	16249
914.566	16424
914.68	16306
914.793	16341
914.906	16124
915.019	16051
915.132	15838
915.245	15926
915.358	16032
915.47	16063
915.583	15899
915.696	16013
915.809	16105
915.921	16105
916.034	15892
916.146	15892
916.259	15857
916.371	15972
916.483	15876
916.595	15812
916.708	15804
916.82	15895
916.932	15705
917.044	15656
917.156	15751
917.268	15587
917.38	15667
917.491	15675
917.603	15644
917.715	15637
917.826	15625
917.938	15637
918.049	15367
918.161	15507
918.272	15641
918.384	15751
918.495	15538
918.606	15477
918.717	15393
918.828	15435
918.939	15393
919.05	15245
919.161	15249
919.272	15119
919.383	15264
919.494	15450
919.604	15542
919.715	15291
919.826	15184
919.936	15256
920.047	15412
920.157	15272
920.267	15454
920.378	15329
920.488	15302
920.598	15424
920.708	15614
920.818	15355
920.928	15443
921.038	15625
921.148	15511
921.258	15298
921.368	15157
921.477	14994
921.587	14952
921.697	14895
921.806	15112
921.916	14895
922.025	14667
922.134	14663
922.244	14659
922.353	14670
922.462	14511
922.571	14351
922.68	14286
922.789	14324
922.898	14343
923.007	14183
923.116	14339
923.224	14282
923.333	14221
923.442	14134
923.55	14039
923.659	14172
923.767	14199
923.876	14012
923.984	14119
924.092	14020
924.201	14077
924.309	14046
924.417	13928
924.525	14001
924.633	13909
924.741	14876
924.849	13674
924.956	13784
925.064	13753
925.172	13708
925.279	13658
925.387	13670
925.494	13616
925.602	13769
925.709	13738
925.816	13529
925.924	13601
926.031	13670
926.138	13483
926.245	13666
926.352	13571
926.459	13525
926.566	13655
926.673	13594
926.779	13434
926.886	13308
926.993	13320
927.099	13251
927.206	13122
927.312	13217
927.419	13228
927.525	13247
927.631	13187
927.737	13118
927.843	13023
927.95	12970
928.056	13084
928.162	12981
928.267	13099
928.373	13715
928.479	13091
928.585	12825
928.69	12935
928.796	13069
928.901	12821
929.007	12829
929.112	12810
929.218	12886
929.323	12722
929.428	12665
929.533	12909
929.638	12608
929.743	12639
929.848	12745
929.953	12654
930.058	12536
930.163	12315
930.267	12403
930.372	12540
930.477	12410
930.581	12513
930.685	12357
930.79	12213
930.894	12304
930.998	12258
931.103	12418
931.207	12007
931.311	11961
931.415	11836
931.519	11703
931.623	11684
