Data from test_V78500241_539.txt Node
Date: Fri Mar 25 15:45:32 CST 2022
User: usil
Spectrometer: V785-0024
Trigger mode: 0
Integration Time (sec): 4.000000E-1
Scans to average: 1
Nonlinearity correction enabled: false
Boxcar width: 0
Storing dark spectrum: false
XAxis mode: Wavelengths
Number of Pixels in Spectrum: 1024
>>>>>Begin Spectral Data<<<<<
801.071	27797
801.214	27812
801.356	27458
801.499	27374
801.641	27230
801.783	27492
801.926	27401
802.068	27313
802.211	27275
802.353	27226
802.496	26933
802.638	27131
802.78	27100
802.923	26925
803.065	26990
803.208	26842
803.35	27043
803.492	26948
803.635	27169
803.777	27138
803.919	27131
804.061	27435
804.204	27233
804.346	27096
804.488	27203
804.63	27089
804.773	27127
804.915	27154
805.057	27176
805.199	27089
805.341	27211
805.483	27214
805.626	27184
805.768	27214
805.91	27374
806.052	27165
806.194	27138
806.336	27443
806.478	27260
806.62	27241
806.762	27462
806.904	27408
807.046	27732
807.188	27679
807.33	27656
807.472	27812
807.614	27656
807.756	27614
807.898	27610
808.04	27530
808.182	27481
808.324	27641
808.465	27568
808.607	27686
808.749	27785
808.891	27876
809.033	28086
809.174	28048
809.316	28048
809.458	27998
809.6	28017
809.741	27907
809.883	28067
810.025	28166
810.166	28230
810.308	28032
810.45	28051
810.591	28101
810.733	27975
810.875	27937
811.016	27895
811.158	27755
811.299	27953
811.441	28044
811.582	28097
811.724	27994
811.865	27743
812.007	27922
812.148	27922
812.29	27869
812.431	28124
812.573	28082
812.714	28348
812.855	28531
812.997	28554
813.138	28607
813.279	28535
813.421	28413
813.562	28352
813.703	28226
813.845	28196
813.986	27774
814.127	27774
814.268	27549
814.41	27694
814.551	27447
814.692	27625
814.833	27477
814.974	27652
815.115	27511
815.256	27397
815.397	27496
815.539	27408
815.68	27348
815.821	27329
815.962	27306
816.103	27351
816.244	27370
816.385	27108
816.526	27123
816.666	27085
816.807	26902
816.948	26933
817.089	27036
817.23	26910
817.371	26861
817.512	26785
817.653	26819
817.793	26857
817.934	26804
818.075	26788
818.216	26887
818.356	26883
818.497	26743
818.638	26651
818.778	26720
818.919	26583
819.06	26598
819.2	26655
819.341	26788
819.481	26830
819.622	26940
819.762	27230
819.903	27081
820.043	26998
820.184	27028
820.324	26948
820.465	26960
820.605	27039
820.746	26910
820.886	26819
821.026	26906
821.167	26838
821.307	26937
821.447	26762
821.588	26899
821.728	26708
821.868	26590
822.008	26396
822.149	26404
822.289	26351
822.429	26107
822.569	26054
822.709	25986
822.849	25814
822.99	25761
823.13	25871
823.27	25731
823.41	25567
823.55	25567
823.69	25578
823.83	25655
823.97	25510
824.11	25362
824.25	25476
824.389	25388
824.529	25434
824.669	25506
824.809	25620
824.949	25559
825.089	25563
825.228	25525
825.368	25209
825.508	25324
825.648	25377
825.787	25369
825.927	25403
826.067	25324
826.206	25266
826.346	25289
826.485	25468
826.625	25339
826.765	25502
826.904	25232
827.044	25110
827.183	25046
827.323	24992
827.462	25065
827.601	25034
827.741	24909
827.88	25110
828.02	24901
828.159	25046
828.298	25072
828.437	24992
828.577	25004
828.716	25175
828.855	25012
828.994	24620
829.134	24894
829.273	24798
829.412	24703
829.551	24578
829.69	24810
829.829	24734
829.968	24829
830.107	24802
830.246	24585
830.385	24612
830.524	24703
830.663	24426
830.802	24441
830.941	24338
831.08	24289
831.219	24372
831.357	24471
831.496	24521
831.635	24391
831.774	24350
831.913	24129
832.051	24136
832.19	24148
832.329	24190
832.467	23961
832.606	24110
832.744	23977
832.883	23897
833.022	23969
833.16	24038
833.299	23904
833.437	24041
833.576	23999
833.714	24053
833.852	24148
833.991	24041
834.129	24045
834.267	24125
834.406	24068
834.544	24068
834.682	24201
834.821	24076
834.959	24235
835.097	24015
835.235	24125
835.373	24079
835.511	23992
835.65	23916
835.788	23946
835.926	23832
836.064	23687
836.202	23699
836.34	23973
836.478	24003
836.615	23855
836.753	23912
836.891	23950
837.029	24011
837.167	23840
837.305	23824
837.443	23707
837.58	23828
837.718	23748
837.856	23863
837.993	23657
838.131	23718
838.269	23543
838.406	23562
838.544	23604
838.681	23455
838.819	23398
838.956	23212
839.094	23223
839.231	23155
839.369	23402
839.506	23714
839.643	23562
839.781	23189
839.918	23086
840.055	23315
840.193	23235
840.33	23018
840.467	23117
840.604	23231
840.742	23414
840.879	22999
841.016	23075
841.153	23041
841.29	23337
841.427	23254
841.564	23181
841.701	23178
841.838	23060
841.975	22953
842.112	23083
842.249	22957
842.385	22953
842.522	23117
842.659	23029
842.796	22953
842.933	22908
843.069	22835
843.206	22911
843.343	22889
843.479	22809
843.616	22858
843.752	22607
843.889	22622
844.025	22679
844.162	22580
844.298	22797
844.435	22702
844.571	22713
844.708	22687
844.844	22843
844.98	22668
845.117	22801
845.253	22565
845.389	22611
845.525	22634
845.661	22390
845.798	22363
845.934	22535
846.07	22234
846.206	22398
846.342	22584
846.478	22417
846.614	22131
846.75	22169
846.886	22032
847.022	22143
847.158	22223
847.294	22147
847.429	22051
847.565	22188
847.701	22261
847.837	21869
847.972	21899
848.108	21937
848.244	21903
848.379	21762
848.515	21660
848.65	21701
848.786	21629
848.921	21755
849.057	21785
849.192	21751
849.328	21751
849.463	21690
849.598	21698
849.734	21667
849.869	21504
850.004	21374
850.14	21443
850.275	21515
850.41	21351
850.545	21469
850.68	21405
850.815	21412
850.95	21447
851.085	21717
851.22	21523
851.355	21466
851.49	21481
851.625	21420
851.76	21515
851.895	21473
852.03	21397
852.165	21454
852.299	21496
852.434	21545
852.569	21431
852.703	21469
852.838	21606
852.973	21557
853.107	21572
853.242	21336
853.376	21378
853.511	21268
853.645	21313
853.78	21329
853.914	21283
854.048	21180
854.183	21237
854.317	21275
854.451	21530
854.585	21256
854.72	21310
854.854	21340
854.988	21233
855.122	21279
855.256	21127
855.39	21351
855.524	21363
855.658	21298
855.792	21249
855.926	21272
856.06	21336
856.194	21325
856.327	21275
856.461	21233
856.595	21195
856.729	21245
856.862	21576
856.996	21367
857.13	21355
857.263	21447
857.397	21313
857.53	21336
857.664	21382
857.797	21545
857.931	21420
858.064	21218
858.197	21351
858.331	21291
858.464	21252
858.597	21188
858.731	21329
858.864	21218
858.997	21165
859.13	21256
859.263	21272
859.396	21348
859.529	21188
859.662	21104
859.795	21195
859.928	21207
860.061	21412
860.194	21462
860.327	21332
860.46	21306
860.592	21477
860.725	21466
860.858	21450
860.99	21275
861.123	21211
861.256	21260
861.388	21348
861.521	21907
861.653	21252
861.786	21085
861.918	21100
862.05	21161
862.183	21211
862.315	21123
862.447	21203
862.58	21100
862.712	21051
862.844	20998
862.976	21036
863.108	21066
863.24	21568
863.372	20792
863.504	21066
863.636	20979
863.768	21009
863.9	20994
864.032	20921
864.164	20918
864.296	20941
864.428	21199
864.559	21093
864.691	21108
864.823	20963
864.954	21058
865.086	21009
865.217	20895
865.349	20811
865.48	21024
865.612	20830
865.743	20956
865.875	20883
866.006	20826
866.137	20868
866.269	20933
866.4	20899
866.531	20602
866.662	20811
866.793	20842
866.924	20842
867.055	20910
867.186	20842
867.317	20823
867.448	20754
867.579	20765
867.71	20754
867.841	20750
867.972	20887
868.103	20796
868.233	20880
868.364	20906
868.495	20883
868.625	21081
868.756	21154
868.886	21009
869.017	21089
869.147	21081
869.278	21252
869.408	21001
869.539	21036
869.669	21245
869.799	21127
869.929	21195
870.06	21146
870.19	21454
870.32	21359
870.45	21279
870.58	21382
870.71	21496
870.84	21587
870.97	21397
871.1	21374
871.23	21667
871.36	21690
871.489	21557
871.619	21679
871.749	21694
871.879	21720
872.008	21831
872.138	21720
872.267	21641
872.397	21629
872.526	21473
872.656	21549
872.785	21466
872.915	21751
873.044	21698
873.173	21739
873.303	21728
873.432	21713
873.561	21911
873.69	21709
873.819	21717
873.948	21694
874.077	21671
874.206	21717
874.335	21656
874.464	21656
874.593	21975
874.722	21804
874.851	21983
874.979	21953
875.108	21880
875.237	21907
875.365	21956
875.494	21804
875.623	21968
875.751	21987
875.88	21797
876.008	22078
876.136	22112
876.265	22356
876.393	22485
876.521	22322
876.65	22375
876.778	22280
876.906	22306
877.034	22299
877.162	22287
877.29	22139
877.418	22219
877.546	22322
877.674	22219
877.802	22367
877.93	22238
878.058	22280
878.185	22204
878.313	22188
878.441	22162
878.568	22078
878.696	22238
878.824	22386
878.951	22246
879.079	22455
879.206	22531
879.333	22371
879.461	22284
879.588	22356
879.715	22550
879.842	22592
879.97	22341
880.097	22013
880.224	21991
880.351	22143
880.478	22048
880.605	22082
880.732	22021
880.859	22325
880.986	22139
881.112	22090
881.239	22006
881.366	21956
881.493	21816
881.619	21766
881.746	21698
881.872	21762
881.999	21667
882.125	21656
882.252	21739
882.378	21610
882.505	21816
882.631	21572
882.757	21321
882.883	21576
883.01	21405
883.136	21241
883.262	21154
883.388	21218
883.514	21306
883.64	21511
883.766	21252
883.892	21203
884.018	21150
884.143	21127
884.269	21359
884.395	21066
884.52	21039
884.646	21074
884.772	20902
884.897	20910
885.023	21032
885.148	21142
885.274	21077
885.399	21074
885.524	20971
885.65	20921
885.775	21058
885.9	20933
886.025	21188
886.15	21051
886.275	20887
886.4	20979
886.525	20910
886.65	20834
886.775	20941
886.9	21157
887.025	21173
887.149	20914
887.274	20792
887.399	20750
887.523	20765
887.648	20720
887.773	20568
887.897	20819
888.021	20895
888.146	20773
888.27	20823
888.395	20842
888.519	20826
888.643	20830
888.767	20880
888.891	20632
889.015	20632
889.139	20484
889.263	20549
889.387	20792
889.511	20785
889.635	20754
889.759	20568
889.883	20629
890.006	20739
890.13	20640
890.254	20511
890.377	20556
890.501	20347
890.624	20233
890.748	20278
890.871	20263
890.995	20263
891.118	20107
891.241	20214
891.364	20263
891.488	20244
891.611	20035
891.734	20225
891.857	20278
891.98	20092
892.103	20195
892.226	20218
892.349	20142
892.471	19989
892.594	20012
892.717	20077
892.839	19921
892.962	20111
893.085	20176
893.207	20065
893.33	20058
893.452	20084
893.575	20195
893.697	20119
893.819	20130
893.941	20233
894.064	20214
894.186	20039
894.308	19986
894.43	20111
894.552	20339
894.674	20180
894.796	20012
894.918	20020
895.04	19940
895.161	20210
895.283	20134
895.405	20027
895.526	20115
895.648	20126
895.769	20153
895.891	20126
896.012	20164
896.134	20107
896.255	20210
896.376	20119
896.498	20180
896.619	20107
896.74	19967
896.861	20088
896.982	20366
897.103	20514
897.224	20412
897.345	20324
897.466	20195
897.587	20259
897.708	20427
897.828	20381
897.949	20305
898.07	20199
898.19	20259
898.311	20518
898.431	20240
898.552	20286
898.672	20347
898.792	20427
898.913	20290
899.033	20248
899.153	20103
899.273	20020
899.393	20027
899.513	20176
899.633	20111
899.753	19978
899.873	19917
899.993	20046
900.113	20031
900.232	20115
900.352	20100
900.472	19864
900.591	19807
900.711	19898
900.83	19791
900.95	19936
901.069	19932
901.189	19761
901.308	19480
901.427	19384
901.546	19415
901.665	19415
901.784	19552
901.904	19304
902.023	19114
902.141	19103
902.26	18981
902.379	19038
902.498	18993
902.617	18878
902.735	18943
902.854	18901
902.973	18753
903.091	18597
903.21	18608
903.328	18639
903.446	18429
903.565	18327
903.683	18361
903.801	18304
903.919	18391
904.038	18346
904.156	18152
904.274	18197
904.392	18140
904.51	18197
904.627	18190
904.745	18247
904.863	18266
904.981	17961
905.098	17828
905.216	17927
905.334	17767
905.451	17893
905.569	17817
905.686	17954
905.803	17912
905.921	17630
906.038	17760
906.155	17760
906.272	17592
906.389	17493
906.506	17368
906.623	17448
906.74	17391
906.857	17280
906.974	17337
907.091	17528
907.208	17562
907.324	17246
907.441	17261
907.557	17151
907.674	17067
907.79	17037
907.907	17098
908.023	17098
908.139	16968
908.256	16991
908.372	16991
908.488	16946
908.604	16873
908.72	16771
908.836	16835
908.952	16767
909.068	16873
909.184	16900
909.3	16919
909.415	16866
909.531	16820
909.647	16596
909.762	16504
909.878	16512
909.993	16535
910.108	16497
910.224	16508
910.339	16489
910.454	16470
910.57	16310
910.685	16226
910.8	16531
910.915	16432
911.03	16367
911.145	16139
911.259	16082
911.374	16181
911.489	16086
911.604	16086
911.718	15835
911.833	15888
911.947	15766
912.062	15770
912.176	15865
912.291	15827
912.405	15865
912.519	16063
912.633	16074
912.748	15865
912.862	15831
912.976	15759
913.09	15572
913.204	15724
913.318	15648
913.431	15717
913.545	15831
913.659	15755
913.772	15557
913.886	15534
914	15401
914.113	15500
914.226	15610
914.34	15526
914.453	15370
914.566	15584
914.68	15336
914.793	15408
914.906	15245
915.019	15047
915.132	15047
915.245	15001
915.358	15070
915.47	15047
915.583	15119
915.696	15097
915.809	15249
915.921	15211
916.034	15055
916.146	15001
916.259	14971
916.371	15097
916.483	15028
916.595	15009
916.708	14952
916.82	14891
916.932	14864
917.044	14979
917.156	14853
917.268	14781
917.38	14834
917.491	14834
917.603	14868
917.715	14910
917.826	14845
917.938	14731
918.049	14530
918.161	14777
918.272	14796
918.384	14864
918.495	14697
918.606	14568
918.717	14446
918.828	14560
918.939	14549
919.05	14488
919.161	14488
919.272	14339
919.383	14389
919.494	14579
919.604	14644
919.715	14537
919.826	14488
919.936	14484
920.047	14522
920.157	14514
920.267	14701
920.378	14396
920.488	14404
920.598	14636
920.708	14697
920.818	14610
920.928	14575
921.038	14842
921.148	14769
921.258	14400
921.368	14362
921.477	14317
921.587	14195
921.697	14123
921.806	14153
921.916	14081
922.025	13944
922.134	13860
922.244	13868
922.353	13982
922.462	13704
922.571	13708
922.68	13460
922.789	13464
922.898	13677
923.007	13438
923.116	13636
923.224	13468
923.333	13434
923.442	13362
923.55	13343
923.659	13384
923.767	13373
923.876	13247
923.984	13285
924.092	13282
924.201	13213
924.309	13236
924.417	13145
924.525	13103
924.633	13137
924.741	13826
924.849	12939
924.956	13057
925.064	12993
925.172	12890
925.279	12852
925.387	12935
925.494	12977
925.602	13084
925.709	13015
925.816	12764
925.924	12848
926.031	13000
926.138	12875
926.245	12939
926.352	12791
926.459	12886
926.566	12890
926.673	12867
926.779	12707
926.886	12665
926.993	12490
927.099	12475
927.206	12410
927.312	12429
927.419	12528
927.525	12464
927.631	12483
927.737	12304
927.843	12350
927.95	12216
928.056	12342
928.162	12258
928.267	12342
928.373	12916
928.479	12372
928.585	12182
928.69	12239
928.796	12285
928.901	12273
929.007	12053
929.112	12235
929.218	12129
929.323	12068
929.428	12034
929.533	12136
929.638	11935
929.743	11923
929.848	12057
929.953	11984
930.058	11874
930.163	11703
930.267	11832
930.372	11863
930.477	11737
930.581	11817
930.685	11821
930.79	11634
930.894	11653
930.998	11570
931.103	11760
931.207	11372
931.311	11326
931.415	11296
931.519	11029
931.623	10987
