Data from test_V78500241_553.txt Node
Date: Fri Mar 25 15:45:37 CST 2022
User: usil
Spectrometer: V785-0024
Trigger mode: 0
Integration Time (sec): 4.000000E-1
Scans to average: 1
Nonlinearity correction enabled: false
Boxcar width: 0
Storing dark spectrum: false
XAxis mode: Wavelengths
Number of Pixels in Spectrum: 1024
>>>>>Begin Spectral Data<<<<<
801.071	27355
801.214	27256
801.356	27051
801.499	26960
801.641	26948
801.783	26815
801.926	26887
802.068	26895
802.211	26686
802.353	26701
802.496	26533
802.638	26423
802.78	26469
802.923	26499
803.065	26404
803.208	26507
803.35	26571
803.492	26495
803.635	26579
803.777	26476
803.919	26655
804.061	26823
804.204	26746
804.346	26568
804.488	26598
804.63	26815
804.773	26526
804.915	26697
805.057	26720
805.199	26754
805.341	26549
805.483	26727
805.626	26727
805.768	26743
805.91	26819
806.052	26682
806.194	26693
806.336	26906
806.478	26853
806.62	26743
806.762	26872
806.904	26990
807.046	27367
807.188	27154
807.33	27161
807.472	27268
807.614	27135
807.756	27070
807.898	27066
808.04	26998
808.182	26963
808.324	26933
808.465	27093
808.607	27233
808.749	27408
808.891	27523
809.033	27431
809.174	27580
809.316	27374
809.458	27412
809.6	27287
809.741	27583
809.883	27717
810.025	27694
810.166	27789
810.308	27500
810.45	27656
810.591	27739
810.733	27393
810.875	27401
811.016	27310
811.158	27272
811.299	27481
811.441	27469
811.582	27515
811.724	27477
811.865	27332
812.007	27260
812.148	27431
812.29	27302
812.431	27591
812.573	27724
812.714	27751
812.855	27941
812.997	27956
813.138	28097
813.279	28074
813.421	27838
813.562	27869
813.703	27698
813.845	27679
813.986	27367
814.127	27252
814.268	27074
814.41	27077
814.551	27085
814.692	27043
814.833	27055
814.974	26933
815.115	27089
815.256	26807
815.397	26940
815.539	27001
815.68	26914
815.821	26785
815.962	26792
816.103	26693
816.244	26621
816.385	26556
816.526	26579
816.666	26332
816.807	26252
816.948	26492
817.089	26427
817.23	26370
817.371	26317
817.512	26343
817.653	26225
817.793	26256
817.934	26161
818.075	26339
818.216	26358
818.356	26320
818.497	26088
818.638	25913
818.778	26100
818.919	26039
819.06	26164
819.2	26122
819.341	26206
819.481	26286
819.622	26431
819.762	26651
819.903	26621
820.043	26499
820.184	26469
820.324	26336
820.465	26511
820.605	26556
820.746	26396
820.886	26206
821.026	26396
821.167	26294
821.307	26328
821.447	26275
821.588	26164
821.728	26157
821.868	25936
822.008	25788
822.149	25795
822.289	25704
822.429	25582
822.569	25518
822.709	25613
822.849	25343
822.99	25335
823.13	25236
823.27	25171
823.41	25065
823.55	25065
823.69	25076
823.83	25095
823.97	25057
824.11	24882
824.25	24863
824.389	24966
824.529	24901
824.669	24840
824.809	25042
824.949	25076
825.089	24935
825.228	24962
825.368	24783
825.508	24646
825.648	24700
825.787	24696
825.927	24821
826.067	24867
826.206	24711
826.346	24840
826.485	24856
826.625	24760
826.765	24863
826.904	24806
827.044	24429
827.183	24544
827.323	24479
827.462	24357
827.601	24525
827.741	24582
827.88	24380
828.02	24338
828.159	24475
828.298	24361
828.437	24513
828.577	24407
828.716	24490
828.855	24426
828.994	24102
829.134	24285
829.273	24190
829.412	24129
829.551	24045
829.69	24216
829.829	24095
829.968	24254
830.107	24281
830.246	24102
830.385	24228
830.524	24034
830.663	24034
830.802	23851
830.941	23847
831.08	23695
831.219	24057
831.357	23851
831.496	24182
831.635	23767
831.774	23748
831.913	23665
832.051	23463
832.19	23520
832.329	23493
832.467	23379
832.606	23417
832.744	23406
832.883	23429
833.022	23497
833.16	23414
833.299	23463
833.437	23551
833.576	23562
833.714	23531
833.852	23589
833.991	23623
834.129	23482
834.267	23592
834.406	23474
834.544	23478
834.682	23452
834.821	23414
834.959	23752
835.097	23520
835.235	23585
835.373	23554
835.511	23444
835.65	23235
835.788	23421
835.926	23090
836.064	23052
836.202	23128
836.34	23337
836.478	23269
836.615	23322
836.753	23417
836.891	23436
837.029	23471
837.167	23197
837.305	23265
837.443	23147
837.58	23337
837.718	23239
837.856	23318
837.993	23117
838.131	23261
838.269	22991
838.406	22980
838.544	22949
838.681	22831
838.819	22812
838.956	22618
839.094	22653
839.231	22694
839.369	22752
839.506	22976
839.643	22961
839.781	22740
839.918	22592
840.055	22675
840.193	22653
840.33	22618
840.467	22493
840.604	22637
840.742	22862
840.879	22523
841.016	22618
841.153	22538
841.29	22615
841.427	22535
841.564	22531
841.701	22577
841.838	22538
841.975	22242
842.112	22516
842.249	22371
842.385	22352
842.522	22508
842.659	22287
842.796	22310
842.933	22394
843.069	22280
843.206	22200
843.343	22325
843.479	22219
843.616	22360
843.752	21979
843.889	22116
844.025	22291
844.162	21960
844.298	22116
844.435	22029
844.571	22109
844.708	22124
844.844	22234
844.98	22207
845.117	22131
845.253	22082
845.389	21922
845.525	22109
845.661	21960
845.798	21922
845.934	21728
846.07	21922
846.206	21937
846.342	21994
846.478	21838
846.614	21736
846.75	21500
846.886	21564
847.022	21633
847.158	21641
847.294	21561
847.429	21564
847.565	21485
847.701	21869
847.837	21363
847.972	21268
848.108	21447
848.244	21325
848.379	21230
848.515	21176
848.65	21214
848.786	21203
848.921	21233
849.057	21313
849.192	21302
849.328	21241
849.463	21176
849.598	21066
849.734	21127
849.869	20979
850.004	20979
850.14	21013
850.275	20952
850.41	20842
850.545	20883
850.68	20990
850.815	21009
850.95	21017
851.085	21085
851.22	20963
851.355	20899
851.49	20849
851.625	20902
851.76	20777
851.895	20842
852.03	21001
852.165	20921
852.299	20929
852.434	21066
852.569	21001
852.703	20921
852.838	20982
852.973	20948
853.107	20960
853.242	20849
853.376	20769
853.511	20583
853.645	20598
853.78	20963
853.914	20902
854.048	20819
854.183	20743
854.317	20807
854.451	20967
854.585	20815
854.72	20743
854.854	20788
854.988	20674
855.122	20758
855.256	20564
855.39	20629
855.524	20967
855.658	20811
855.792	20815
855.926	20796
856.06	20834
856.194	20880
856.327	20701
856.461	20655
856.595	20712
856.729	20655
856.862	20826
856.996	20762
857.13	20883
857.263	20925
857.397	20857
857.53	20686
857.664	20777
857.797	20777
857.931	20773
858.064	20823
858.197	20864
858.331	20720
858.464	20781
858.597	20651
858.731	20842
858.864	20743
858.997	20758
859.13	20648
859.263	20727
859.396	20880
859.529	20880
859.662	20587
859.795	20659
859.928	20765
860.061	20804
860.194	20979
860.327	20807
860.46	20777
860.592	20807
860.725	20731
860.858	20944
860.99	20682
861.123	20659
861.256	20708
861.388	20678
861.521	21424
861.653	20655
861.786	20499
861.918	20594
862.05	20613
862.183	20693
862.315	20811
862.447	20754
862.58	20762
862.712	20450
862.844	20457
862.976	20518
863.108	20541
863.24	20880
863.372	20484
863.504	20469
863.636	20393
863.768	20552
863.9	20400
864.032	20347
864.164	20393
864.296	20454
864.428	20549
864.559	20617
864.691	20556
864.823	20511
864.954	20507
865.086	20415
865.217	20393
865.349	20396
865.48	20305
865.612	20320
865.743	20526
865.875	20290
866.006	20400
866.137	20332
866.269	20256
866.4	20362
866.531	20324
866.662	20339
866.793	20298
866.924	20324
867.055	20221
867.186	20248
867.317	20298
867.448	20244
867.579	20172
867.71	20309
867.841	20248
867.972	20248
868.103	20412
868.233	20301
868.364	20385
868.495	20370
868.625	20549
868.756	20636
868.886	20396
869.017	20549
869.147	20621
869.278	20785
869.408	20564
869.539	20632
869.669	20549
869.799	20518
869.929	20568
870.06	20731
870.19	20838
870.32	20857
870.45	20929
870.58	20918
870.71	20941
870.84	21032
870.97	20986
871.1	21013
871.23	21165
871.36	21165
871.489	21085
871.619	21085
871.749	21123
871.879	21150
872.008	21214
872.138	21093
872.267	21176
872.397	21009
872.526	20963
872.656	21005
872.785	20967
872.915	21081
873.044	21233
873.173	21294
873.303	21096
873.432	21237
873.561	21279
873.69	21264
873.819	21135
873.948	21252
874.077	21154
874.206	21058
874.335	21192
874.464	21386
874.593	21469
874.722	21302
874.851	21378
874.979	21454
875.108	21424
875.237	21412
875.365	21386
875.494	21405
875.623	21462
875.751	21359
875.88	21397
876.008	21538
876.136	21686
876.265	21850
876.393	21930
876.521	21869
876.65	21903
876.778	21762
876.906	21671
877.034	21713
877.162	21724
877.29	21717
877.418	21724
877.546	21743
877.674	21873
877.802	21682
877.93	21797
878.058	21766
878.185	21713
878.313	21808
878.441	21656
878.568	21644
878.696	21667
878.824	21846
878.951	21751
879.079	21865
879.206	22154
879.333	22013
879.461	21816
879.588	21812
879.715	21884
879.842	22025
879.97	21808
880.097	21679
880.224	21511
880.351	21553
880.478	21663
880.605	21507
880.732	21488
880.859	21797
880.986	21603
881.112	21618
881.239	21412
881.366	21367
881.493	21279
881.619	21100
881.746	21127
881.872	21169
881.999	21211
882.125	21013
882.252	21135
882.378	21230
882.505	21329
882.631	21051
882.757	20975
882.883	20960
883.01	20861
883.136	20880
883.262	20804
883.388	20777
883.514	20876
883.64	20944
883.766	20788
883.892	20587
884.018	20659
884.143	20864
884.269	20872
884.395	20632
884.52	20613
884.646	20545
884.772	20495
884.897	20381
885.023	20556
885.148	20670
885.274	20765
885.399	20602
885.524	20533
885.65	20518
885.775	20541
885.9	20537
886.025	20530
886.15	20579
886.275	20655
886.4	20473
886.525	20484
886.65	20438
886.775	20385
886.9	20674
887.025	20651
887.149	20324
887.274	20229
887.399	20370
887.523	20271
887.648	20252
887.773	20240
887.897	20358
888.021	20339
888.146	20240
888.27	20400
888.395	20438
888.519	20324
888.643	20336
888.767	20233
888.891	20206
889.015	20020
889.139	20111
889.263	20081
889.387	20206
889.511	20358
889.635	20199
889.759	20119
889.883	20062
890.006	20164
890.13	20149
890.254	19928
890.377	20142
890.501	19906
890.624	19795
890.748	19993
890.871	19719
890.995	19689
891.118	19693
891.241	19586
891.364	19620
891.488	19845
891.611	19708
891.734	19723
891.857	19784
891.98	19704
892.103	19723
892.226	19742
892.349	19616
892.471	19457
892.594	19647
892.717	19525
892.839	19594
892.962	19559
893.085	19586
893.207	19597
893.33	19506
893.452	19548
893.575	19639
893.697	19540
893.819	19784
893.941	19795
894.064	19609
894.186	19506
894.308	19605
894.43	19788
894.552	19658
894.674	19655
894.796	19582
894.918	19613
895.04	19616
895.161	19647
895.283	19715
895.405	19624
895.526	19552
895.648	19567
895.769	19708
895.891	19620
896.012	19655
896.134	19613
896.255	19658
896.376	19613
896.498	19651
896.619	19620
896.74	19597
896.861	19742
896.982	19963
897.103	20073
897.224	19837
897.345	19833
897.466	19818
897.587	19909
897.708	19928
897.828	19894
897.949	19776
898.07	19700
898.19	19723
898.311	19807
898.431	19852
898.552	19742
898.672	19978
898.792	19811
898.913	19868
899.033	19765
899.153	19635
899.273	19719
899.393	19685
899.513	19556
899.633	19689
899.753	19594
899.873	19597
899.993	19632
900.113	19689
900.232	19571
900.352	19419
900.472	19324
900.591	19403
900.711	19499
900.83	19400
900.95	19430
901.069	19468
901.189	19247
901.308	18993
901.427	19027
901.546	19091
901.665	19137
901.784	19000
901.904	18859
902.023	18738
902.141	18517
902.26	18547
902.379	18528
902.498	18570
902.617	18612
902.735	18483
902.854	18467
902.973	18365
903.091	18171
903.21	18133
903.328	18106
903.446	18053
903.565	17969
903.683	17992
903.801	17824
903.919	17931
904.038	17821
904.156	17805
904.274	17741
904.392	17733
904.51	17821
904.627	17707
904.745	17794
904.863	17847
904.981	17417
905.098	17490
905.216	17364
905.334	17478
905.451	17387
905.569	17482
905.686	17474
905.803	17356
905.921	17227
906.038	17315
906.155	17299
906.272	17109
906.389	17159
906.506	16984
906.623	16999
906.74	16976
906.857	16873
906.974	16831
907.091	17014
907.208	17052
907.324	16949
907.441	16858
907.557	16771
907.674	16721
907.79	16596
907.907	16626
908.023	16660
908.139	16679
908.256	16660
908.372	16474
908.488	16542
908.604	16443
908.72	16386
908.836	16360
908.952	16459
909.068	16428
909.184	16542
909.3	16363
909.415	16436
909.531	16417
909.647	16173
909.762	15987
909.878	16112
909.993	16188
910.108	16067
910.224	16055
910.339	16090
910.454	15975
910.57	15991
910.685	15876
910.8	16139
910.915	16090
911.03	15895
911.145	15682
911.259	15618
911.374	15739
911.489	15587
911.604	15447
911.718	15450
911.833	15481
911.947	15450
912.062	15294
912.176	15561
912.291	15481
912.405	15454
912.519	15660
912.633	15568
912.748	15458
912.862	15481
912.976	15291
913.09	15260
913.204	15252
913.318	15325
913.431	15294
913.545	15401
913.659	15359
913.772	15256
913.886	15150
914	15138
914.113	15085
914.226	15150
914.34	15100
914.453	14982
914.566	15104
914.68	15039
914.793	14952
914.906	14849
915.019	14743
915.132	14716
915.245	14693
915.358	14708
915.47	14651
915.583	14610
915.696	14830
915.809	14883
915.921	14849
916.034	14735
916.146	14552
916.259	14560
916.371	14655
916.483	14625
916.595	14579
916.708	14598
916.82	14522
916.932	14396
917.044	14530
917.156	14495
917.268	14377
917.38	14377
917.491	14393
917.603	14480
917.715	14423
917.826	14473
917.938	14366
918.049	14225
918.161	14225
918.272	14480
918.384	14503
918.495	14351
918.606	14115
918.717	14016
918.828	14240
918.939	14149
919.05	14031
919.161	14199
919.272	13970
919.383	14123
919.494	14195
919.604	14336
919.715	14248
919.826	14005
919.936	13997
920.047	14244
920.157	14161
920.267	14259
920.378	14149
920.488	14062
920.598	14271
920.708	14484
920.818	14339
920.928	14195
921.038	14374
921.148	14370
921.258	14065
921.368	13986
921.477	13898
921.587	13852
921.697	13681
921.806	13898
921.916	13746
922.025	13567
922.134	13476
922.244	13422
922.353	13594
922.462	13434
922.571	13377
922.68	13198
922.789	13190
922.898	13244
923.007	13027
923.116	13225
923.224	13179
923.333	13050
923.442	13042
923.55	12973
923.659	12977
923.767	13023
923.876	12916
923.984	13015
924.092	12924
924.201	12973
924.309	12928
924.417	12905
924.525	12886
924.633	12886
924.741	13636
924.849	12639
924.956	12783
925.064	12757
925.172	12566
925.279	12639
925.387	12688
925.494	12589
925.602	12768
925.709	12662
925.816	12513
925.924	12604
926.031	12620
926.138	12506
926.245	12662
926.352	12467
926.459	12585
926.566	12620
926.673	12483
926.779	12407
926.886	12342
926.993	12243
927.099	12201
927.206	12190
927.312	12133
927.419	12201
927.525	12125
927.631	12216
927.737	12098
927.843	11980
927.95	11992
928.056	12060
928.162	11992
928.267	12030
928.373	12700
928.479	12129
928.585	11912
928.69	11961
928.796	12041
928.901	11893
929.007	11794
929.112	11904
929.218	11870
929.323	11809
929.428	11866
929.533	11840
929.638	11699
929.743	11722
929.848	11771
929.953	11714
930.058	11627
930.163	11474
930.267	11395
930.372	11543
930.477	11425
930.581	11642
930.685	11452
930.79	11406
930.894	11391
930.998	11273
931.103	11421
931.207	11117
931.311	11117
931.415	10900
931.519	10740
931.623	10805
