Data from test_V78500241_1936.txt Node
Date: Fri Mar 25 15:55:12 CST 2022
User: usil
Spectrometer: V785-0024
Trigger mode: 0
Integration Time (sec): 4.000000E-1
Scans to average: 1
Nonlinearity correction enabled: false
Boxcar width: 0
Storing dark spectrum: false
XAxis mode: Wavelengths
Number of Pixels in Spectrum: 1024
>>>>>Begin Spectral Data<<<<<
801.071	28538
801.214	28489
801.356	28291
801.499	28280
801.641	28192
801.783	28017
801.926	28105
802.068	28128
802.211	28082
802.353	27922
802.496	27880
802.638	27663
802.78	27857
802.923	27686
803.065	27755
803.208	27838
803.35	27701
803.492	28067
803.635	28078
803.777	27991
803.919	27960
804.061	28363
804.204	28207
804.346	28067
804.488	27926
804.63	27953
804.773	27972
804.915	28150
805.057	28166
805.199	28150
805.341	28192
805.483	28276
805.626	28238
805.768	28105
805.91	28150
806.052	28181
806.194	28044
806.336	28382
806.478	28181
806.62	28204
806.762	28379
806.904	28535
807.046	28656
807.188	28611
807.33	28641
807.472	28763
807.614	28542
807.756	28634
807.898	28459
808.04	28386
808.182	28531
808.324	28459
808.465	28497
808.607	28748
808.749	28938
808.891	28816
809.033	29098
809.174	28915
809.316	28862
809.458	28961
809.6	28923
809.741	29052
809.883	29010
810.025	29098
810.166	29265
810.308	29231
810.45	29170
810.591	29121
810.733	28839
810.875	28786
811.016	29064
811.158	28881
811.299	28919
811.441	29121
811.582	29041
811.724	28843
811.865	28995
812.007	28976
812.148	28915
812.29	28911
812.431	29010
812.573	29136
812.714	29326
812.855	29337
812.997	29493
813.138	29516
813.279	29543
813.421	29368
813.562	29417
813.703	29258
813.845	29102
813.986	28888
814.127	28649
814.268	28538
814.41	28615
814.551	28588
814.692	28713
814.833	28478
814.974	28588
815.115	28550
815.256	28531
815.397	28489
815.539	28360
815.68	28531
815.821	28386
815.962	28432
816.103	28421
816.244	28337
816.385	28116
816.526	28211
816.666	28036
816.807	27816
816.948	28090
817.089	27880
817.23	27854
817.371	27960
817.512	27983
817.653	27895
817.793	27846
817.934	27804
818.075	27842
818.216	27838
818.356	27747
818.497	27766
818.638	27576
818.778	27667
818.919	27732
819.06	27667
819.2	27781
819.341	27823
819.481	27876
819.622	28067
819.762	28219
819.903	28036
820.043	28181
820.184	27968
820.324	28166
820.465	28051
820.605	28067
820.746	28188
820.886	27869
821.026	28219
821.167	27937
821.307	27960
821.447	27808
821.588	27789
821.728	27641
821.868	27591
822.008	27481
822.149	27272
822.289	27348
822.429	27127
822.569	27127
822.709	27024
822.849	26864
822.99	26910
823.13	26853
823.27	26861
823.41	26712
823.55	26541
823.69	26792
823.83	26716
823.97	26648
824.11	26453
824.25	26450
824.389	26545
824.529	26552
824.669	26564
824.809	26606
824.949	26648
825.089	26583
825.228	26495
825.368	26412
825.508	26377
825.648	26556
825.787	26347
825.927	26488
826.067	26427
826.206	26351
826.346	26434
826.485	26377
826.625	26438
826.765	26552
826.904	26552
827.044	26069
827.183	26225
827.323	26039
827.462	26168
827.601	26328
827.741	26043
827.88	26138
828.02	25970
828.159	26142
828.298	26031
828.437	26122
828.577	26016
828.716	26248
828.855	26100
828.994	25780
829.134	25845
829.273	25814
829.412	25674
829.551	25715
829.69	25826
829.829	25856
829.968	25868
830.107	25780
830.246	25822
830.385	25750
830.524	25727
830.663	25609
830.802	25624
830.941	25270
831.08	25343
831.219	25331
831.357	25453
831.496	25620
831.635	25479
831.774	25236
831.913	25289
832.051	25152
832.19	25160
832.329	25091
832.467	25004
832.606	25190
832.744	24981
832.883	25076
833.022	25008
833.16	25042
833.299	25198
833.437	25042
833.576	25171
833.714	25034
833.852	25168
833.991	25156
834.129	25282
834.267	25183
834.406	25168
834.544	25343
834.682	25187
834.821	25076
834.959	25259
835.097	25038
835.235	25217
835.373	25114
835.511	25065
835.65	24943
835.788	24829
835.926	24878
836.064	24715
836.202	24848
836.34	24977
836.478	25091
836.615	24920
836.753	24989
836.891	25103
837.029	25069
837.167	24905
837.305	24814
837.443	24878
837.58	24779
837.718	24981
837.856	24795
837.993	24661
838.131	24753
838.269	24555
838.406	24688
838.544	24616
838.681	24505
838.819	24365
838.956	24251
839.094	24289
839.231	24292
839.369	24426
839.506	24616
839.643	24559
839.781	24292
839.918	24163
840.055	24292
840.193	24178
840.33	24186
840.467	24133
840.604	24262
840.742	24490
840.879	24098
841.016	24060
841.153	24148
841.29	24239
841.427	24174
841.564	24232
841.701	24148
841.838	24049
841.975	24121
842.112	23969
842.249	23996
842.385	23843
842.522	24011
842.659	24053
842.796	23843
842.933	23980
843.069	23935
843.206	23866
843.343	23958
843.479	23851
843.616	23973
843.752	23756
843.889	23767
844.025	23756
844.162	23551
844.298	23760
844.435	23714
844.571	23634
844.708	23630
844.844	23828
844.98	23832
845.117	23687
845.253	23604
845.389	23558
845.525	23649
845.661	23516
845.798	23425
845.934	23493
846.07	23398
846.206	23455
846.342	23490
846.478	23463
846.614	23170
846.75	22976
846.886	23022
847.022	23315
847.158	23113
847.294	23094
847.429	23121
847.565	23200
847.701	23246
847.837	22972
847.972	22805
848.108	22965
848.244	23022
848.379	22725
848.515	22653
848.65	22672
848.786	22702
848.921	22653
849.057	22862
849.192	22820
849.328	22698
849.463	22653
849.598	22755
849.734	22615
849.869	22577
850.004	22455
850.14	22588
850.275	22428
850.41	22352
850.545	22398
850.68	22451
850.815	22527
850.95	22382
851.085	22694
851.22	22725
851.355	22508
851.49	22550
851.625	22432
851.76	22375
851.895	22508
852.03	22394
852.165	22459
852.299	22466
852.434	22508
852.569	22485
852.703	22428
852.838	22565
852.973	22641
853.107	22599
853.242	22402
853.376	22322
853.511	22109
853.645	22188
853.78	22390
853.914	22379
854.048	22272
854.183	22257
854.317	22299
854.451	22561
854.585	22276
854.72	22291
854.854	22306
854.988	22173
855.122	22306
855.256	22196
855.39	22211
855.524	22375
855.658	22234
855.792	22447
855.926	22371
856.06	22379
856.194	22204
856.327	22329
856.461	22188
856.595	22166
856.729	22188
856.862	22318
856.996	22344
857.13	22344
857.263	22413
857.397	22443
857.53	22284
857.664	22398
857.797	22394
857.931	22390
858.064	22329
858.197	22462
858.331	22341
858.464	22173
858.597	22185
858.731	22246
858.864	22238
858.997	22337
859.13	22200
859.263	22242
859.396	22348
859.529	22192
859.662	22394
859.795	22303
859.928	22303
860.061	22394
860.194	22519
860.327	22367
860.46	22207
860.592	22523
860.725	22504
860.858	22443
860.99	22249
861.123	22211
861.256	22280
861.388	22398
861.521	22995
861.653	22215
861.786	22074
861.918	21964
862.05	22021
862.183	22158
862.315	22200
862.447	22207
862.58	22196
862.712	22055
862.844	21983
862.976	21994
863.108	22120
863.24	22531
863.372	21968
863.504	21972
863.636	21949
863.768	22013
863.9	21987
864.032	21869
864.164	21941
864.296	21930
864.428	22173
864.559	22063
864.691	22128
864.823	21941
864.954	21884
865.086	21972
865.217	21907
865.349	21865
865.48	21899
865.612	21895
865.743	22109
865.875	21873
866.006	21793
866.137	21926
866.269	21789
866.4	21850
866.531	21816
866.662	21701
866.793	21873
866.924	21873
867.055	21804
867.186	21816
867.317	21720
867.448	21800
867.579	21800
867.71	21648
867.841	21603
867.972	21743
868.103	21739
868.233	21827
868.364	21819
868.495	22048
868.625	21998
868.756	22154
868.886	22032
869.017	22082
869.147	22192
869.278	22078
869.408	22139
869.539	21987
869.669	22143
869.799	22029
869.929	22200
870.06	22169
870.19	22329
870.32	22344
870.45	22329
870.58	22424
870.71	22474
870.84	22519
870.97	22500
871.1	22466
871.23	22573
871.36	22603
871.489	22569
871.619	22622
871.749	22588
871.879	22675
872.008	22755
872.138	22691
872.267	22653
872.397	22481
872.526	22500
872.656	22481
872.785	22443
872.915	22580
873.044	22713
873.173	22656
873.303	22710
873.432	22645
873.561	22656
873.69	22675
873.819	22622
873.948	22763
874.077	22656
874.206	22542
874.335	22542
874.464	22831
874.593	22972
874.722	22991
874.851	22968
874.979	22869
875.108	22927
875.237	22710
875.365	22896
875.494	22980
875.623	22831
875.751	22938
875.88	22881
876.008	22991
876.136	23067
876.265	23258
876.393	23402
876.521	23208
876.65	23330
876.778	23330
876.906	23227
877.034	23178
877.162	23345
877.29	23094
877.418	23227
877.546	23223
877.674	23212
877.802	23227
877.93	23170
878.058	23166
878.185	23094
878.313	23227
878.441	23246
878.568	23083
878.696	23155
878.824	23254
878.951	23425
879.079	23448
879.206	23615
879.333	23463
879.461	23189
879.588	23094
879.715	23353
879.842	23554
879.97	23280
880.097	23094
880.224	23079
880.351	23033
880.478	23075
880.605	22987
880.732	22915
880.859	23364
880.986	23147
881.112	23010
881.239	22995
881.366	22801
881.493	22603
881.619	22603
881.746	22679
881.872	22630
881.999	22634
882.125	22630
882.252	22611
882.378	22500
882.505	22771
882.631	22382
882.757	22344
882.883	22333
883.01	22352
883.136	22158
883.262	22105
883.388	22120
883.514	22246
883.64	22204
883.766	22238
883.892	22025
884.018	22143
884.143	22204
884.269	22325
884.395	21876
884.52	21903
884.646	21876
884.772	21838
884.897	21865
885.023	21934
885.148	21953
885.274	22124
885.399	21922
885.524	21937
885.65	21895
885.775	21926
885.9	21949
886.025	22021
886.15	21926
886.275	21911
886.4	21865
886.525	21865
886.65	21895
886.775	21934
886.9	21960
887.025	22044
887.149	21907
887.274	21686
887.399	21618
887.523	21739
887.648	21755
887.773	21614
887.897	21675
888.021	21698
888.146	21625
888.27	21671
888.395	21895
888.519	21739
888.643	21770
888.767	21717
888.891	21469
889.015	21462
889.139	21667
889.263	21382
889.387	21622
889.511	21656
889.635	21572
889.759	21408
889.883	21591
890.006	21492
890.13	21629
890.254	21450
890.377	21443
890.501	21127
890.624	21119
890.748	21291
890.871	21013
890.995	21028
891.118	20925
891.241	21077
891.364	21142
891.488	21184
891.611	20921
891.734	21047
891.857	21108
891.98	20986
892.103	21062
892.226	20948
892.349	20914
892.471	20724
892.594	20868
892.717	20963
892.839	20891
892.962	20861
893.085	21047
893.207	20853
893.33	20785
893.452	20785
893.575	20982
893.697	20807
893.819	21036
893.941	21104
894.064	21047
894.186	20758
894.308	20792
894.43	20906
894.552	21077
894.674	20849
894.796	20712
894.918	20811
895.04	20902
895.161	20986
895.283	20914
895.405	20800
895.526	21047
895.648	20910
895.769	20948
895.891	20982
896.012	20990
896.134	20914
896.255	20845
896.376	20834
896.498	21013
896.619	20971
896.74	20937
896.861	20979
896.982	21245
897.103	21260
897.224	21230
897.345	21039
897.466	21112
897.587	21043
897.708	21329
897.828	21230
897.949	21055
898.07	20918
898.19	20982
898.311	21104
898.431	21138
898.552	21211
898.672	21165
898.792	21116
898.913	21085
899.033	20944
899.153	20906
899.273	20838
899.393	20906
899.513	20948
899.633	20800
899.753	20880
899.873	20758
899.993	20845
900.113	20762
900.232	20765
900.352	20651
900.472	20648
900.591	20613
900.711	20625
900.83	20530
900.95	20663
901.069	20617
901.189	20518
901.308	20263
901.427	20206
901.546	20237
901.665	20267
901.784	20240
901.904	20039
902.023	19978
902.141	19753
902.26	19719
902.379	19715
902.498	19700
902.617	19681
902.735	19662
902.854	19601
902.973	19605
903.091	19339
903.21	19320
903.328	19350
903.446	19354
903.565	19198
903.683	19046
903.801	18993
903.919	19027
904.038	19065
904.156	18875
904.274	18989
904.392	18882
904.51	18897
904.627	18863
904.745	18939
904.863	18901
904.981	18658
905.098	18722
905.216	18521
905.334	18528
905.451	18623
905.569	18574
905.686	18525
905.803	18513
905.921	18361
906.038	18372
906.155	18407
906.272	18239
906.389	18224
906.506	18121
906.623	18106
906.74	18064
906.857	17988
906.974	18034
907.091	18155
907.208	18171
907.324	18182
907.441	18053
907.557	17840
907.674	17710
907.79	17752
907.907	17798
908.023	17752
908.139	17832
908.256	17710
908.372	17737
908.488	17627
908.604	17611
908.72	17440
908.836	17505
908.952	17455
909.068	17653
909.184	17623
909.3	17501
909.415	17554
909.531	17482
909.647	17170
909.762	17311
909.878	17231
909.993	17166
910.108	17174
910.224	17071
910.339	17170
910.454	17025
910.57	17025
910.685	16885
910.8	17113
910.915	17212
911.03	16991
911.145	16797
911.259	16710
911.374	16812
911.489	16653
911.604	16713
911.718	16508
911.833	16618
911.947	16497
912.062	16322
912.176	16504
912.291	16500
912.405	16599
912.519	16729
912.633	16717
912.748	16611
912.862	16497
912.976	16352
913.09	16249
913.204	16367
913.318	16284
913.431	16436
913.545	16451
913.659	16462
913.772	16341
913.886	16097
914	16147
914.113	16185
914.226	16287
914.34	16211
914.453	16074
914.566	16200
914.68	16071
914.793	15895
914.906	15804
915.019	15736
915.132	15656
915.245	15705
915.358	15622
915.47	15713
915.583	15804
915.696	15694
915.809	15861
915.921	15816
916.034	15660
916.146	15557
916.259	15561
916.371	15728
916.483	15610
916.595	15698
916.708	15534
916.82	15576
916.932	15466
917.044	15473
917.156	15458
917.268	15310
917.38	15348
917.491	15332
917.603	15359
917.715	15428
917.826	15492
917.938	15241
918.049	15176
918.161	15192
918.272	15424
918.384	15428
918.495	15275
918.606	15203
918.717	14971
918.828	15127
918.939	15180
919.05	15001
919.161	15066
919.272	14891
919.383	14868
919.494	15157
919.604	15233
919.715	15104
919.826	14895
919.936	15009
920.047	15207
920.157	14876
920.267	15298
920.378	15074
920.488	14979
920.598	15291
920.708	15310
920.818	15123
920.928	15081
921.038	15287
921.148	15241
921.258	14979
921.368	14944
921.477	14804
921.587	14708
921.697	14579
921.806	14735
921.916	14686
922.025	14431
922.134	14419
922.244	14339
922.353	14434
922.462	14347
922.571	14172
922.68	14054
922.789	14016
922.898	14149
923.007	13989
923.116	14130
923.224	14069
923.333	14012
923.442	13902
923.55	13791
923.659	13898
923.767	13883
923.876	13799
923.984	13947
924.092	13814
924.201	13799
924.309	13700
924.417	13795
924.525	13632
924.633	13696
924.741	14640
924.849	13495
924.956	13582
925.064	13502
925.172	13335
925.279	13403
925.387	13365
925.494	13464
925.602	13567
925.709	13449
925.816	13282
925.924	13304
926.031	13491
926.138	13331
926.245	13415
926.352	13354
926.459	13362
926.566	13426
926.673	13274
926.779	13179
926.886	13110
926.993	12993
927.099	13057
927.206	12966
927.312	12867
927.419	12977
927.525	12863
927.631	13012
927.737	12817
927.843	12867
927.95	12760
928.056	12791
928.162	12852
928.267	12901
928.373	13373
928.479	12935
928.585	12623
928.69	12779
928.796	12783
928.901	12726
929.007	12483
929.112	12730
929.218	12547
929.323	12574
929.428	12486
929.533	12597
929.638	12384
929.743	12445
929.848	12521
929.953	12452
930.058	12369
930.163	12228
930.267	12266
930.372	12266
930.477	12197
930.581	12410
930.685	12190
930.79	12121
930.894	12117
930.998	12007
931.103	12197
931.207	11752
931.311	11767
931.415	11619
931.519	11486
931.623	11391
