Data from test_V78500241_1667.txt Node
Date: Fri Mar 25 15:53:20 CST 2022
User: usil
Spectrometer: V785-0024
Trigger mode: 0
Integration Time (sec): 4.000000E-1
Scans to average: 1
Nonlinearity correction enabled: false
Boxcar width: 0
Storing dark spectrum: false
XAxis mode: Wavelengths
Number of Pixels in Spectrum: 1024
>>>>>Begin Spectral Data<<<<<
801.071	28246
801.214	28215
801.356	27964
801.499	27922
801.641	27793
801.783	27876
801.926	27739
802.068	27686
802.211	27793
802.353	27603
802.496	27469
802.638	27367
802.78	27473
802.923	27443
803.065	27424
803.208	27534
803.35	27488
803.492	27637
803.635	27717
803.777	27633
803.919	27603
804.061	28010
804.204	27778
804.346	27682
804.488	27568
804.63	27747
804.773	27610
804.915	27660
805.057	27838
805.199	27774
805.341	27770
805.483	27850
805.626	27884
805.768	27755
805.91	27812
806.052	27956
806.194	27819
806.336	28051
806.478	27800
806.62	27739
806.762	27975
806.904	28139
807.046	28382
807.188	28356
807.33	28253
807.472	28333
807.614	28211
807.756	28116
807.898	28303
808.04	28067
808.182	28086
808.324	28074
808.465	28261
808.607	28329
808.749	28653
808.891	28607
809.033	28729
809.174	28580
809.316	28474
809.458	28508
809.6	28398
809.741	28565
809.883	28706
810.025	28812
810.166	28771
810.308	28740
810.45	28885
810.591	28793
810.733	28462
810.875	28459
811.016	28390
811.158	28508
811.299	28611
811.441	28721
811.582	28618
811.724	28550
811.865	28527
812.007	28504
812.148	28466
812.29	28569
812.431	28569
812.573	28900
812.714	28949
812.855	29025
812.997	29231
813.138	29345
813.279	29151
813.421	29151
813.562	28953
813.703	28771
813.845	28725
813.986	28470
814.127	28265
814.268	28257
814.41	28234
814.551	28333
814.692	28356
814.833	28181
814.974	28090
815.115	28120
815.256	28002
815.397	28207
815.539	28059
815.68	28021
815.821	28006
815.962	28074
816.103	28101
816.244	27934
816.385	27808
816.526	27671
816.666	27743
816.807	27431
816.948	27564
817.089	27648
817.23	27564
817.371	27485
817.512	27542
817.653	27485
817.793	27477
817.934	27412
818.075	27667
818.216	27599
818.356	27447
818.497	27344
818.638	27188
818.778	27264
818.919	27211
819.06	27294
819.2	27370
819.341	27759
819.481	27545
819.622	27819
819.762	27720
819.903	27835
820.043	27622
820.184	27682
820.324	27648
820.465	27789
820.605	27705
820.746	27766
820.886	27542
821.026	27572
821.167	27709
821.307	27595
821.447	27500
821.588	27424
821.728	27226
821.868	27013
822.008	27100
822.149	26975
822.289	26956
822.429	26697
822.569	26651
822.709	26674
822.849	26503
822.99	26552
823.13	26518
823.27	26336
823.41	26301
823.55	26294
823.69	26320
823.83	26240
823.97	26301
824.11	26134
824.25	26176
824.389	26153
824.529	26347
824.669	26107
824.809	26336
824.949	26328
825.089	26263
825.228	26218
825.368	25970
825.508	26088
825.648	26039
825.787	26073
825.927	26221
826.067	26069
826.206	25959
826.346	26027
826.485	26145
826.625	25963
826.765	26054
826.904	26111
827.044	25731
827.183	25814
827.323	25734
827.462	25715
827.601	25791
827.741	25681
827.88	25727
828.02	25548
828.159	25632
828.298	25594
828.437	25795
828.577	25655
828.716	25814
828.855	25613
828.994	25362
829.134	25403
829.273	25438
829.412	25324
829.551	25434
829.69	25388
829.829	25559
829.968	25521
830.107	25457
830.246	25335
830.385	25331
830.524	25179
830.663	25255
830.802	25122
830.941	25103
831.08	25114
831.219	24989
831.357	25232
831.496	25266
831.635	24939
831.774	24863
831.913	24863
832.051	24817
832.19	24779
832.329	24924
832.467	24787
832.606	24646
832.744	24665
832.883	24604
833.022	24574
833.16	24650
833.299	24665
833.437	24741
833.576	24882
833.714	24635
833.852	24677
833.991	24772
834.129	24856
834.267	24821
834.406	24817
834.544	24783
834.682	24703
834.821	24566
834.959	24932
835.097	24745
835.235	24715
835.373	24821
835.511	24692
835.65	24616
835.788	24589
835.926	24407
836.064	24414
836.202	24338
836.34	24490
836.478	24677
836.615	24418
836.753	24620
836.891	24574
837.029	24544
837.167	24505
837.305	24418
837.443	24502
837.58	24391
837.718	24429
837.856	24410
837.993	24391
838.131	24323
838.269	24410
838.406	24315
838.544	24190
838.681	24095
838.819	23923
838.956	23843
839.094	23935
839.231	23908
839.369	24015
839.506	24140
839.643	24136
839.781	23859
839.918	23779
840.055	23893
840.193	23920
840.33	23771
840.467	23878
840.604	23824
840.742	24091
840.879	23710
841.016	23649
841.153	23531
841.29	23802
841.427	23847
841.564	23737
841.701	23741
841.838	23897
841.975	23547
842.112	23733
842.249	23680
842.385	23448
842.522	23828
842.659	23589
842.796	23531
842.933	23535
843.069	23531
843.206	23459
843.343	23448
843.479	23524
843.616	23528
843.752	23337
843.889	23455
844.025	23421
844.162	23315
844.298	23349
844.435	23337
844.571	23326
844.708	23349
844.844	23421
844.98	23417
845.117	23421
845.253	23197
845.389	23064
845.525	23124
845.661	23094
845.798	22984
845.934	22991
846.07	23067
846.206	23143
846.342	23079
846.478	23022
846.614	22873
846.75	22706
846.886	22744
847.022	22972
847.158	22763
847.294	22824
847.429	22793
847.565	22816
847.701	23037
847.837	22622
847.972	22470
848.108	22615
848.244	22531
848.379	22474
848.515	22265
848.65	22310
848.786	22303
848.921	22166
849.057	22428
849.192	22538
849.328	22405
849.463	22291
849.598	22325
849.734	22303
849.869	22223
850.004	22131
850.14	22196
850.275	22150
850.41	22173
850.545	22097
850.68	22097
850.815	22249
850.95	22116
851.085	22314
851.22	22177
851.355	22067
851.49	22207
851.625	22078
851.76	22150
851.895	22128
852.03	22078
852.165	22219
852.299	22063
852.434	22185
852.569	22131
852.703	22131
852.838	22158
852.973	22234
853.107	22219
853.242	22109
853.376	21911
853.511	21994
853.645	21926
853.78	22055
853.914	22017
854.048	21899
854.183	22040
854.317	21964
854.451	22086
854.585	21934
854.72	22021
854.854	22040
854.988	21934
855.122	21987
855.256	21850
855.39	21937
855.524	21968
855.658	21876
855.792	21907
855.926	22021
856.06	22036
856.194	22036
856.327	21934
856.461	21800
856.595	21835
856.729	21911
856.862	22082
856.996	21934
857.13	21911
857.263	22051
857.397	22169
857.53	21975
857.664	21979
857.797	22093
857.931	22006
858.064	21975
858.197	22105
858.331	21827
858.464	21915
858.597	21907
858.731	21926
858.864	21987
858.997	21922
859.13	21926
859.263	21983
859.396	22051
859.529	21899
859.662	21930
859.795	21816
859.928	21953
860.061	21953
860.194	22162
860.327	21964
860.46	21968
860.592	22120
860.725	22074
860.858	22070
860.99	22029
861.123	21907
861.256	21960
861.388	21949
861.521	22634
861.653	21774
861.786	21717
861.918	21842
862.05	21911
862.183	21873
862.315	21968
862.447	21918
862.58	21800
862.712	21690
862.844	21648
862.976	21751
863.108	21793
863.24	22120
863.372	21599
863.504	21682
863.636	21637
863.768	21682
863.9	21698
864.032	21637
864.164	21728
864.296	21800
864.428	21915
864.559	21793
864.691	21751
864.823	21675
864.954	21709
865.086	21660
865.217	21633
865.349	21652
865.48	21583
865.612	21545
865.743	21698
865.875	21663
866.006	21416
866.137	21595
866.269	21564
866.4	21538
866.531	21606
866.662	21504
866.793	21431
866.924	21496
867.055	21526
867.186	21507
867.317	21317
867.448	21477
867.579	21469
867.71	21424
867.841	21526
867.972	21564
868.103	21538
868.233	21591
868.364	21545
868.495	21557
868.625	21648
868.756	21892
868.886	21709
869.017	21690
869.147	21972
869.278	21975
869.408	21785
869.539	21846
869.669	21816
869.799	21781
869.929	21808
870.06	21857
870.19	22063
870.32	22021
870.45	22109
870.58	22048
870.71	22200
870.84	22139
870.97	22097
871.1	22306
871.23	22284
871.36	22371
871.489	22337
871.619	22303
871.749	22261
871.879	22333
872.008	22413
872.138	22219
872.267	22398
872.397	22173
872.526	22112
872.656	22192
872.785	22230
872.915	22405
873.044	22428
873.173	22497
873.303	22424
873.432	22478
873.561	22394
873.69	22306
873.819	22314
873.948	22455
874.077	22284
874.206	22257
874.335	22295
874.464	22561
874.593	22634
874.722	22497
874.851	22577
874.979	22698
875.108	22713
875.237	22577
875.365	22436
875.494	22603
875.623	22721
875.751	22527
875.88	22660
876.008	22656
876.136	22691
876.265	23014
876.393	23048
876.521	23136
876.65	22980
876.778	22968
876.906	23041
877.034	22824
877.162	22862
877.29	22862
877.418	22904
877.546	22911
877.674	22976
877.802	22839
877.93	22866
878.058	22877
878.185	22790
878.313	22911
878.441	22843
878.568	22748
878.696	22869
878.824	22869
878.951	22972
879.079	23121
879.206	23204
879.333	23102
879.461	22972
879.588	23067
879.715	22892
879.842	23200
879.97	22934
880.097	22698
880.224	22683
880.351	22660
880.478	22748
880.605	22778
880.732	22713
880.859	22934
880.986	22729
881.112	22782
881.239	22626
881.366	22630
881.493	22436
881.619	22249
881.746	22443
881.872	22299
881.999	22291
882.125	22329
882.252	22238
882.378	22428
882.505	22409
882.631	22215
882.757	22017
882.883	22086
883.01	21930
883.136	21945
883.262	21922
883.388	21918
883.514	21937
883.64	22128
883.766	21930
883.892	21717
884.018	21983
884.143	21918
884.269	21991
884.395	21755
884.52	21618
884.646	21648
884.772	21534
884.897	21500
885.023	21705
885.148	21747
885.274	21823
885.399	21732
885.524	21755
885.65	21641
885.775	21671
885.9	21564
886.025	21743
886.15	21800
886.275	21580
886.4	21576
886.525	21500
886.65	21629
886.775	21610
886.9	21755
887.025	21869
887.149	21709
887.274	21519
887.399	21382
887.523	21264
887.648	21287
887.773	21195
887.897	21481
888.021	21412
888.146	21443
888.27	21507
888.395	21583
888.519	21469
888.643	21294
888.767	21458
888.891	21477
889.015	21192
889.139	21291
889.263	21131
889.387	21268
889.511	21355
889.635	21195
889.759	21135
889.883	21222
890.006	21165
890.13	21367
890.254	21017
890.377	21138
890.501	21013
890.624	20857
890.748	21001
890.871	20746
890.995	20750
891.118	20609
891.241	20853
891.364	20720
891.488	20883
891.611	20716
891.734	20765
891.857	20857
891.98	20811
892.103	20830
892.226	20743
892.349	20644
892.471	20480
892.594	20697
892.717	20659
892.839	20583
892.962	20560
893.085	20811
893.207	20571
893.33	20594
893.452	20617
893.575	20712
893.697	20583
893.819	20788
893.941	20758
894.064	20792
894.186	20632
894.308	20583
894.43	20629
894.552	20792
894.674	20708
894.796	20522
894.918	20613
895.04	20644
895.161	20609
895.283	20602
895.405	20594
895.526	20632
895.648	20712
895.769	20727
895.891	20746
896.012	20705
896.134	20686
896.255	20636
896.376	20568
896.498	20606
896.619	20625
896.74	20667
896.861	20655
896.982	20975
897.103	21116
897.224	20956
897.345	20914
897.466	20773
897.587	20853
897.708	21009
897.828	20971
897.949	20750
898.07	20724
898.19	20815
898.311	20906
898.431	20845
898.552	20834
898.672	20891
898.792	20941
898.913	20929
899.033	20724
899.153	20708
899.273	20659
899.393	20625
899.513	20663
899.633	20507
899.753	20678
899.873	20423
899.993	20518
900.113	20526
900.232	20541
900.352	20484
900.472	20305
900.591	20355
900.711	20377
900.83	20347
900.95	20427
901.069	20549
901.189	20206
901.308	20088
901.427	19940
901.546	19982
901.665	20001
901.784	19940
901.904	19696
902.023	19677
902.141	19613
902.26	19518
902.379	19571
902.498	19449
902.617	19464
902.735	19426
902.854	19445
902.973	19411
903.091	19076
903.21	19202
903.328	19129
903.446	19152
903.565	18825
903.683	18867
903.801	18795
903.919	18890
904.038	18840
904.156	18768
904.274	18582
904.392	18532
904.51	18646
904.627	18642
904.745	18741
904.863	18673
904.981	18452
905.098	18433
905.216	18395
905.334	18388
905.451	18410
905.569	18353
905.686	18357
905.803	18357
905.921	18148
906.038	18163
906.155	18041
906.272	17965
906.389	18007
906.506	17786
906.623	17882
906.74	17802
906.857	17676
906.974	17790
907.091	17828
907.208	18011
907.324	17851
907.441	17760
907.557	17608
907.674	17543
907.79	17596
907.907	17471
908.023	17562
908.139	17608
908.256	17490
908.372	17425
908.488	17520
908.604	17440
908.72	17299
908.836	17318
908.952	17254
909.068	17258
909.184	17349
909.3	17356
909.415	17322
909.531	17246
909.647	17006
909.762	16934
909.878	17037
909.993	16923
910.108	16991
910.224	16820
910.339	16946
910.454	16866
910.57	16755
910.685	16790
910.8	17025
910.915	16873
911.03	16801
911.145	16634
911.259	16588
911.374	16546
911.489	16497
911.604	16523
911.718	16344
911.833	16284
911.947	16295
912.062	16265
912.176	16341
912.291	16318
912.405	16322
912.519	16390
912.633	16569
912.748	16287
912.862	16394
912.976	16204
913.09	15983
913.204	16082
913.318	16177
913.431	16215
913.545	16204
913.659	16219
913.772	15991
913.886	16029
914	15960
914.113	16181
914.226	15998
914.34	16032
914.453	15797
914.566	15987
914.68	15819
914.793	15819
914.906	15656
915.019	15504
915.132	15481
915.245	15538
915.358	15618
915.47	15519
915.583	15641
915.696	15648
915.809	15698
915.921	15606
916.034	15412
916.146	15439
916.259	15443
916.371	15542
916.483	15462
916.595	15370
916.708	15408
916.82	15363
916.932	15336
917.044	15287
917.156	15287
917.268	15108
917.38	15233
917.491	15028
917.603	15169
917.715	15268
917.826	15260
917.938	15142
918.049	14960
918.161	15119
918.272	15176
918.384	15135
918.495	15165
918.606	15020
918.717	14826
918.828	14925
918.939	14910
919.05	14788
919.161	14864
919.272	14708
919.383	14727
919.494	14941
919.604	15028
919.715	14781
919.826	14724
919.936	14891
920.047	14937
920.157	14868
920.267	15104
920.378	14857
920.488	14842
920.598	14979
920.708	15154
920.818	15024
920.928	14982
921.038	15203
921.148	15074
921.258	14842
921.368	14720
921.477	14640
921.587	14731
921.697	14537
921.806	14598
921.916	14492
922.025	14305
922.134	14183
922.244	14229
922.353	14183
922.462	14088
922.571	14046
922.68	13826
922.789	13951
922.898	13860
923.007	13841
923.116	13947
923.224	13807
923.333	13818
923.442	13742
923.55	13662
923.659	13719
923.767	13753
923.876	13693
923.984	13700
924.092	13639
924.201	13636
924.309	13605
924.417	13567
924.525	13533
924.633	13521
924.741	14256
924.849	13350
924.956	13434
925.064	13324
925.172	13251
925.279	13308
925.387	13308
925.494	13240
925.602	13438
925.709	13301
925.816	13164
925.924	13190
926.031	13263
926.138	13209
926.245	13289
926.352	12989
926.459	13278
926.566	13297
926.673	13259
926.779	12951
926.886	13023
926.993	12905
927.099	12764
927.206	12817
927.312	12741
927.419	12844
927.525	12829
927.631	12817
927.737	12635
927.843	12688
927.95	12555
928.056	12703
928.162	12734
928.267	12703
928.373	13301
928.479	12760
928.585	12601
928.69	12582
928.796	12673
928.901	12551
929.007	12448
929.112	12464
929.218	12517
929.323	12403
929.428	12350
929.533	12506
929.638	12391
929.743	12388
929.848	12350
929.953	12323
930.058	12247
930.163	12083
930.267	12102
930.372	12201
930.477	11961
930.581	12270
930.685	12159
930.79	11973
930.894	11969
930.998	11935
931.103	12060
931.207	11737
931.311	11646
931.415	11535
931.519	11334
931.623	11345
