Data from test_V78500241_3104.txt Node
Date: Fri Mar 25 16:03:18 CST 2022
User: usil
Spectrometer: V785-0024
Trigger mode: 0
Integration Time (sec): 4.000000E-1
Scans to average: 1
Nonlinearity correction enabled: false
Boxcar width: 0
Storing dark spectrum: false
XAxis mode: Wavelengths
Number of Pixels in Spectrum: 1024
>>>>>Begin Spectral Data<<<<<
801.071	28588
801.214	28360
801.356	28367
801.499	28188
801.641	28109
801.783	28150
801.926	28021
802.068	28051
802.211	28078
802.353	28063
802.496	27793
802.638	27701
802.78	27743
802.923	27713
803.065	27762
803.208	27751
803.35	27846
803.492	27941
803.635	27949
803.777	27873
803.919	27918
804.061	28295
804.204	27983
804.346	27926
804.488	27998
804.63	28025
804.773	27964
804.915	28097
805.057	28242
805.199	27892
805.341	28143
805.483	28090
805.626	28086
805.768	28128
805.91	28025
806.052	28246
806.194	28105
806.336	28314
806.478	28226
806.62	28147
806.762	28299
806.904	28401
807.046	28752
807.188	28573
807.33	28516
807.472	28831
807.614	28584
807.756	28394
807.898	28478
808.04	28470
808.182	28390
808.324	28322
808.465	28523
808.607	28664
808.749	28862
808.891	28927
809.033	28862
809.174	28858
809.316	28816
809.458	28908
809.6	28710
809.741	29048
809.883	28984
810.025	29022
810.166	29105
810.308	29178
810.45	29014
810.591	29060
810.733	28919
810.875	28896
811.016	28858
811.158	28778
811.299	28942
811.441	29071
811.582	29064
811.724	28927
811.865	28854
812.007	28866
812.148	28801
812.29	28862
812.431	29075
812.573	29162
812.714	29235
812.855	29375
812.997	29448
813.138	29531
813.279	29547
813.421	29455
813.562	29193
813.703	29299
813.845	29090
813.986	28938
814.127	28565
814.268	28584
814.41	28493
814.551	28615
814.692	28588
814.833	28485
814.974	28459
815.115	28656
815.256	28413
815.397	28440
815.539	28542
815.68	28455
815.821	28276
815.962	28329
816.103	28409
816.244	28200
816.385	28086
816.526	28082
816.666	27884
816.807	27850
816.948	27785
817.089	27949
817.23	27778
817.371	27892
817.512	27819
817.653	27861
817.793	27941
817.934	27972
818.075	27789
818.216	27888
818.356	27914
818.497	27561
818.638	27439
818.778	27637
818.919	27549
819.06	27812
819.2	27793
819.341	27789
819.481	27770
819.622	28242
819.762	28196
819.903	28063
820.043	28086
820.184	28097
820.324	28109
820.465	28150
820.605	28032
820.746	27892
820.886	27892
821.026	28090
821.167	27854
821.307	27964
821.447	27880
821.588	27819
821.728	27671
821.868	27534
822.008	27454
822.149	27401
822.289	27298
822.429	27123
822.569	27043
822.709	27055
822.849	26807
822.99	26845
823.13	26952
823.27	26826
823.41	26689
823.55	26587
823.69	26663
823.83	26785
823.97	26492
824.11	26377
824.25	26423
824.389	26522
824.529	26651
824.669	26484
824.809	26587
824.949	26636
825.089	26541
825.228	26419
825.368	26355
825.508	26374
825.648	26526
825.787	26358
825.927	26404
826.067	26191
826.206	26385
826.346	26480
826.485	26473
826.625	26480
826.765	26473
826.904	26530
827.044	26115
827.183	26180
827.323	26069
827.462	26142
827.601	26111
827.741	26005
827.88	26126
828.02	25940
828.159	26031
828.298	26081
828.437	26111
828.577	25989
828.716	26153
828.855	25986
828.994	25769
829.134	25750
829.273	25917
829.412	25803
829.551	25795
829.69	25734
829.829	25826
829.968	25750
830.107	25849
830.246	25723
830.385	25620
830.524	25693
830.663	25708
830.802	25533
830.941	25403
831.08	25171
831.219	25453
831.357	25491
831.496	25571
831.635	25274
831.774	25324
831.913	25358
832.051	25190
832.19	25152
832.329	25129
832.467	25080
832.606	25099
832.744	25057
832.883	25118
833.022	24985
833.16	25000
833.299	25137
833.437	25015
833.576	25099
833.714	25103
833.852	25228
833.991	25160
834.129	25240
834.267	25266
834.406	25023
834.544	25343
834.682	25084
834.821	25156
834.959	25244
835.097	24989
835.235	25084
835.373	25110
835.511	24947
835.65	25038
835.788	25012
835.926	24837
836.064	24760
836.202	24772
836.34	24954
836.478	25133
836.615	25053
836.753	24837
836.891	25038
837.029	24966
837.167	24966
837.305	24783
837.443	24856
837.58	24810
837.718	24954
837.856	24715
837.993	24692
838.131	24806
838.269	24711
838.406	24681
838.544	24452
838.681	24391
838.819	24479
838.956	24308
839.094	24285
839.231	24380
839.369	24395
839.506	24551
839.643	24433
839.781	24330
839.918	24194
840.055	24178
840.193	24140
840.33	24186
840.467	24182
840.604	24213
840.742	24418
840.879	24072
841.016	24049
841.153	24133
841.29	24232
841.427	24072
841.564	24114
841.701	24178
841.838	24076
841.975	24125
842.112	24102
842.249	24060
842.385	23843
842.522	24106
842.659	23954
842.796	23931
842.933	23973
843.069	23863
843.206	23904
843.343	24011
843.479	23923
843.616	23855
843.752	23703
843.889	23737
844.025	23885
844.162	23695
844.298	23790
844.435	23493
844.571	23691
844.708	23737
844.844	23863
844.98	23783
845.117	23817
845.253	23710
845.389	23440
845.525	23520
845.661	23516
845.798	23444
845.934	23395
846.07	23288
846.206	23364
846.342	23452
846.478	23334
846.614	23155
846.75	23067
846.886	23132
847.022	23143
847.158	23147
847.294	23193
847.429	23284
847.565	23227
847.701	23436
847.837	22946
847.972	22831
848.108	23018
848.244	23018
848.379	22755
848.515	22622
848.65	22805
848.786	22740
848.921	22698
849.057	22771
849.192	22877
849.328	22885
849.463	22645
849.598	22729
849.734	22717
849.869	22641
850.004	22512
850.14	22413
850.275	22546
850.41	22402
850.545	22440
850.68	22485
850.815	22500
850.95	22481
851.085	22607
851.22	22656
851.355	22622
851.49	22588
851.625	22538
851.76	22417
851.895	22436
852.03	22360
852.165	22504
852.299	22603
852.434	22508
852.569	22519
852.703	22588
852.838	22470
852.973	22656
853.107	22481
853.242	22459
853.376	22394
853.511	22223
853.645	22230
853.78	22428
853.914	22325
854.048	22272
854.183	22238
854.317	22508
854.451	22447
854.585	22268
854.72	22329
854.854	22379
854.988	22310
855.122	22379
855.256	22261
855.39	22333
855.524	22386
855.658	22363
855.792	22333
855.926	22443
856.06	22333
856.194	22436
856.327	22318
856.461	22268
856.595	22268
856.729	22310
856.862	22322
856.996	22405
857.13	22367
857.263	22462
857.397	22462
857.53	22223
857.664	22287
857.797	22398
857.931	22379
858.064	22341
858.197	22363
858.331	22367
858.464	22356
858.597	22188
858.731	22284
858.864	22238
858.997	22344
859.13	22246
859.263	22287
859.396	22398
859.529	22341
859.662	22181
859.795	22371
859.928	22287
860.061	22493
860.194	22485
860.327	22432
860.46	22405
860.592	22470
860.725	22344
860.858	22352
860.99	22367
861.123	22341
861.256	22188
861.388	22424
861.521	23060
861.653	22090
861.786	22139
861.918	22226
862.05	22211
862.183	22219
862.315	22322
862.447	22398
862.58	22177
862.712	22002
862.844	21987
862.976	22192
863.108	22090
863.24	22413
863.372	22055
863.504	21991
863.636	22131
863.768	21945
863.9	22105
864.032	22048
864.164	21937
864.296	22040
864.428	22223
864.559	22242
864.691	22112
864.823	22032
864.954	22010
865.086	22021
865.217	21911
865.349	21823
865.48	21972
865.612	22044
865.743	22063
865.875	21846
866.006	21808
866.137	22029
866.269	21945
866.4	21918
866.531	21785
866.662	21781
866.793	21873
866.924	21785
867.055	21819
867.186	21907
867.317	21823
867.448	21663
867.579	21865
867.71	21739
867.841	21720
867.972	22048
868.103	21823
868.233	21861
868.364	21884
868.495	21953
868.625	22017
868.756	22082
868.886	22021
869.017	22196
869.147	22257
869.278	22226
869.408	22086
869.539	22196
869.669	22074
869.799	22036
869.929	22219
870.06	22249
870.19	22341
870.32	22295
870.45	22363
870.58	22470
870.71	22500
870.84	22592
870.97	22500
871.1	22455
871.23	22596
871.36	22793
871.489	22634
871.619	22733
871.749	22599
871.879	22744
872.008	22713
872.138	22812
872.267	22835
872.397	22546
872.526	22428
872.656	22443
872.785	22451
872.915	22710
873.044	22729
873.173	22706
873.303	22710
873.432	22744
873.561	22847
873.69	22721
873.819	22774
873.948	22733
874.077	22809
874.206	22698
874.335	22645
874.464	22843
874.593	22877
874.722	22889
874.851	22972
874.979	23010
875.108	23006
875.237	22858
875.365	22923
875.494	22858
875.623	23018
875.751	22908
875.88	23025
876.008	23014
876.136	23064
876.265	23345
876.393	23459
876.521	23414
876.65	23326
876.778	23482
876.906	23311
877.034	23166
877.162	23246
877.29	23220
877.418	23345
877.546	23299
877.674	23326
877.802	23265
877.93	23250
878.058	23109
878.185	23204
878.313	23121
878.441	23220
878.568	23041
878.696	23273
878.824	23189
878.951	23395
879.079	23436
879.206	23528
879.333	23391
879.461	23258
879.588	23303
879.715	23284
879.842	23535
879.97	23303
880.097	23067
880.224	22957
880.351	23212
880.478	23052
880.605	23132
880.732	23159
880.859	23265
880.986	23018
881.112	23041
881.239	22957
881.366	22782
881.493	22847
881.619	22710
881.746	22675
881.872	22592
881.999	22580
882.125	22497
882.252	22767
882.378	22668
882.505	22679
882.631	22611
882.757	22394
882.883	22481
883.01	22329
883.136	22348
883.262	22188
883.388	22097
883.514	22371
883.64	22394
883.766	22230
883.892	22093
884.018	22246
884.143	22265
884.269	22375
884.395	22036
884.52	21831
884.646	22051
884.772	21937
884.897	21903
885.023	21968
885.148	22055
885.274	22181
885.399	22173
885.524	21987
885.65	22002
885.775	21907
885.9	22002
886.025	22063
886.15	22078
886.275	21819
886.4	21846
886.525	21850
886.65	21861
886.775	21850
886.9	21987
887.025	22112
887.149	21922
887.274	21755
887.399	21637
887.523	21713
887.648	21736
887.773	21591
887.897	21762
888.021	21797
888.146	21682
888.27	21789
888.395	21857
888.519	21679
888.643	21667
888.767	21781
888.891	21625
889.015	21622
889.139	21553
889.263	21485
889.387	21625
889.511	21751
889.635	21599
889.759	21466
889.883	21359
890.006	21526
890.13	21652
890.254	21530
890.377	21466
890.501	21344
890.624	21241
890.748	21268
890.871	21173
890.995	21009
891.118	20944
891.241	21058
891.364	21138
891.488	21218
891.611	21055
891.734	21081
891.857	21077
891.98	20948
892.103	21116
892.226	21020
892.349	20899
892.471	20956
892.594	20948
892.717	20986
892.839	20914
892.962	20971
893.085	20948
893.207	20982
893.33	20800
893.452	20914
893.575	20994
893.697	20933
893.819	21127
893.941	21150
894.064	21020
894.186	20948
894.308	20895
894.43	21032
894.552	21047
894.674	21017
894.796	20807
894.918	20819
895.04	20929
895.161	20956
895.283	20975
895.405	20891
895.526	20941
895.648	20842
895.769	21070
895.891	20975
896.012	21096
896.134	20998
896.255	20944
896.376	20895
896.498	20975
896.619	20819
896.74	21036
896.861	21024
896.982	21218
897.103	21454
897.224	21157
897.345	21058
897.466	21081
897.587	21176
897.708	21275
897.828	21108
897.949	21100
898.07	20899
898.19	21089
898.311	21306
898.431	21070
898.552	21062
898.672	21135
898.792	21252
898.913	21135
899.033	21058
899.153	20910
899.273	20796
899.393	20811
899.513	21024
899.633	20819
899.753	20937
899.873	20868
899.993	20849
900.113	20807
900.232	20857
900.352	20823
900.472	20762
900.591	20663
900.711	20693
900.83	20625
900.95	20655
901.069	20724
901.189	20526
901.308	20240
901.427	20210
901.546	20195
901.665	20168
901.784	20206
901.904	20149
902.023	20008
902.141	19845
902.26	19814
902.379	19776
902.498	19632
902.617	19635
902.735	19731
902.854	19757
902.973	19742
903.091	19457
903.21	19430
903.328	19396
903.446	19236
903.565	19198
903.683	19194
903.801	19076
903.919	19095
904.038	19179
904.156	18905
904.274	19038
904.392	18935
904.51	18886
904.627	18966
904.745	18837
904.863	18947
904.981	18825
905.098	18532
905.216	18589
905.334	18661
905.451	18578
905.569	18494
905.686	18597
905.803	18544
905.921	18388
906.038	18544
906.155	18391
906.272	18304
906.389	18384
906.506	18216
906.623	18171
906.74	18148
906.857	18003
906.974	18030
907.091	18087
907.208	18281
907.324	18064
907.441	18076
907.557	17790
907.674	17836
907.79	17931
907.907	17809
908.023	17798
908.139	17889
908.256	17809
908.372	17767
908.488	17722
908.604	17619
908.72	17554
908.836	17585
908.952	17509
909.068	17589
909.184	17764
909.3	17585
909.415	17600
909.531	17463
909.647	17322
909.762	17296
909.878	17208
909.993	17376
910.108	17216
910.224	17223
910.339	17269
910.454	17056
910.57	17090
910.685	17037
910.8	17307
910.915	17132
911.03	16961
911.145	16904
911.259	16858
911.374	16812
911.489	16664
911.604	16637
911.718	16611
911.833	16565
911.947	16428
912.062	16424
912.176	16538
912.291	16523
912.405	16675
912.519	16713
912.633	16793
912.748	16561
912.862	16573
912.976	16337
913.09	16295
913.204	16360
913.318	16542
913.431	16466
913.545	16360
913.659	16428
913.772	16291
913.886	16226
914	16158
914.113	16322
914.226	16363
914.34	16185
914.453	16002
914.566	16249
914.68	16124
914.793	16059
914.906	15899
915.019	15850
915.132	15656
915.245	15804
915.358	15682
915.47	15880
915.583	15789
915.696	15747
915.809	15899
915.921	15831
916.034	15739
916.146	15606
916.259	15595
916.371	15675
916.483	15584
916.595	15599
916.708	15614
916.82	15576
916.932	15553
917.044	15523
917.156	15458
917.268	15481
917.38	15370
917.491	15412
917.603	15439
917.715	15393
917.826	15488
917.938	15287
918.049	15218
918.161	15416
918.272	15473
918.384	15492
918.495	15260
918.606	15230
918.717	15024
918.828	15089
918.939	15108
919.05	15024
919.161	15077
919.272	15001
919.383	14967
919.494	15093
919.604	15237
919.715	15146
919.826	15131
919.936	14990
920.047	15157
920.157	15112
920.267	15249
920.378	15062
920.488	15131
920.598	15180
920.708	15382
920.818	15150
920.928	15142
921.038	15431
921.148	15313
921.258	15123
921.368	14902
921.477	14834
921.587	14891
921.697	14697
921.806	14838
921.916	14670
922.025	14545
922.134	14484
922.244	14431
922.353	14480
922.462	14381
922.571	14259
922.68	14157
922.789	14073
922.898	14073
923.007	13955
923.116	14054
923.224	14161
923.333	14027
923.442	14081
923.55	13864
923.659	13982
923.767	13967
923.876	13887
923.984	13947
924.092	13765
924.201	13902
924.309	13772
924.417	13765
924.525	13784
924.633	13799
924.741	14488
924.849	13540
924.956	13719
925.064	13632
925.172	13445
925.279	13460
925.387	13525
925.494	13533
925.602	13544
925.709	13464
925.816	13373
925.924	13449
926.031	13457
926.138	13426
926.245	13472
926.352	13346
926.459	13495
926.566	13449
926.673	13282
926.779	13259
926.886	13225
926.993	13034
927.099	13046
927.206	13012
927.312	12947
927.419	13152
927.525	13031
927.631	13061
927.737	12977
927.843	12829
927.95	12669
928.056	12840
928.162	12867
928.267	12909
928.373	13419
928.479	12795
928.585	12711
928.69	12840
928.796	12878
928.901	12654
929.007	12506
929.112	12635
929.218	12612
929.323	12547
929.428	12623
929.533	12627
929.638	12566
929.743	12426
929.848	12604
929.953	12494
930.058	12300
930.163	12228
930.267	12216
930.372	12315
930.477	12175
930.581	12334
930.685	12190
930.79	12038
930.894	12117
930.998	12045
931.103	12171
931.207	11805
931.311	11851
931.415	11642
931.519	11539
931.623	11395
