Data from test_V78500241_3510.txt Node
Date: Fri Mar 25 16:06:07 CST 2022
User: usil
Spectrometer: V785-0024
Trigger mode: 0
Integration Time (sec): 4.000000E-1
Scans to average: 1
Nonlinearity correction enabled: false
Boxcar width: 0
Storing dark spectrum: false
XAxis mode: Wavelengths
Number of Pixels in Spectrum: 1024
>>>>>Begin Spectral Data<<<<<
801.071	28736
801.214	28687
801.356	28508
801.499	28481
801.641	28462
801.783	28242
801.926	28379
802.068	28291
802.211	28337
802.353	28333
802.496	28158
802.638	28185
802.78	28059
802.923	27968
803.065	27888
803.208	28002
803.35	28112
803.492	28150
803.635	28329
803.777	28287
803.919	28337
804.061	28599
804.204	28394
804.346	28318
804.488	28287
804.63	28268
804.773	28287
804.915	28375
805.057	28382
805.199	28344
805.341	28379
805.483	28485
805.626	28390
805.768	28310
805.91	28504
806.052	28546
806.194	28390
806.336	28611
806.478	28592
806.62	28504
806.762	28565
806.904	28793
807.046	28930
807.188	29003
807.33	28904
807.472	29056
807.614	28965
807.756	28900
807.898	28835
808.04	28687
808.182	28733
808.324	28854
808.465	28744
808.607	29132
808.749	29181
808.891	29250
809.033	29528
809.174	29299
809.316	29083
809.458	28946
809.6	29189
809.741	29246
809.883	29406
810.025	29258
810.166	29429
810.308	29395
810.45	29395
810.591	29406
810.733	29250
810.875	29109
811.016	29121
811.158	28961
811.299	29181
811.441	29406
811.582	29318
811.724	29254
811.865	29250
812.007	29102
812.148	29098
812.29	29334
812.431	29178
812.573	29630
812.714	29627
812.855	29760
812.997	29904
813.138	29931
813.279	29840
813.421	29638
813.562	29824
813.703	29589
813.845	29429
813.986	29231
814.127	29010
814.268	28949
814.41	28930
814.551	28949
814.692	29071
814.833	28911
814.974	28976
815.115	29006
815.256	28850
815.397	28809
815.539	28660
815.68	28801
815.821	28660
815.962	28698
816.103	28675
816.244	28580
816.385	28622
816.526	28504
816.666	28200
816.807	28211
816.948	28341
817.089	28371
817.23	28303
817.371	28116
817.512	28265
817.653	28257
817.793	28112
817.934	28253
818.075	28299
818.216	28405
818.356	28272
818.497	28093
818.638	27907
818.778	28036
818.919	27949
819.06	28070
819.2	28097
819.341	28200
819.481	28265
819.622	28363
819.762	28512
819.903	28535
820.043	28424
820.184	28280
820.324	28295
820.465	28432
820.605	28394
820.746	28352
820.886	28242
821.026	28246
821.167	28242
821.307	28348
821.447	28192
821.588	28181
821.728	27994
821.868	27876
822.008	27694
822.149	27713
822.289	27739
822.429	27473
822.569	27302
822.709	27321
822.849	27294
822.99	27283
823.13	27169
823.27	27161
823.41	27070
823.55	26887
823.69	26940
823.83	27039
823.97	26952
824.11	26826
824.25	26929
824.389	26853
824.529	26754
824.669	26815
824.809	26940
824.949	27020
825.089	26857
825.228	26876
825.368	26807
825.508	26731
825.648	26743
825.787	26864
825.927	26842
826.067	26735
826.206	26807
826.346	26815
826.485	26982
826.625	26678
826.765	26849
826.904	26762
827.044	26549
827.183	26488
827.323	26396
827.462	26434
827.601	26499
827.741	26564
827.88	26476
828.02	26385
828.159	26434
828.298	26507
828.437	26492
828.577	26301
828.716	26667
828.855	26298
828.994	26081
829.134	26065
829.273	26149
829.412	26081
829.551	26263
829.69	26206
829.829	26161
829.968	26191
830.107	26233
830.246	26145
830.385	26081
830.524	26119
830.663	25963
830.802	25989
830.941	25708
831.08	25761
831.219	25860
831.357	25696
831.496	26024
831.635	25734
831.774	25731
831.913	25438
832.051	25514
832.19	25540
832.329	25502
832.467	25487
832.606	25426
832.744	25156
832.883	25533
833.022	25384
833.16	25479
833.299	25544
833.437	25514
833.576	25578
833.714	25483
833.852	25658
833.991	25624
834.129	25586
834.267	25502
834.406	25639
834.544	25335
834.682	25491
834.821	25434
834.959	25658
835.097	25502
835.235	25441
835.373	25544
835.511	25510
835.65	25445
835.788	25301
835.926	25221
836.064	25114
836.202	25152
836.34	25236
836.478	25430
836.615	25213
836.753	25316
836.891	25343
837.029	25392
837.167	25183
837.305	25171
837.443	25202
837.58	25076
837.718	25255
837.856	25004
837.993	25053
838.131	25194
838.269	25000
838.406	25103
838.544	24916
838.681	24814
838.819	24932
838.956	24555
839.094	24623
839.231	24673
839.369	24837
839.506	24992
839.643	24951
839.781	24677
839.918	24620
840.055	24681
840.193	24547
840.33	24528
840.467	24620
840.604	24601
840.742	24711
840.879	24490
841.016	24357
841.153	24395
841.29	24513
841.427	24494
841.564	24570
841.701	24441
841.838	24494
841.975	24399
842.112	24502
842.249	24388
842.385	24296
842.522	24540
842.659	24464
842.796	24289
842.933	24281
843.069	24342
843.206	24292
843.343	24296
843.479	24254
843.616	24213
843.752	23961
843.889	24083
844.025	24174
844.162	24038
844.298	24057
844.435	24140
844.571	23954
844.708	24087
844.844	24224
844.98	24228
845.117	24232
845.253	23988
845.389	23927
845.525	24049
845.661	23764
845.798	23741
845.934	23847
846.07	23824
846.206	23931
846.342	23927
846.478	23707
846.614	23581
846.75	23433
846.886	23493
847.022	23570
847.158	23634
847.294	23539
847.429	23535
847.565	23634
847.701	23752
847.837	23178
847.972	23155
848.108	23284
848.244	23235
848.379	23147
848.515	22987
848.65	23025
848.786	23033
848.921	23086
849.057	23200
849.192	23261
849.328	23022
849.463	23090
849.598	22942
849.734	22919
849.869	22942
850.004	22915
850.14	22866
850.275	22892
850.41	22801
850.545	22763
850.68	22892
850.815	22984
850.95	22911
851.085	23006
851.22	23022
851.355	22759
851.49	22801
851.625	22805
851.76	22809
851.895	22881
852.03	22763
852.165	22786
852.299	22839
852.434	22824
852.569	22847
852.703	22790
852.838	22793
852.973	22961
853.107	22991
853.242	22721
853.376	22752
853.511	22611
853.645	22538
853.78	22896
853.914	22523
854.048	22588
854.183	22584
854.317	22645
854.451	22866
854.585	22790
854.72	22687
854.854	22748
854.988	22611
855.122	22672
855.256	22542
855.39	22733
855.524	22729
855.658	22649
855.792	22752
855.926	22660
856.06	22713
856.194	22816
856.327	22683
856.461	22679
856.595	22569
856.729	22603
856.862	22759
856.996	22637
857.13	22889
857.263	22782
857.397	22698
857.53	22645
857.664	22679
857.797	22717
857.931	22679
858.064	22736
858.197	22763
858.331	22645
858.464	22599
858.597	22645
858.731	22596
858.864	22679
858.997	22771
859.13	22786
859.263	22740
859.396	22805
859.529	22725
859.662	22584
859.795	22584
859.928	22653
860.061	22847
860.194	22896
860.327	22702
860.46	22782
860.592	22759
860.725	22881
860.858	22744
860.99	22725
861.123	22580
861.256	22675
861.388	22664
861.521	23326
861.653	22660
861.786	22451
861.918	22504
862.05	22554
862.183	22535
862.315	22565
862.447	22599
862.58	22611
862.712	22363
862.844	22367
862.976	22428
863.108	22599
863.24	22908
863.372	22238
863.504	22367
863.636	22375
863.768	22390
863.9	22481
864.032	22363
864.164	22261
864.296	22390
864.428	22535
864.559	22542
864.691	22432
864.823	22428
864.954	22382
865.086	22413
865.217	22276
865.349	22143
865.48	22226
865.612	22230
865.743	22344
865.875	22223
866.006	22394
866.137	22284
866.269	22322
866.4	22238
866.531	22234
866.662	22143
866.793	22090
866.924	22139
867.055	22230
867.186	22158
867.317	22158
867.448	22211
867.579	22112
867.71	22181
867.841	22093
867.972	22230
868.103	22238
868.233	22181
868.364	22147
868.495	22356
868.625	22421
868.756	22466
868.886	22341
869.017	22367
869.147	22466
869.278	22580
869.408	22462
869.539	22417
869.669	22630
869.799	22535
869.929	22573
870.06	22573
870.19	22748
870.32	22725
870.45	22752
870.58	22797
870.71	23025
870.84	22847
870.97	22771
871.1	22858
871.23	23006
871.36	23079
871.489	22938
871.619	22908
871.749	22908
871.879	22946
872.008	23223
872.138	23044
872.267	23052
872.397	22965
872.526	22850
872.656	22858
872.785	22839
872.915	23006
873.044	23075
873.173	22957
873.303	23090
873.432	23220
873.561	23166
873.69	23086
873.819	23037
873.948	23067
874.077	23044
874.206	22965
874.335	23117
874.464	23174
874.593	23372
874.722	23109
874.851	23296
874.979	23299
875.108	23356
875.237	23132
875.365	23162
875.494	23223
875.623	23372
875.751	23246
875.88	23216
876.008	23360
876.136	23318
876.265	23661
876.393	23817
876.521	23642
876.65	23733
876.778	23699
876.906	23520
877.034	23558
877.162	23653
877.29	23585
877.418	23638
877.546	23771
877.674	23653
877.802	23577
877.93	23524
878.058	23482
878.185	23440
878.313	23505
878.441	23467
878.568	23425
878.696	23558
878.824	23512
878.951	23661
879.079	23802
879.206	23916
879.333	23805
879.461	23638
879.588	23729
879.715	23847
879.842	23942
879.97	23668
880.097	23440
880.224	23398
880.351	23379
880.478	23436
880.605	23471
880.732	23398
880.859	23596
880.986	23440
881.112	23524
881.239	23387
881.366	23086
881.493	23014
881.619	23044
881.746	23083
881.872	22843
881.999	22858
882.125	22881
882.252	22961
882.378	22843
882.505	23109
882.631	22885
882.757	22698
882.883	22771
883.01	22649
883.136	22596
883.262	22611
883.388	22519
883.514	22672
883.64	22713
883.766	22546
883.892	22455
884.018	22470
884.143	22561
884.269	22637
884.395	22417
884.52	22211
884.646	22242
884.772	22162
884.897	22139
885.023	22238
885.148	22352
885.274	22413
885.399	22371
885.524	22329
885.65	22234
885.775	22230
885.9	22242
886.025	22352
886.15	22318
886.275	22150
886.4	22143
886.525	22188
886.65	22188
886.775	22143
886.9	22436
887.025	22443
887.149	22276
887.274	22051
887.399	21975
887.523	21937
887.648	22131
887.773	21991
887.897	22055
888.021	22010
888.146	21949
888.27	22109
888.395	22097
888.519	22109
888.643	22044
888.767	22029
888.891	21994
889.015	21747
889.139	21953
889.263	21717
889.387	22051
889.511	22116
889.635	21945
889.759	21861
889.883	21812
890.006	21861
890.13	21941
890.254	21759
890.377	21732
890.501	21606
890.624	21568
890.748	21603
890.871	21370
890.995	21348
891.118	21386
891.241	21298
891.364	21389
891.488	21507
891.611	21283
891.734	21317
891.857	21378
891.98	21447
892.103	21325
892.226	21382
892.349	21325
892.471	21104
892.594	21233
892.717	21382
892.839	21317
892.962	21329
893.085	21207
893.207	21424
893.33	21146
893.452	21112
893.575	21241
893.697	21256
893.819	21367
893.941	21511
894.064	21500
894.186	21211
894.308	21146
894.43	21306
894.552	21393
894.674	21279
894.796	21241
894.918	21260
895.04	21214
895.161	21310
895.283	21378
895.405	21313
895.526	21226
895.648	21203
895.769	21176
895.891	21218
896.012	21329
896.134	21161
896.255	21268
896.376	21100
896.498	21226
896.619	21226
896.74	21222
896.861	21291
896.982	21545
897.103	21641
897.224	21523
897.345	21416
897.466	21450
897.587	21424
897.708	21572
897.828	21526
897.949	21389
898.07	21291
898.19	21302
898.311	21268
898.431	21363
898.552	21515
898.672	21424
898.792	21386
898.913	21504
899.033	21420
899.153	21302
899.273	21093
899.393	21176
899.513	21264
899.633	21081
899.753	21211
899.873	21142
899.993	21173
900.113	21070
900.232	21089
900.352	21047
900.472	21001
900.591	20823
900.711	20941
900.83	20864
900.95	21131
901.069	20891
901.189	20735
901.308	20549
901.427	20492
901.546	20454
901.665	20537
901.784	20522
901.904	20332
902.023	20301
902.141	20031
902.26	20046
902.379	20050
902.498	19978
902.617	19921
902.735	19989
902.854	19955
902.973	20020
903.091	19738
903.21	19655
903.328	19643
903.446	19632
903.565	19369
903.683	19487
903.801	19324
903.919	19407
904.038	19308
904.156	19190
904.274	19187
904.392	19160
904.51	19126
904.627	19118
904.745	19339
904.863	19156
904.981	18909
905.098	18966
905.216	18844
905.334	18890
905.451	18958
905.569	18875
905.686	18871
905.803	18825
905.921	18620
906.038	18703
906.155	18665
906.272	18494
906.389	18623
906.506	18475
906.623	18407
906.74	18361
906.857	18323
906.974	18182
907.091	18414
907.208	18544
907.324	18304
907.441	18167
907.557	18003
907.674	18129
907.79	18003
907.907	18003
908.023	18114
908.139	18095
908.256	18003
908.372	17878
908.488	17916
908.604	17843
908.72	17843
908.836	17756
908.952	17775
909.068	17813
909.184	17874
909.3	17821
909.415	17729
909.531	17771
909.647	17611
909.762	17566
909.878	17524
909.993	17543
910.108	17524
910.224	17512
910.339	17410
910.454	17334
910.57	17337
910.685	17200
910.8	17516
910.915	17341
911.03	17250
911.145	17086
911.259	17064
911.374	17124
911.489	16938
911.604	16908
911.718	16774
911.833	16923
911.947	16774
912.062	16717
912.176	16820
912.291	16797
912.405	16805
912.519	16934
912.633	17128
912.748	16786
912.862	16927
912.976	16580
913.09	16478
913.204	16630
913.318	16607
913.431	16607
913.545	16721
913.659	16733
913.772	16554
913.886	16478
914	16417
914.113	16409
914.226	16580
914.34	16443
914.453	16268
914.566	16333
914.68	16360
914.793	16394
914.906	16071
915.019	15998
915.132	15953
915.245	15911
915.358	15956
915.47	16086
915.583	15968
915.696	15983
915.809	16128
915.921	16158
916.034	15964
916.146	15922
916.259	15838
916.371	16025
916.483	15911
916.595	15770
916.708	15800
916.82	15759
916.932	15739
917.044	15797
917.156	15800
917.268	15660
917.38	15591
917.491	15587
917.603	15618
917.715	15728
917.826	15622
917.938	15447
918.049	15431
918.161	15496
918.272	15701
918.384	15671
918.495	15644
918.606	15454
918.717	15344
918.828	15397
918.939	15450
919.05	15252
919.161	15340
919.272	15214
919.383	15298
919.494	15355
919.604	15545
919.715	15382
919.826	15127
919.936	15275
920.047	15325
920.157	15367
920.267	15538
920.378	15329
920.488	15283
920.598	15374
920.708	15606
920.818	15469
920.928	15488
921.038	15633
921.148	15564
921.258	15180
921.368	15135
921.477	15100
921.587	14918
921.697	14842
921.806	14910
921.916	14891
922.025	14648
922.134	14682
922.244	14655
922.353	14754
922.462	14610
922.571	14473
922.68	14332
922.789	14275
922.898	14275
923.007	14161
923.116	14259
923.224	14199
923.333	14282
923.442	14210
923.55	14077
923.659	14145
923.767	14103
923.876	14012
923.984	14126
924.092	13997
924.201	13978
924.309	13967
924.417	14024
924.525	13902
924.633	13947
924.741	14807
924.849	13757
924.956	13856
925.064	13548
925.172	13753
925.279	13666
925.387	13666
925.494	13674
925.602	13765
925.709	13757
925.816	13540
925.924	13540
926.031	13677
926.138	13609
926.245	13544
926.352	13495
926.459	13693
926.566	13651
926.673	13571
926.779	13377
926.886	13377
926.993	13244
927.099	13255
927.206	13202
927.312	13187
927.419	13343
927.525	13129
927.631	13247
927.737	13061
927.843	13099
927.95	12947
928.056	13023
928.162	13042
928.267	13027
928.373	13605
928.479	13057
928.585	12886
928.69	12993
928.796	12977
928.901	12878
929.007	12749
929.112	12856
929.218	12806
929.323	12772
929.428	12684
929.533	12878
929.638	12642
929.743	12692
929.848	12692
929.953	12658
930.058	12532
930.163	12471
930.267	12380
930.372	12467
930.477	12414
930.581	12620
930.685	12464
930.79	12273
930.894	12376
930.998	12205
931.103	12418
931.207	12011
931.311	11950
931.415	11901
931.519	11737
931.623	11649
