Data from test_V78500241_1781.txt Node
Date: Fri Mar 25 15:54:08 CST 2022
User: usil
Spectrometer: V785-0024
Trigger mode: 0
Integration Time (sec): 4.000000E-1
Scans to average: 1
Nonlinearity correction enabled: false
Boxcar width: 0
Storing dark spectrum: false
XAxis mode: Wavelengths
Number of Pixels in Spectrum: 1024
>>>>>Begin Spectral Data<<<<<
801.071	28565
801.214	28523
801.356	28375
801.499	28268
801.641	28234
801.783	28101
801.926	28166
802.068	28173
802.211	28109
802.353	28086
802.496	27880
802.638	27949
802.78	27873
802.923	27743
803.065	27819
803.208	27694
803.35	27793
803.492	27975
803.635	28158
803.777	27987
803.919	27945
804.061	28466
804.204	28177
804.346	27941
804.488	27964
804.63	28097
804.773	28090
804.915	28211
805.057	28322
805.199	28116
805.341	28139
805.483	28211
805.626	28226
805.768	28147
805.91	28390
806.052	28360
806.194	28074
806.336	28356
806.478	28284
806.62	28356
806.762	28386
806.904	28424
807.046	28797
807.188	28615
807.33	28725
807.472	28790
807.614	28725
807.756	28698
807.898	28626
808.04	28569
808.182	28481
808.324	28649
808.465	28577
808.607	28679
808.749	28942
808.891	28904
809.033	29162
809.174	29029
809.316	28991
809.458	28930
809.6	28854
809.741	28987
809.883	29079
810.025	29231
810.166	29128
810.308	29349
810.45	29220
810.591	29235
810.733	29037
810.875	28900
811.016	28782
811.158	28847
811.299	28904
811.441	29159
811.582	28987
811.724	28961
811.865	28972
812.007	28927
812.148	28763
812.29	29022
812.431	29159
812.573	29159
812.714	29429
812.855	29608
812.997	29585
813.138	29714
813.279	29630
813.421	29478
813.562	29417
813.703	29208
813.845	29227
813.986	28984
814.127	28702
814.268	28653
814.41	28675
814.551	28687
814.692	28675
814.833	28683
814.974	28698
815.115	28622
815.256	28512
815.397	28561
815.539	28478
815.68	28455
815.821	28348
815.962	28440
816.103	28451
816.244	28375
816.385	28177
816.526	28215
816.666	28021
816.807	27922
816.948	28067
817.089	28055
817.23	27987
817.371	27945
817.512	27895
817.653	27941
817.793	27888
817.934	27804
818.075	27857
818.216	27956
818.356	27922
818.497	27762
818.638	27701
818.778	27580
818.919	27717
819.06	27827
819.2	28010
819.341	27945
819.481	27903
819.622	28124
819.762	28424
819.903	28257
820.043	28265
820.184	28173
820.324	27972
820.465	28154
820.605	27983
820.746	28109
820.886	27914
821.026	27941
821.167	28105
821.307	28192
821.447	28086
821.588	27960
821.728	27778
821.868	27583
822.008	27591
822.149	27412
822.289	27477
822.429	27275
822.569	27146
822.709	27112
822.849	26979
822.99	27036
823.13	26891
823.27	26807
823.41	26598
823.55	26651
823.69	26754
823.83	26792
823.97	26773
824.11	26495
824.25	26495
824.389	26583
824.529	26651
824.669	26625
824.809	26731
824.949	26739
825.089	26701
825.228	26583
825.368	26537
825.508	26374
825.648	26621
825.787	26415
825.927	26530
826.067	26587
826.206	26484
826.346	26415
826.485	26511
826.625	26514
826.765	26541
826.904	26476
827.044	26271
827.183	26225
827.323	26244
827.462	26278
827.601	26195
827.741	26290
827.88	26286
828.02	26054
828.159	26126
828.298	26103
828.437	26172
828.577	26069
828.716	26218
828.855	26031
828.994	25955
829.134	25852
829.273	25902
829.412	25841
829.551	25818
829.69	25780
829.829	25761
829.968	25921
830.107	25883
830.246	25963
830.385	25662
830.524	25788
830.663	25681
830.802	25677
830.941	25354
831.08	25396
831.219	25476
831.357	25502
831.496	25784
831.635	25559
831.774	25377
831.913	25365
832.051	25152
832.19	25403
832.329	25308
832.467	25133
832.606	25129
832.744	25217
832.883	25164
833.022	25145
833.16	25118
833.299	25335
833.437	25225
833.576	25274
833.714	25270
833.852	25369
833.991	25274
834.129	25266
834.267	25270
834.406	25190
834.544	25209
834.682	25244
834.821	25137
834.959	25320
835.097	25179
835.235	25206
835.373	25171
835.511	25225
835.65	25008
835.788	25008
835.926	24882
836.064	24886
836.202	24924
836.34	25008
836.478	25091
836.615	25046
836.753	25034
836.891	25065
837.029	25110
837.167	25023
837.305	24909
837.443	24837
837.58	24791
837.718	24795
837.856	24954
837.993	24882
838.131	24897
838.269	24639
838.406	24772
838.544	24798
838.681	24601
838.819	24437
838.956	24338
839.094	24346
839.231	24388
839.369	24475
839.506	24688
839.643	24585
839.781	24262
839.918	24327
840.055	24262
840.193	24235
840.33	24216
840.467	24258
840.604	24182
840.742	24410
840.879	24091
841.016	24057
841.153	24174
841.29	24365
841.427	24133
841.564	24334
841.701	24251
841.838	24277
841.975	24114
842.112	24129
842.249	24026
842.385	23870
842.522	24133
842.659	24087
842.796	24018
842.933	24049
843.069	23961
843.206	23950
843.343	24038
843.479	23950
843.616	24041
843.752	23786
843.889	23817
844.025	23855
844.162	23843
844.298	23969
844.435	23695
844.571	23779
844.708	23840
844.844	23832
844.98	23977
845.117	23859
845.253	23661
845.389	23653
845.525	23764
845.661	23661
845.798	23425
845.934	23509
846.07	23433
846.206	23387
846.342	23589
846.478	23638
846.614	23200
846.75	23162
846.886	23132
847.022	23341
847.158	23242
847.294	23231
847.429	23254
847.565	23307
847.701	23345
847.837	23052
847.972	22923
848.108	23041
848.244	23037
848.379	22831
848.515	22725
848.65	22675
848.786	22702
848.921	22820
849.057	22809
849.192	22942
849.328	22809
849.463	22854
849.598	22706
849.734	22717
849.869	22740
850.004	22618
850.14	22607
850.275	22577
850.41	22550
850.545	22466
850.68	22550
850.815	22675
850.95	22466
851.085	22645
851.22	22557
851.355	22603
851.49	22538
851.625	22664
851.76	22592
851.895	22462
852.03	22535
852.165	22580
852.299	22577
852.434	22687
852.569	22504
852.703	22603
852.838	22622
852.973	22641
853.107	22592
853.242	22478
853.376	22455
853.511	22314
853.645	22310
853.78	22432
853.914	22386
854.048	22390
854.183	22303
854.317	22447
854.451	22622
854.585	22386
854.72	22375
854.854	22402
854.988	22375
855.122	22470
855.256	22348
855.39	22310
855.524	22413
855.658	22561
855.792	22333
855.926	22417
856.06	22322
856.194	22440
856.327	22386
856.461	22375
856.595	22295
856.729	22451
856.862	22577
856.996	22382
857.13	22382
857.263	22489
857.397	22451
857.53	22379
857.664	22363
857.797	22318
857.931	22440
858.064	22443
858.197	22615
858.331	22246
858.464	22322
858.597	22234
858.731	22367
858.864	22314
858.997	22394
859.13	22287
859.263	22497
859.396	22333
859.529	22390
859.662	22360
859.795	22356
859.928	22413
860.061	22489
860.194	22588
860.327	22493
860.46	22329
860.592	22497
860.725	22649
860.858	22481
860.99	22386
861.123	22341
861.256	22356
861.388	22314
861.521	23216
861.653	22162
861.786	22128
861.918	22249
862.05	22337
862.183	22329
862.315	22363
862.447	22382
862.58	22344
862.712	22128
862.844	22067
862.976	22112
863.108	22154
863.24	22656
863.372	22010
863.504	22055
863.636	22078
863.768	22109
863.9	22131
864.032	21892
864.164	22101
864.296	22063
864.428	22128
864.559	22139
864.691	22124
864.823	21983
864.954	22036
865.086	21983
865.217	21979
865.349	21949
865.48	21930
865.612	21975
865.743	22124
865.875	22067
866.006	21876
866.137	22021
866.269	21945
866.4	21903
866.531	21804
866.662	21884
866.793	21873
866.924	21861
867.055	22010
867.186	22025
867.317	21778
867.448	21751
867.579	21781
867.71	21808
867.841	21694
867.972	21949
868.103	21907
868.233	21827
868.364	21937
868.495	22010
868.625	22188
868.756	22204
868.886	22105
869.017	22082
869.147	22196
869.278	22211
869.408	22105
869.539	22044
869.669	22166
869.799	22196
869.929	22261
870.06	22185
870.19	22497
870.32	22398
870.45	22478
870.58	22428
870.71	22615
870.84	22691
870.97	22489
871.1	22561
871.23	22626
871.36	22850
871.489	22626
871.619	22744
871.749	22698
871.879	22812
872.008	22858
872.138	22713
872.267	22759
872.397	22607
872.526	22603
872.656	22535
872.785	22649
872.915	22706
873.044	22740
873.173	22656
873.303	22767
873.432	22740
873.561	22885
873.69	22717
873.819	22740
873.948	22889
874.077	22664
874.206	22691
874.335	22698
874.464	22858
874.593	22995
874.722	23006
874.851	22949
874.979	23189
875.108	22919
875.237	22946
875.365	22915
875.494	22797
875.623	23086
875.751	23006
875.88	22957
876.008	22984
876.136	23124
876.265	23379
876.393	23539
876.521	23474
876.65	23459
876.778	23280
876.906	23307
877.034	23292
877.162	23284
877.29	23212
877.418	23406
877.546	23208
877.674	23345
877.802	23296
877.93	23216
878.058	23330
878.185	23200
878.313	23299
878.441	23170
878.568	23170
878.696	23220
878.824	23318
878.951	23387
879.079	23528
879.206	23528
879.333	23425
879.461	23368
879.588	23235
879.715	23467
879.842	23531
879.97	23311
880.097	23204
880.224	23162
880.351	23117
880.478	23208
880.605	23132
880.732	23200
880.859	23398
880.986	23132
881.112	23151
881.239	23010
881.366	22866
881.493	22885
881.619	22664
881.746	22729
881.872	22759
881.999	22607
882.125	22546
882.252	22740
882.378	22683
882.505	22896
882.631	22679
882.757	22325
882.883	22542
883.01	22405
883.136	22284
883.262	22337
883.388	22188
883.514	22390
883.64	22447
883.766	22322
883.892	22192
884.018	22078
884.143	22306
884.269	22375
884.395	22013
884.52	22013
884.646	22074
884.772	21937
884.897	21835
885.023	22006
885.148	22078
885.274	22139
885.399	22070
885.524	22029
885.65	22025
885.775	22017
885.9	21964
886.025	22078
886.15	22021
886.275	21991
886.4	21998
886.525	21850
886.65	22055
886.775	21846
886.9	22032
887.025	22158
887.149	21956
887.274	21945
887.399	21800
887.523	21793
887.648	21778
887.773	21667
887.897	21907
888.021	21709
888.146	21641
888.27	21949
888.395	21865
888.519	21854
888.643	21762
888.767	21736
888.891	21774
889.015	21538
889.139	21488
889.263	21564
889.387	21564
889.511	21747
889.635	21568
889.759	21511
889.883	21583
890.006	21515
890.13	21667
890.254	21443
890.377	21526
890.501	21245
890.624	21245
890.748	21370
890.871	21256
890.995	21013
891.118	21100
891.241	21146
891.364	21214
891.488	21135
891.611	21135
891.734	21066
891.857	21043
891.98	21180
892.103	21138
892.226	21036
892.349	20998
892.471	21013
892.594	21077
892.717	20952
892.839	21093
892.962	21055
893.085	21074
893.207	20944
893.33	20815
893.452	20937
893.575	21047
893.697	20998
893.819	21154
893.941	21241
894.064	21100
894.186	20895
894.308	20804
894.43	21036
894.552	21180
894.674	20994
894.796	20811
894.918	20876
895.04	20876
895.161	21062
895.283	20967
895.405	20975
895.526	20902
895.648	20994
895.769	21036
895.891	21043
896.012	21001
896.134	20986
896.255	20971
896.376	20838
896.498	21032
896.619	20994
896.74	20895
896.861	20956
896.982	21359
897.103	21393
897.224	21275
897.345	21230
897.466	21173
897.587	21165
897.708	21321
897.828	21161
897.949	21112
898.07	20956
898.19	21089
898.311	21226
898.431	21161
898.552	21036
898.672	21260
898.792	21294
898.913	21256
899.033	21055
899.153	21055
899.273	20864
899.393	20921
899.513	20971
899.633	20883
899.753	20811
899.873	20921
899.993	21043
900.113	20868
900.232	20929
900.352	20849
900.472	20758
900.591	20670
900.711	20716
900.83	20674
900.95	20765
901.069	20686
901.189	20549
901.308	20362
901.427	20290
901.546	20339
901.665	20183
901.784	20294
901.904	20103
902.023	20065
902.141	19723
902.26	19780
902.379	19799
902.498	19799
902.617	19727
902.735	19769
902.854	19609
902.973	19708
903.091	19525
903.21	19365
903.328	19335
903.446	19301
903.565	19152
903.683	19194
903.801	19042
903.919	19110
904.038	19133
904.156	18932
904.274	19012
904.392	18894
904.51	18943
904.627	19012
904.745	19031
904.863	19034
904.981	18741
905.098	18654
905.216	18528
905.334	18669
905.451	18665
905.569	18627
905.686	18521
905.803	18551
905.921	18365
906.038	18578
906.155	18464
906.272	18289
906.389	18380
906.506	18171
906.623	18251
906.74	18148
906.857	18140
906.974	18133
907.091	18178
907.208	18399
907.324	18289
907.441	17958
907.557	17855
907.674	17783
907.79	17779
907.907	17802
908.023	17939
908.139	17927
908.256	17802
908.372	17699
908.488	17714
908.604	17737
908.72	17573
908.836	17512
908.952	17532
909.068	17585
909.184	17695
909.3	17509
909.415	17634
909.531	17528
909.647	17299
909.762	17356
909.878	17311
909.993	17284
910.108	17296
910.224	17181
910.339	17235
910.454	17067
910.57	17102
910.685	16980
910.8	17269
910.915	17265
911.03	17056
911.145	16900
911.259	16866
911.374	16847
911.489	16805
911.604	16713
911.718	16607
911.833	16645
911.947	16462
912.062	16481
912.176	16588
912.291	16599
912.405	16611
912.519	16752
912.633	16816
912.748	16679
912.862	16542
912.976	16394
913.09	16360
913.204	16421
913.318	16512
913.431	16447
913.545	16489
913.659	16580
913.772	16363
913.886	16207
914	16131
914.113	16310
914.226	16249
914.34	16310
914.453	16078
914.566	16166
914.68	16078
914.793	16074
914.906	15869
915.019	15838
915.132	15838
915.245	15789
915.358	15736
915.47	15789
915.583	15778
915.696	15755
915.809	15911
915.921	15907
916.034	15633
916.146	15694
916.259	15622
916.371	15755
916.483	15698
916.595	15652
916.708	15595
916.82	15667
916.932	15572
917.044	15595
917.156	15488
917.268	15481
917.38	15378
917.491	15393
917.603	15458
917.715	15595
917.826	15538
917.938	15447
918.049	15287
918.161	15291
918.272	15481
918.384	15488
918.495	15382
918.606	15165
918.717	15104
918.828	15256
918.939	15207
919.05	14994
919.161	15184
919.272	14925
919.383	14925
919.494	15291
919.604	15412
919.715	15169
919.826	15058
919.936	15024
920.047	15173
920.157	15100
920.267	15310
920.378	15169
920.488	15001
920.598	15272
920.708	15397
920.818	15245
920.928	15199
921.038	15374
921.148	15382
921.258	15005
921.368	14910
921.477	14861
921.587	14788
921.697	14746
921.806	14758
921.916	14712
922.025	14507
922.134	14499
922.244	14427
922.353	14465
922.462	14343
922.571	14301
922.68	14164
922.789	14058
922.898	14134
923.007	14073
923.116	14145
923.224	14088
923.333	14092
923.442	13898
923.55	13883
923.659	13959
923.767	14001
923.876	13814
923.984	13868
924.092	13731
924.201	13841
924.309	13879
924.417	13727
924.525	13704
924.633	13750
924.741	14556
924.849	13506
924.956	13799
925.064	13529
925.172	13407
925.279	13415
925.387	13529
925.494	13487
925.602	13643
925.709	13556
925.816	13468
925.924	13483
926.031	13506
926.138	13472
926.245	13441
926.352	13274
926.459	13449
926.566	13449
926.673	13396
926.779	13080
926.886	13236
926.993	13133
927.099	13095
927.206	12916
927.312	13061
927.419	12996
927.525	13008
927.631	13061
927.737	12909
927.843	12894
927.95	12753
928.056	12829
928.162	12783
928.267	12913
928.373	13468
928.479	12882
928.585	12673
928.69	12783
928.796	12776
928.901	12669
929.007	12570
929.112	12726
929.218	12654
929.323	12475
929.428	12578
929.533	12749
929.638	12506
929.743	12506
929.848	12582
929.953	12467
930.058	12327
930.163	12258
930.267	12235
930.372	12433
930.477	12266
930.581	12467
930.685	12346
930.79	12144
930.894	12125
930.998	12072
931.103	12190
931.207	11786
931.311	11802
931.415	11676
931.519	11524
931.623	11440
