Data from test_V78500241_2514.txt Node
Date: Fri Mar 25 15:59:12 CST 2022
User: usil
Spectrometer: V785-0024
Trigger mode: 0
Integration Time (sec): 4.000000E-1
Scans to average: 1
Nonlinearity correction enabled: false
Boxcar width: 0
Storing dark spectrum: false
XAxis mode: Wavelengths
Number of Pixels in Spectrum: 1024
>>>>>Begin Spectral Data<<<<<
801.071	28828
801.214	28748
801.356	28519
801.499	28538
801.641	28303
801.783	28325
801.926	28341
802.068	28375
802.211	28386
802.353	28211
802.496	28196
802.638	28097
802.78	27987
802.923	28002
803.065	27983
803.208	27941
803.35	28029
803.492	28246
803.635	28226
803.777	28147
803.919	28375
804.061	28645
804.204	28280
804.346	28287
804.488	28120
804.63	28226
804.773	28219
804.915	28360
805.057	28287
805.199	28337
805.341	28447
805.483	28413
805.626	28306
805.768	28276
805.91	28421
806.052	28596
806.194	28421
806.336	28630
806.478	28424
806.62	28382
806.762	28550
806.904	28717
807.046	28995
807.188	28858
807.33	28877
807.472	28923
807.614	28942
807.756	28778
807.898	28862
808.04	28809
808.182	28801
808.324	28816
808.465	28740
808.607	29022
808.749	29098
808.891	29277
809.033	29261
809.174	29299
809.316	29170
809.458	29098
809.6	29014
809.741	29322
809.883	29303
810.025	29573
810.166	29509
810.308	29505
810.45	29425
810.591	29250
810.733	29151
810.875	29147
811.016	29033
811.158	29006
811.299	29269
811.441	29318
811.582	29406
811.724	29246
811.865	29124
812.007	29193
812.148	29296
812.29	29200
812.431	29520
812.573	29452
812.714	29668
812.855	29687
812.997	29756
813.138	29802
813.279	29703
813.421	29718
813.562	29752
813.703	29505
813.845	29299
813.986	29124
814.127	29006
814.268	28881
814.41	28946
814.551	28805
814.692	28896
814.833	28858
814.974	28805
815.115	28835
815.256	28805
815.397	28683
815.539	28790
815.68	28653
815.821	28611
815.962	28710
816.103	28687
816.244	28611
816.385	28474
816.526	28546
816.666	28131
816.807	28032
816.948	28116
817.089	28261
817.23	28093
817.371	28173
817.512	28135
817.653	28067
817.793	28055
817.934	28120
818.075	28280
818.216	28143
818.356	28021
818.497	28086
818.638	27854
818.778	27922
818.919	27979
819.06	28051
819.2	28048
819.341	28166
819.481	28143
819.622	28314
819.762	28500
819.903	28508
820.043	28386
820.184	28413
820.324	28306
820.465	28398
820.605	28398
820.746	28299
820.886	28284
821.026	28318
821.167	28188
821.307	28348
821.447	28242
821.588	28116
821.728	28078
821.868	27831
822.008	27709
822.149	27686
822.289	27625
822.429	27466
822.569	27420
822.709	27344
822.849	27108
822.99	27047
823.13	27093
823.27	27207
823.41	26960
823.55	26834
823.69	27020
823.83	26963
823.97	26956
824.11	26857
824.25	26705
824.389	26861
824.529	26765
824.669	26944
824.809	27055
824.949	26834
825.089	26925
825.228	26796
825.368	26762
825.508	26678
825.648	26701
825.787	26838
825.927	26594
826.067	26617
826.206	26754
826.346	26727
826.485	26914
826.625	26663
826.765	26693
826.904	26815
827.044	26568
827.183	26473
827.323	26484
827.462	26549
827.601	26389
827.741	26355
827.88	26488
828.02	26400
828.159	26492
828.298	26465
828.437	26537
828.577	26438
828.716	26518
828.855	26313
828.994	26126
829.134	26168
829.273	26153
829.412	25986
829.551	26005
829.69	26100
829.829	26115
829.968	26126
830.107	26073
830.246	26210
830.385	26134
830.524	26081
830.663	25936
830.802	25830
830.941	25700
831.08	25868
831.219	25837
831.357	25769
831.496	25959
831.635	25685
831.774	25651
831.913	25601
832.051	25445
832.19	25407
832.329	25544
832.467	25434
832.606	25430
832.744	25396
832.883	25114
833.022	25320
833.16	25388
833.299	25422
833.437	25388
833.576	25491
833.714	25343
833.852	25407
833.991	25422
834.129	25495
834.267	25419
834.406	25453
834.544	25533
834.682	25495
834.821	25335
834.959	25605
835.097	25438
835.235	25495
835.373	25441
835.511	25411
835.65	25388
835.788	25365
835.926	25187
836.064	25183
836.202	25050
836.34	25198
836.478	25274
836.615	25080
836.753	25343
836.891	25274
837.029	25346
837.167	25217
837.305	25148
837.443	25080
837.58	25046
837.718	25069
837.856	25076
837.993	25110
838.131	24943
838.269	24916
838.406	25012
838.544	24981
838.681	24722
838.819	24798
838.956	24521
839.094	24513
839.231	24715
839.369	24814
839.506	24894
839.643	24817
839.781	24555
839.918	24369
840.055	24540
840.193	24547
840.33	24547
840.467	24502
840.604	24669
840.742	24795
840.879	24270
841.016	24384
841.153	24258
841.29	24582
841.427	24300
841.564	24384
841.701	24509
841.838	24384
841.975	24315
842.112	24334
842.249	24319
842.385	24174
842.522	24582
842.659	24209
842.796	24353
842.933	24232
843.069	23973
843.206	24209
843.343	24228
843.479	24159
843.616	24155
843.752	24026
843.889	23992
844.025	24091
844.162	24068
844.298	24064
844.435	23965
844.571	23901
844.708	24136
844.844	24266
844.98	24015
845.117	24030
845.253	24011
845.389	23866
845.525	23794
845.661	23805
845.798	23764
845.934	23726
846.07	23760
846.206	23703
846.342	23813
846.478	23665
846.614	23345
846.75	23493
846.886	23520
847.022	23585
847.158	23478
847.294	23448
847.429	23417
847.565	23425
847.701	23630
847.837	23277
847.972	23162
848.108	23280
848.244	23162
848.379	23003
848.515	22938
848.65	22984
848.786	23143
848.921	22980
849.057	22999
849.192	23090
849.328	23064
849.463	22930
849.598	22999
849.734	22927
849.869	22938
850.004	22744
850.14	22900
850.275	22942
850.41	22561
850.545	22675
850.68	22740
850.815	22771
850.95	22759
851.085	22968
851.22	22835
851.355	22774
851.49	22877
851.625	22710
851.76	22774
851.895	22733
852.03	22740
852.165	22786
852.299	22828
852.434	22828
852.569	22835
852.703	22740
852.838	22805
852.973	22824
853.107	22923
853.242	22592
853.376	22561
853.511	22455
853.645	22554
853.78	22615
853.914	22706
854.048	22375
854.183	22645
854.317	22626
854.451	22873
854.585	22508
854.72	22596
854.854	22645
854.988	22565
855.122	22462
855.256	22440
855.39	22523
855.524	22672
855.658	22626
855.792	22584
855.926	22679
856.06	22706
856.194	22706
856.327	22569
856.461	22626
856.595	22641
856.729	22641
856.862	22824
856.996	22588
857.13	22740
857.263	22839
857.397	22634
857.53	22580
857.664	22653
857.797	22698
857.931	22843
858.064	22538
858.197	22664
858.331	22580
858.464	22584
858.597	22497
858.731	22542
858.864	22622
858.997	22618
859.13	22736
859.263	22565
859.396	22656
859.529	22577
859.662	22504
859.795	22622
859.928	22588
860.061	22778
860.194	22786
860.327	22752
860.46	22752
860.592	22721
860.725	22793
860.858	22809
860.99	22603
861.123	22630
861.256	22649
861.388	22679
861.521	23311
861.653	22516
861.786	22318
861.918	22516
862.05	22409
862.183	22611
862.315	22478
862.447	22500
862.58	22550
862.712	22367
862.844	22436
862.976	22493
863.108	22474
863.24	22820
863.372	22246
863.504	22462
863.636	22310
863.768	22417
863.9	22493
864.032	22272
864.164	22181
864.296	22348
864.428	22398
864.559	22428
864.691	22310
864.823	22322
864.954	22280
865.086	22257
865.217	22249
865.349	22287
865.48	22192
865.612	22139
865.743	22337
865.875	22268
866.006	22162
866.137	22215
866.269	22230
866.4	22196
866.531	22120
866.662	22128
866.793	22120
866.924	22249
867.055	22204
867.186	22154
867.317	22063
867.448	21979
867.579	22101
867.71	22006
867.841	21983
867.972	22177
868.103	22093
868.233	22105
868.364	22139
868.495	22265
868.625	22344
868.756	22459
868.886	22367
869.017	22284
869.147	22474
869.278	22405
869.408	22337
869.539	22409
869.669	22382
869.799	22325
869.929	22462
870.06	22417
870.19	22603
870.32	22580
870.45	22767
870.58	22755
870.71	22797
870.84	22805
870.97	22763
871.1	22782
871.23	22839
871.36	22881
871.489	22892
871.619	22809
871.749	22976
871.879	22999
872.008	23098
872.138	23056
872.267	22934
872.397	22862
872.526	22831
872.656	22961
872.785	22797
872.915	23010
873.044	23006
873.173	23044
873.303	22965
873.432	23037
873.561	23083
873.69	23121
873.819	23147
873.948	23086
874.077	23025
874.206	22999
874.335	23044
874.464	22946
874.593	23311
874.722	23064
874.851	23315
874.979	23216
875.108	23292
875.237	23140
875.365	23174
875.494	23109
875.623	23239
875.751	23288
875.88	23376
876.008	23322
876.136	23360
876.265	23718
876.393	23687
876.521	23771
876.65	23642
876.778	23509
876.906	23531
877.034	23543
877.162	23589
877.29	23524
877.418	23570
877.546	23535
877.674	23482
877.802	23627
877.93	23547
878.058	23535
878.185	23471
878.313	23543
878.441	23478
878.568	23402
878.696	23421
878.824	23573
878.951	23699
879.079	23824
879.206	23809
879.333	23703
879.461	23604
879.588	23653
879.715	23543
879.842	23923
879.97	23562
880.097	23284
880.224	23383
880.351	23349
880.478	23452
880.605	23334
880.732	23326
880.859	23684
880.986	23391
881.112	23315
881.239	23212
881.366	22968
881.493	22953
881.619	22885
881.746	22911
881.872	22927
881.999	22942
882.125	22850
882.252	23037
882.378	22850
882.505	22953
882.631	22771
882.757	22660
882.883	22679
883.01	22691
883.136	22592
883.262	22474
883.388	22394
883.514	22485
883.64	22561
883.766	22447
883.892	22306
884.018	22523
884.143	22466
884.269	22603
884.395	22268
884.52	22257
884.646	22219
884.772	22120
884.897	22131
885.023	22188
885.148	22234
885.274	22341
885.399	22242
885.524	22325
885.65	22284
885.775	22139
885.9	22249
886.025	22363
886.15	22246
886.275	22139
886.4	22135
886.525	22067
886.65	22086
886.775	22192
886.9	22333
887.025	22394
887.149	22150
887.274	22017
887.399	22017
887.523	21884
887.648	21937
887.773	21979
887.897	22173
888.021	22040
888.146	21869
888.27	22029
888.395	22055
888.519	22025
888.643	21842
888.767	22021
888.891	21819
889.015	21816
889.139	21793
889.263	21724
889.387	21804
889.511	21998
889.635	21968
889.759	21800
889.883	21713
890.006	21895
890.13	21861
890.254	21709
890.377	21690
890.501	21454
890.624	21557
890.748	21504
890.871	21401
890.995	21252
891.118	21306
891.241	21412
891.364	21306
891.488	21477
891.611	21283
891.734	21348
891.857	21287
891.98	21302
892.103	21332
892.226	21222
892.349	21306
892.471	21131
892.594	21135
892.717	21252
892.839	21233
892.962	21180
893.085	21283
893.207	21176
893.33	21020
893.452	21142
893.575	21207
893.697	21176
893.819	21325
893.941	21416
894.064	21317
894.186	21165
894.308	21047
894.43	21268
894.552	21363
894.674	21207
894.796	21009
894.918	21165
895.04	21142
895.161	21169
895.283	21245
895.405	21199
895.526	21245
895.648	21161
895.769	21188
895.891	21302
896.012	21233
896.134	21218
896.255	21241
896.376	21100
896.498	21104
896.619	21184
896.74	21222
896.861	21211
896.982	21443
897.103	21587
897.224	21450
897.345	21450
897.466	21287
897.587	21401
897.708	21561
897.828	21439
897.949	21279
898.07	21222
898.19	21252
898.311	21435
898.431	21302
898.552	21332
898.672	21424
898.792	21507
898.913	21355
899.033	21264
899.153	21055
899.273	20960
899.393	21173
899.513	21039
899.633	21161
899.753	21116
899.873	21032
899.993	21180
900.113	21051
900.232	21127
900.352	20933
900.472	20937
900.591	20773
900.711	20792
900.83	20914
900.95	20853
901.069	20849
901.189	20785
901.308	20579
901.427	20488
901.546	20511
901.665	20461
901.784	20355
901.904	20336
902.023	20252
902.141	20031
902.26	19978
902.379	20039
902.498	19978
902.617	19898
902.735	20035
902.854	19959
902.973	19799
903.091	19548
903.21	19556
903.328	19624
903.446	19487
903.565	19453
903.683	19449
903.801	19259
903.919	19324
904.038	19263
904.156	19190
904.274	19225
904.392	19107
904.51	19019
904.627	19095
904.745	19202
904.863	19141
904.981	18901
905.098	18916
905.216	18772
905.334	18863
905.451	18837
905.569	18741
905.686	18890
905.803	18730
905.921	18601
906.038	18719
906.155	18688
906.272	18521
906.389	18422
906.506	18418
906.623	18315
906.74	18330
906.857	18213
906.974	18216
907.091	18311
907.208	18460
907.324	18395
907.441	18292
907.557	18091
907.674	18083
907.79	18011
907.907	17992
908.023	18171
908.139	18053
908.256	17969
908.372	17866
908.488	17939
908.604	17878
908.72	17832
908.836	17748
908.952	17779
909.068	17722
909.184	17889
909.3	17687
909.415	17745
909.531	17745
909.647	17505
909.762	17501
909.878	17467
909.993	17395
910.108	17459
910.224	17455
910.339	17410
910.454	17269
910.57	17220
910.685	17075
910.8	17452
910.915	17429
911.03	17235
911.145	17006
911.259	17109
911.374	17029
911.489	17045
911.604	16999
911.718	16793
911.833	16801
911.947	16736
912.062	16656
912.176	16691
912.291	16763
912.405	16843
912.519	17037
912.633	16968
912.748	16759
912.862	16721
912.976	16618
913.09	16550
913.204	16569
913.318	16611
913.431	16713
913.545	16645
913.659	16641
913.772	16451
913.886	16333
914	16382
914.113	16405
914.226	16504
914.34	16527
914.453	16226
914.566	16459
914.68	16162
914.793	16185
914.906	15979
915.019	16006
915.132	15880
915.245	15835
915.358	16013
915.47	15975
915.583	15972
915.696	16063
915.809	16048
915.921	16078
916.034	15884
916.146	15823
916.259	15838
916.371	15960
916.483	15953
916.595	15793
916.708	15762
916.82	15819
916.932	15774
917.044	15709
917.156	15648
917.268	15549
917.38	15656
917.491	15584
917.603	15534
917.715	15717
917.826	15675
917.938	15466
918.049	15420
918.161	15469
918.272	15663
918.384	15584
918.495	15431
918.606	15302
918.717	15218
918.828	15382
918.939	15367
919.05	15169
919.161	15264
919.272	15055
919.383	15192
919.494	15256
919.604	15504
919.715	15230
919.826	15138
919.936	15154
920.047	15283
920.157	15272
920.267	15382
920.378	15214
920.488	15260
920.598	15466
920.708	15496
920.818	15397
920.928	15405
921.038	15526
921.148	15420
921.258	15154
921.368	15108
921.477	14994
921.587	14891
921.697	14804
921.806	14986
921.916	14804
922.025	14693
922.134	14552
922.244	14575
922.353	14602
922.462	14499
922.571	14446
922.68	14290
922.789	14290
922.898	14176
923.007	14176
923.116	14229
923.224	14164
923.333	14187
923.442	14054
923.55	14115
923.659	13993
923.767	14111
923.876	13963
923.984	14149
924.092	13955
924.201	13947
924.309	14001
924.417	13986
924.525	13875
924.633	13811
924.741	14621
924.849	13658
924.956	13830
925.064	13639
925.172	13578
925.279	13639
925.387	13628
925.494	13601
925.602	13624
925.709	13636
925.816	13552
925.924	13491
926.031	13662
926.138	13601
926.245	13594
926.352	13472
926.459	13643
926.566	13563
926.673	13453
926.779	13388
926.886	13331
926.993	13331
927.099	13247
927.206	13198
927.312	13091
927.419	13183
927.525	13114
927.631	13164
927.737	13114
927.843	13061
927.95	12859
928.056	12993
928.162	12996
928.267	13091
928.373	13693
928.479	13057
928.585	12810
928.69	12981
928.796	12909
928.901	12776
929.007	12654
929.112	12829
929.218	12806
929.323	12623
929.428	12745
929.533	12798
929.638	12525
929.743	12566
929.848	12677
929.953	12597
930.058	12448
930.163	12285
930.267	12407
930.372	12544
930.477	12243
930.581	12566
930.685	12365
930.79	12216
930.894	12224
930.998	12201
931.103	12384
931.207	11950
931.311	11961
931.415	11775
931.519	11596
931.623	11619
