Data from test_V78500241_3119.txt Node
Date: Fri Mar 25 16:03:24 CST 2022
User: usil
Spectrometer: V785-0024
Trigger mode: 0
Integration Time (sec): 4.000000E-1
Scans to average: 1
Nonlinearity correction enabled: false
Boxcar width: 0
Storing dark spectrum: false
XAxis mode: Wavelengths
Number of Pixels in Spectrum: 1024
>>>>>Begin Spectral Data<<<<<
801.071	28793
801.214	28835
801.356	28428
801.499	28603
801.641	28363
801.783	28424
801.926	28554
802.068	28325
802.211	28280
802.353	28348
802.496	28143
802.638	28078
802.78	28036
802.923	27972
803.065	27972
803.208	28017
803.35	28196
803.492	28200
803.635	28314
803.777	28150
803.919	28287
804.061	28656
804.204	28455
804.346	28257
804.488	28276
804.63	28322
804.773	28246
804.915	28375
805.057	28405
805.199	28287
805.341	28405
805.483	28405
805.626	28409
805.768	28500
805.91	28573
806.052	28432
806.194	28356
806.336	28672
806.478	28561
806.62	28386
806.762	28592
806.904	28805
807.046	28877
807.188	28911
807.33	29052
807.472	29113
807.614	28923
807.756	28877
807.898	28774
808.04	28752
808.182	28573
808.324	28645
808.465	28976
808.607	29010
808.749	29223
808.891	29258
809.033	29334
809.174	29223
809.316	29155
809.458	29261
809.6	29117
809.741	29083
809.883	29425
810.025	29459
810.166	29543
810.308	29505
810.45	29414
810.591	29539
810.733	29303
810.875	29162
811.016	29044
811.158	28991
811.299	29235
811.441	29581
811.582	29375
811.724	29284
811.865	29155
812.007	29193
812.148	29189
812.29	29162
812.431	29440
812.573	29604
812.714	29668
812.855	29710
812.997	29874
813.138	29840
813.279	29882
813.421	29786
813.562	29798
813.703	29524
813.845	29353
813.986	29140
814.127	29010
814.268	28888
814.41	28968
814.551	28915
814.692	28839
814.833	28999
814.974	28797
815.115	28911
815.256	28793
815.397	28812
815.539	28812
815.68	28664
815.821	28713
815.962	28824
816.103	28763
816.244	28664
816.385	28459
816.526	28474
816.666	28287
816.807	28215
816.948	28242
817.089	28382
817.23	28234
817.371	28303
817.512	28322
817.653	28219
817.793	28166
817.934	28276
818.075	28207
818.216	28280
818.356	28116
818.497	28200
818.638	27968
818.778	27873
818.919	27998
819.06	28204
819.2	28139
819.341	28238
819.481	28322
819.622	28481
819.762	28603
819.903	28615
820.043	28413
820.184	28344
820.324	28447
820.465	28512
820.605	28310
820.746	28344
820.886	28188
821.026	28394
821.167	28246
821.307	28371
821.447	28268
821.588	28147
821.728	28017
821.868	27857
822.008	27694
822.149	27812
822.289	27667
822.429	27401
822.569	27424
822.709	27450
822.849	27165
822.99	27184
823.13	27188
823.27	27154
823.41	27039
823.55	27020
823.69	27093
823.83	27203
823.97	27089
824.11	26853
824.25	26910
824.389	26902
824.529	26906
824.669	26834
824.809	27017
824.949	26979
825.089	26990
825.228	26842
825.368	26724
825.508	26861
825.648	26785
825.787	26823
825.927	26720
826.067	26819
826.206	26750
826.346	26842
826.485	26830
826.625	26746
826.765	26857
826.904	26899
827.044	26651
827.183	26663
827.323	26636
827.462	26648
827.601	26606
827.741	26564
827.88	26571
828.02	26404
828.159	26621
828.298	26404
828.437	26503
828.577	26427
828.716	26530
828.855	26351
828.994	26233
829.134	26221
829.273	26286
829.412	26115
829.551	26081
829.69	26115
829.829	26301
829.968	26282
830.107	26332
830.246	26103
830.385	26138
830.524	26088
830.663	25928
830.802	25852
830.941	25822
831.08	25628
831.219	25849
831.357	25951
831.496	25928
831.635	25928
831.774	25746
831.913	25670
832.051	25689
832.19	25700
832.329	25662
832.467	25559
832.606	25445
832.744	25518
832.883	25400
833.022	25339
833.16	25400
833.299	25434
833.437	25479
833.576	25616
833.714	25491
833.852	25620
833.991	25499
834.129	25635
834.267	25624
834.406	25575
834.544	25548
834.682	25468
834.821	25605
834.959	25696
835.097	25476
835.235	25460
835.373	25502
835.511	25548
835.65	25270
835.788	25449
835.926	25259
836.064	25225
836.202	25202
836.34	25384
836.478	25453
836.615	25392
836.753	25339
836.891	25411
837.029	25270
837.167	25327
837.305	25377
837.443	25312
837.58	25164
837.718	25217
837.856	25122
837.993	25118
838.131	25263
838.269	24958
838.406	25095
838.544	25069
838.681	24920
838.819	24749
838.956	24760
839.094	24585
839.231	24711
839.369	24741
839.506	25046
839.643	24825
839.781	24650
839.918	24536
840.055	24688
840.193	24677
840.33	24593
840.467	24658
840.604	24673
840.742	24867
840.879	24437
841.016	24460
841.153	24536
841.29	24654
841.427	24464
841.564	24570
841.701	24445
841.838	24422
841.975	24410
842.112	24608
842.249	24452
842.385	24319
842.522	24475
842.659	24437
842.796	24384
842.933	24220
843.069	24445
843.206	24197
843.343	24353
843.479	24350
843.616	24376
843.752	24163
843.889	24197
844.025	24125
844.162	24125
844.298	24129
844.435	24095
844.571	24129
844.708	24152
844.844	24285
844.98	24114
845.117	24197
845.253	24072
845.389	23977
845.525	24114
845.661	23984
845.798	23802
845.934	23973
846.07	23863
846.206	23718
846.342	23931
846.478	23783
846.614	23592
846.75	23433
846.886	23585
847.022	23589
847.158	23585
847.294	23551
847.429	23509
847.565	23528
847.701	23760
847.837	23280
847.972	23292
848.108	23379
848.244	23299
848.379	23220
848.515	23166
848.65	23052
848.786	23181
848.921	23155
849.057	23117
849.192	23296
849.328	23140
849.463	23132
849.598	23010
849.734	22984
849.869	22972
850.004	22995
850.14	22904
850.275	22991
850.41	22862
850.545	22824
850.68	22797
850.815	22919
850.95	22949
851.085	23136
851.22	23029
851.355	22987
851.49	22858
851.625	22877
851.76	22786
851.895	22687
852.03	22752
852.165	22866
852.299	22938
852.434	22968
852.569	23067
852.703	22976
852.838	22805
852.973	22949
853.107	22961
853.242	22915
853.376	22694
853.511	22535
853.645	22679
853.78	22820
853.914	22698
854.048	22645
854.183	22767
854.317	22721
854.451	22904
854.585	22778
854.72	22683
854.854	22744
854.988	22584
855.122	22797
855.256	22462
855.39	22691
855.524	22767
855.658	22850
855.792	22763
855.926	22771
856.06	22828
856.194	22854
856.327	22721
856.461	22691
856.595	22725
856.729	22736
856.862	22805
856.996	22698
857.13	22763
857.263	22927
857.397	22938
857.53	22679
857.664	22740
857.797	22660
857.931	22824
858.064	22664
858.197	22771
858.331	22649
858.464	22668
858.597	22557
858.731	22672
858.864	22675
858.997	22744
859.13	22774
859.263	22694
859.396	22763
859.529	22763
859.662	22645
859.795	22531
859.928	22824
860.061	22839
860.194	22942
860.327	22831
860.46	22656
860.592	22767
860.725	22797
860.858	22858
860.99	22805
861.123	22584
861.256	22603
861.388	22691
861.521	23246
861.653	22599
861.786	22569
861.918	22561
862.05	22485
862.183	22611
862.315	22763
862.447	22599
862.58	22592
862.712	22424
862.844	22386
862.976	22577
863.108	22474
863.24	22919
863.372	22432
863.504	22432
863.636	22394
863.768	22466
863.9	22390
864.032	22436
864.164	22417
864.296	22428
864.428	22542
864.559	22443
864.691	22519
864.823	22451
864.954	22344
865.086	22348
865.217	22360
865.349	22162
865.48	22329
865.612	22375
865.743	22405
865.875	22348
866.006	22242
866.137	22371
866.269	22246
866.4	22185
866.531	22211
866.662	22135
866.793	22150
866.924	22158
867.055	22303
867.186	22253
867.317	22158
867.448	22044
867.579	22162
867.71	22154
867.841	22169
867.972	22295
868.103	22329
868.233	22268
868.364	22268
868.495	22348
868.625	22394
868.756	22622
868.886	22424
869.017	22497
869.147	22466
869.278	22466
869.408	22531
869.539	22402
869.669	22531
869.799	22531
869.929	22607
870.06	22557
870.19	22942
870.32	22790
870.45	22763
870.58	22934
870.71	22942
870.84	23041
870.97	22930
871.1	22957
871.23	23056
871.36	23018
871.489	22930
871.619	23124
871.749	23071
871.879	23033
872.008	23212
872.138	22995
872.267	23113
872.397	23029
872.526	22820
872.656	22995
872.785	22702
872.915	22923
873.044	23128
873.173	23143
873.303	23098
873.432	23098
873.561	23227
873.69	23037
873.819	23166
873.948	23200
874.077	23117
874.206	23033
874.335	23044
874.464	23269
874.593	23353
874.722	23216
874.851	23436
874.979	23269
875.108	23330
875.237	23391
875.365	23136
875.494	23330
875.623	23277
875.751	23273
875.88	23440
876.008	23505
876.136	23474
876.265	23680
876.393	23684
876.521	23779
876.65	23779
876.778	23676
876.906	23714
877.034	23627
877.162	23573
877.29	23600
877.418	23619
877.546	23684
877.674	23600
877.802	23611
877.93	23668
878.058	23509
878.185	23448
878.313	23372
878.441	23638
878.568	23482
878.696	23661
878.824	23691
878.951	23680
879.079	23661
879.206	23817
879.333	23737
879.461	23687
879.588	23672
879.715	23927
879.842	24011
879.97	23824
880.097	23410
880.224	23440
880.351	23486
880.478	23604
880.605	23516
880.732	23402
880.859	23630
880.986	23520
881.112	23482
881.239	23269
881.366	23083
881.493	23128
881.619	23079
881.746	23029
881.872	22896
881.999	23003
882.125	23014
882.252	22942
882.378	22972
882.505	23014
882.631	22911
882.757	22801
882.883	22717
883.01	22812
883.136	22755
883.262	22546
883.388	22481
883.514	22683
883.64	22706
883.766	22641
883.892	22443
884.018	22584
884.143	22656
884.269	22729
884.395	22512
884.52	22230
884.646	22268
884.772	22325
884.897	22249
885.023	22325
885.148	22344
885.274	22481
885.399	22417
885.524	22394
885.65	22306
885.775	22230
885.9	22417
886.025	22459
886.15	22500
886.275	22341
886.4	22143
886.525	22306
886.65	22280
886.775	22207
886.9	22375
887.025	22516
887.149	22310
887.274	22150
887.399	22150
887.523	21987
887.648	22109
887.773	21964
887.897	22173
888.021	22051
888.146	21991
888.27	22154
888.395	22067
888.519	22006
888.643	22261
888.767	22105
888.891	21861
889.015	21793
889.139	21937
889.263	21770
889.387	21941
889.511	22059
889.635	21983
889.759	21774
889.883	21823
890.006	21857
890.13	22051
890.254	21690
890.377	21797
890.501	21561
890.624	21454
890.748	21599
890.871	21622
890.995	21348
891.118	21389
891.241	21526
891.364	21435
891.488	21488
891.611	21199
891.734	21340
891.857	21466
891.98	21344
892.103	21492
892.226	21340
892.349	21359
892.471	21226
892.594	21389
892.717	21207
892.839	21332
892.962	21325
893.085	21431
893.207	21279
893.33	21192
893.452	21150
893.575	21370
893.697	21199
893.819	21431
893.941	21587
894.064	21348
894.186	21188
894.308	21100
894.43	21382
894.552	21477
894.674	21401
894.796	21165
894.918	21233
895.04	21256
895.161	21260
895.283	21397
895.405	21222
895.526	21161
895.648	21283
895.769	21279
895.891	21302
896.012	21214
896.134	21310
896.255	21184
896.376	21237
896.498	21218
896.619	21325
896.74	21222
896.861	21504
896.982	21481
897.103	21682
897.224	21534
897.345	21298
897.466	21370
897.587	21408
897.708	21557
897.828	21439
897.949	21405
898.07	21226
898.19	21519
898.311	21477
898.431	21302
898.552	21405
898.672	21511
898.792	21618
898.913	21477
899.033	21256
899.153	21275
899.273	21188
899.393	21169
899.513	21302
899.633	21264
899.753	21146
899.873	21058
899.993	21237
900.113	21112
900.232	21161
900.352	21135
900.472	21032
900.591	20963
900.711	21043
900.83	20868
900.95	21176
901.069	21036
901.189	20674
901.308	20712
901.427	20461
901.546	20602
901.665	20404
901.784	20526
901.904	20438
902.023	20202
902.141	19932
902.26	20031
902.379	20096
902.498	20035
902.617	19913
902.735	20096
902.854	19970
902.973	19989
903.091	19742
903.21	19666
903.328	19693
903.446	19719
903.565	19457
903.683	19590
903.801	19327
903.919	19426
904.038	19392
904.156	19198
904.274	19369
904.392	19129
904.51	19190
904.627	19304
904.745	19247
904.863	19244
904.981	19080
905.098	18840
905.216	19004
905.334	18935
905.451	18829
905.569	18837
905.686	18859
905.803	18886
905.921	18665
906.038	18700
906.155	18616
906.272	18403
906.389	18506
906.506	18486
906.623	18437
906.74	18506
906.857	18232
906.974	18247
907.091	18429
907.208	18509
907.324	18422
907.441	18190
907.557	18201
907.674	18144
907.79	17980
907.907	18083
908.023	18133
908.139	18125
908.256	18019
908.372	17901
908.488	18030
908.604	17840
908.72	17855
908.836	17771
908.952	17863
909.068	17946
909.184	17821
909.3	17745
909.415	17813
909.531	17889
909.647	17760
909.762	17581
909.878	17440
909.993	17486
910.108	17421
910.224	17417
910.339	17467
910.454	17379
910.57	17334
910.685	17273
910.8	17425
910.915	17482
911.03	17216
911.145	17212
911.259	17143
911.374	17006
911.489	17048
911.604	16968
911.718	16824
911.833	16946
911.947	16820
912.062	16755
912.176	16934
912.291	16839
912.405	16904
912.519	16953
912.633	16976
912.748	16820
912.862	16809
912.976	16584
913.09	16611
913.204	16702
913.318	16725
913.431	16763
913.545	16736
913.659	16694
913.772	16565
913.886	16519
914	16462
914.113	16546
914.226	16481
914.34	16500
914.453	16379
914.566	16417
914.68	16226
914.793	16211
914.906	16044
915.019	15972
915.132	15964
915.245	15994
915.358	16055
915.47	16017
915.583	16040
915.696	16032
915.809	16207
915.921	16124
916.034	16078
916.146	15918
916.259	15903
916.371	16059
916.483	16032
916.595	15846
916.708	15816
916.82	15850
916.932	15838
917.044	15778
917.156	15667
917.268	15500
917.38	15591
917.491	15622
917.603	15701
917.715	15690
917.826	15781
917.938	15618
918.049	15564
918.161	15568
918.272	15701
918.384	15701
918.495	15492
918.606	15477
918.717	15317
918.828	15359
918.939	15458
919.05	15245
919.161	15386
919.272	15233
919.383	15112
919.494	15374
919.604	15568
919.715	15351
919.826	15287
919.936	15287
920.047	15439
920.157	15294
920.267	15431
920.378	15329
920.488	15291
920.598	15450
920.708	15595
920.818	15443
920.928	15439
921.038	15610
921.148	15515
921.258	15249
921.368	15211
921.477	14998
921.587	14998
921.697	14906
921.806	14944
921.916	14883
922.025	14777
922.134	14716
922.244	14636
922.353	14716
922.462	14583
922.571	14533
922.68	14385
922.789	14305
922.898	14324
923.007	14298
923.116	14343
923.224	14298
923.333	14225
923.442	14187
923.55	14123
923.659	14199
923.767	14202
923.876	14035
923.984	14107
924.092	14031
924.201	14054
924.309	14008
924.417	13982
924.525	14008
924.633	13974
924.741	14765
924.849	13799
924.956	13833
925.064	13704
925.172	13655
925.279	13674
925.387	13753
925.494	13746
925.602	13803
925.709	13753
925.816	13586
925.924	13499
926.031	13761
926.138	13518
926.245	13685
926.352	13537
926.459	13647
926.566	13582
926.673	13571
926.779	13460
926.886	13533
926.993	13282
927.099	13327
927.206	13145
927.312	13076
927.419	13187
927.525	13194
927.631	13289
927.737	13057
927.843	12993
927.95	12973
928.056	13012
928.162	12996
928.267	13080
928.373	13685
928.479	13122
928.585	12882
928.69	12913
928.796	13000
928.901	12924
929.007	12779
929.112	12890
929.218	12806
929.323	12776
929.428	12715
929.533	12783
929.638	12673
929.743	12684
929.848	12696
929.953	12631
930.058	12627
930.163	12445
930.267	12479
930.372	12582
930.477	12338
930.581	12582
930.685	12414
930.79	12251
930.894	12213
930.998	12136
931.103	12467
931.207	11958
931.311	11984
931.415	11889
931.519	11646
931.623	11566
