Data from test_V78500241_1704.txt Node
Date: Fri Mar 25 15:53:36 CST 2022
User: usil
Spectrometer: V785-0024
Trigger mode: 0
Integration Time (sec): 4.000000E-1
Scans to average: 1
Nonlinearity correction enabled: false
Boxcar width: 0
Storing dark spectrum: false
XAxis mode: Wavelengths
Number of Pixels in Spectrum: 1024
>>>>>Begin Spectral Data<<<<<
801.071	28261
801.214	28162
801.356	27876
801.499	27857
801.641	27762
801.783	27812
801.926	27949
802.068	27663
802.211	27720
802.353	27705
802.496	27633
802.638	27458
802.78	27466
802.923	27367
803.065	27306
803.208	27287
803.35	27526
803.492	27492
803.635	27690
803.777	27538
803.919	27682
804.061	27987
804.204	27568
804.346	27698
804.488	27420
804.63	27652
804.773	27641
804.915	27587
805.057	27819
805.199	27603
805.341	27743
805.483	27785
805.626	27781
805.768	27690
805.91	27907
806.052	27850
806.194	27762
806.336	27945
806.478	27819
806.62	27953
806.762	28078
806.904	27998
807.046	28291
807.188	28177
807.33	28356
807.472	28276
807.614	28067
807.756	28059
807.898	28211
808.04	27975
808.182	28097
808.324	28150
808.465	28124
808.607	28379
808.749	28356
808.891	28557
809.033	28603
809.174	28474
809.316	28455
809.458	28516
809.6	28386
809.741	28565
809.883	28577
810.025	28809
810.166	28710
810.308	28725
810.45	28710
810.591	28546
810.733	28485
810.875	28455
811.016	28413
811.158	28356
811.299	28409
811.441	28603
811.582	28698
811.724	28436
811.865	28363
812.007	28440
812.148	28497
812.29	28451
812.431	28630
812.573	28565
812.714	28888
812.855	28847
812.997	29014
813.138	29246
813.279	29143
813.421	29071
813.562	28961
813.703	28911
813.845	28672
813.986	28497
814.127	28204
814.268	28162
814.41	28242
814.551	28147
814.692	28181
814.833	28131
814.974	28223
815.115	28158
815.256	27991
815.397	28116
815.539	28147
815.68	27930
815.821	27911
815.962	27914
816.103	28044
816.244	27922
816.385	27732
816.526	27800
816.666	27633
816.807	27458
816.948	27576
817.089	27492
817.23	27515
817.371	27325
817.512	27538
817.653	27447
817.793	27306
817.934	27378
818.075	27427
818.216	27488
818.356	27340
818.497	27348
818.638	27252
818.778	27165
818.919	27283
819.06	27230
819.2	27317
819.341	27431
819.481	27454
819.622	27663
819.762	27819
819.903	27724
820.043	27561
820.184	27583
820.324	27496
820.465	27637
820.605	27545
820.746	27538
820.886	27462
821.026	27553
821.167	27523
821.307	27481
821.447	27359
821.588	27450
821.728	27252
821.868	27093
822.008	27081
822.149	26948
822.289	26918
822.429	26689
822.569	26651
822.709	26697
822.849	26404
822.99	26442
823.13	26362
823.27	26377
823.41	26248
823.55	26240
823.69	26305
823.83	26294
823.97	26267
824.11	26096
824.25	26096
824.389	26054
824.529	26054
824.669	26054
824.809	26206
824.949	26229
825.089	26142
825.228	26073
825.368	25921
825.508	25898
825.648	25921
825.787	25951
825.927	26054
826.067	25921
826.206	26050
826.346	25978
826.485	26024
826.625	26024
826.765	25989
826.904	25902
827.044	25670
827.183	25666
827.323	25700
827.462	25719
827.601	25727
827.741	25597
827.88	25704
828.02	25586
828.159	25624
828.298	25765
828.437	25837
828.577	25632
828.716	25693
828.855	25559
828.994	25365
829.134	25445
829.273	25244
829.412	25377
829.551	25373
829.69	25373
829.829	25346
829.968	25339
830.107	25457
830.246	25343
830.385	25274
830.524	25133
830.663	25080
830.802	24954
830.941	24951
831.08	25019
831.219	24894
831.357	25038
831.496	25282
831.635	24962
831.774	24954
831.913	25000
832.051	24734
832.19	24760
832.329	24661
832.467	24631
832.606	24684
832.744	24665
832.883	24551
833.022	24604
833.16	24608
833.299	24707
833.437	24700
833.576	24528
833.714	24711
833.852	24642
833.991	24787
834.129	24703
834.267	24764
834.406	24791
834.544	24597
834.682	24631
834.821	24612
834.959	24783
835.097	24566
835.235	24696
835.373	24574
835.511	24631
835.65	24505
835.788	24563
835.926	24448
836.064	24407
836.202	24285
836.34	24414
836.478	24437
836.615	24460
836.753	24521
836.891	24540
837.029	24597
837.167	24505
837.305	24300
837.443	24407
837.58	24372
837.718	24357
837.856	24315
837.993	24296
838.131	24243
838.269	24205
838.406	24159
838.544	24251
838.681	23946
838.819	24087
838.956	23752
839.094	23623
839.231	23817
839.369	23965
839.506	24262
839.643	24022
839.781	23752
839.918	23710
840.055	23870
840.193	23786
840.33	23707
840.467	23775
840.604	23687
840.742	24026
840.879	23642
841.016	23745
841.153	23600
841.29	23958
841.427	23672
841.564	23699
841.701	23562
841.838	23729
841.975	23615
842.112	23646
842.249	23630
842.385	23509
842.522	23665
842.659	23608
842.796	23516
842.933	23490
843.069	23391
843.206	23387
843.343	23421
843.479	23486
843.616	23539
843.752	23250
843.889	23292
844.025	23318
844.162	23250
844.298	23330
844.435	23231
844.571	23296
844.708	23330
844.844	23482
844.98	23467
845.117	23368
845.253	23128
845.389	23124
845.525	23044
845.661	23109
845.798	23052
845.934	22908
846.07	22892
846.206	23003
846.342	23022
846.478	23006
846.614	22786
846.75	22641
846.886	22721
847.022	22759
847.158	22744
847.294	22694
847.429	22801
847.565	22664
847.701	22965
847.837	22451
847.972	22493
848.108	22538
848.244	22550
848.379	22230
848.515	22424
848.65	22226
848.786	22314
848.921	22253
849.057	22443
849.192	22268
849.328	22348
849.463	22432
849.598	22280
849.734	22257
849.869	22177
850.004	22105
850.14	22200
850.275	22131
850.41	21937
850.545	22051
850.68	22010
850.815	22097
850.95	22013
851.085	22280
851.22	22139
851.355	22044
851.49	22093
851.625	22200
851.76	22169
851.895	22032
852.03	21987
852.165	22063
852.299	22029
852.434	22166
852.569	22021
852.703	22036
852.838	22063
852.973	22253
853.107	22192
853.242	21953
853.376	22002
853.511	21797
853.645	21819
853.78	22124
853.914	21968
854.048	21895
854.183	21770
854.317	21873
854.451	21998
854.585	21861
854.72	21800
854.854	21975
854.988	21960
855.122	21846
855.256	21743
855.39	21854
855.524	21994
855.658	21934
855.792	21926
855.926	21934
856.06	21869
856.194	21941
856.327	21911
856.461	21808
856.595	21797
856.729	21785
856.862	21907
856.996	22010
857.13	22067
857.263	21934
857.397	22048
857.53	21850
857.664	21975
857.797	21915
857.931	21956
858.064	21922
858.197	22097
858.331	21937
858.464	21789
858.597	21797
858.731	21823
858.864	21835
858.997	21762
859.13	21838
859.263	21964
859.396	22025
859.529	21861
859.662	21922
859.795	21816
859.928	21899
860.061	22010
860.194	22188
860.327	22051
860.46	21953
860.592	22086
860.725	22002
860.858	22063
860.99	21865
861.123	21812
861.256	21937
861.388	21850
861.521	22531
861.653	21797
861.786	21751
861.918	21747
862.05	21812
862.183	21770
862.315	21907
862.447	21816
862.58	21759
862.712	21538
862.844	21564
862.976	21717
863.108	21507
863.24	22032
863.372	21561
863.504	21599
863.636	21545
863.768	21614
863.9	21587
864.032	21523
864.164	21530
864.296	21633
864.428	21656
864.559	21603
864.691	21629
864.823	21622
864.954	21648
865.086	21553
865.217	21648
865.349	21492
865.48	21447
865.612	21526
865.743	21675
865.875	21500
866.006	21496
866.137	21435
866.269	21576
866.4	21473
866.531	21389
866.662	21389
866.793	21344
866.924	21351
867.055	21428
867.186	21504
867.317	21336
867.448	21325
867.579	21359
867.71	21443
867.841	21344
867.972	21431
868.103	21329
868.233	21538
868.364	21336
868.495	21469
868.625	21618
868.756	21797
868.886	21564
869.017	21644
869.147	21732
869.278	21713
869.408	21690
869.539	21720
869.669	21675
869.799	21823
869.929	21728
870.06	21789
870.19	21998
870.32	21945
870.45	22078
870.58	22048
870.71	22139
870.84	22204
870.97	22044
871.1	22097
871.23	22215
871.36	22257
871.489	22196
871.619	22219
871.749	22150
871.879	22261
872.008	22367
872.138	22200
872.267	22230
872.397	22097
872.526	22147
872.656	22112
872.785	22234
872.915	22291
873.044	22246
873.173	22291
873.303	22284
873.432	22230
873.561	22398
873.69	22306
873.819	22341
873.948	22409
874.077	22363
874.206	22162
874.335	22299
874.464	22402
874.593	22535
874.722	22303
874.851	22417
874.979	22470
875.108	22615
875.237	22402
875.365	22394
875.494	22382
875.623	22516
875.751	22443
875.88	22413
876.008	22641
876.136	22641
876.265	22984
876.393	22965
876.521	22953
876.65	22957
876.778	22752
876.906	22889
877.034	22675
877.162	22927
877.29	22805
877.418	22858
877.546	22881
877.674	22919
877.802	22774
877.93	22942
878.058	22919
878.185	22721
878.313	22786
878.441	22778
878.568	22668
878.696	22740
878.824	22919
878.951	23048
879.079	23041
879.206	23083
879.333	22980
879.461	22911
879.588	22927
879.715	23174
879.842	22999
879.97	22927
880.097	22759
880.224	22561
880.351	22706
880.478	22862
880.605	22596
880.732	22611
880.859	22805
880.986	22637
881.112	22729
881.239	22565
881.366	22341
881.493	22451
881.619	22261
881.746	22238
881.872	22204
881.999	22207
882.125	22219
882.252	22265
882.378	22219
882.505	22432
882.631	22105
882.757	21846
882.883	21975
883.01	21888
883.136	21781
883.262	21793
883.388	21698
883.514	21922
883.64	21945
883.766	21724
883.892	21705
884.018	21591
884.143	21880
884.269	21865
884.395	21625
884.52	21564
884.646	21576
884.772	21397
884.897	21332
885.023	21549
885.148	21568
885.274	21781
885.399	21473
885.524	21435
885.65	21557
885.775	21576
885.9	21545
886.025	21603
886.15	21561
886.275	21496
886.4	21496
886.525	21477
886.65	21370
886.775	21538
886.9	21637
887.025	21785
887.149	21454
887.274	21332
887.399	21306
887.523	21443
887.648	21165
887.773	21230
887.897	21408
888.021	21298
888.146	21211
888.27	21397
888.395	21336
888.519	21272
888.643	21313
888.767	21370
888.891	21275
889.015	21108
889.139	21161
889.263	21173
889.387	21108
889.511	21279
889.635	21135
889.759	21119
889.883	21146
890.006	21146
890.13	21116
890.254	21020
890.377	21020
890.501	20979
890.624	20910
890.748	20807
890.871	20758
890.995	20609
891.118	20579
891.241	20746
891.364	20625
891.488	20773
891.611	20785
891.734	20682
891.857	20800
891.98	20670
892.103	20640
892.226	20712
892.349	20579
892.471	20545
892.594	20450
892.717	20689
892.839	20469
892.962	20609
893.085	20674
893.207	20431
893.33	20389
893.452	20442
893.575	20606
893.697	20476
893.819	20659
893.941	20754
894.064	20762
894.186	20492
894.308	20438
894.43	20693
894.552	20594
894.674	20667
894.796	20431
894.918	20442
895.04	20419
895.161	20594
895.283	20644
895.405	20469
895.526	20689
895.648	20469
895.769	20579
895.891	20739
896.012	20636
896.134	20579
896.255	20625
896.376	20442
896.498	20575
896.619	20533
896.74	20587
896.861	20602
896.982	20918
897.103	21123
897.224	20853
897.345	20792
897.466	20659
897.587	20807
897.708	20944
897.828	20857
897.949	20788
898.07	20629
898.19	20617
898.311	20804
898.431	20731
898.552	20857
898.672	20750
898.792	20876
898.913	20731
899.033	20682
899.153	20655
899.273	20613
899.393	20484
899.513	20575
899.633	20571
899.753	20492
899.873	20575
899.993	20560
900.113	20575
900.232	20476
900.352	20507
900.472	20427
900.591	20305
900.711	20305
900.83	20214
900.95	20301
901.069	20358
901.189	20134
901.308	20012
901.427	19814
901.546	19898
901.665	19906
901.784	19833
901.904	19818
902.023	19628
902.141	19521
902.26	19434
902.379	19430
902.498	19316
902.617	19480
902.735	19343
902.854	19324
902.973	19270
903.091	18989
903.21	19012
903.328	19122
903.446	18981
903.565	18966
903.683	18932
903.801	18753
903.919	18772
904.038	18798
904.156	18688
904.274	18650
904.392	18528
904.51	18559
904.627	18665
904.745	18574
904.863	18593
904.981	18353
905.098	18239
905.216	18224
905.334	18330
905.451	18285
905.569	18258
905.686	18353
905.803	18285
905.921	18034
906.038	18174
906.155	18106
906.272	17954
906.389	18091
906.506	17840
906.623	17809
906.74	17729
906.857	17653
906.974	17710
907.091	17912
907.208	17996
907.324	17855
907.441	17718
907.557	17581
907.674	17547
907.79	17493
907.907	17436
908.023	17638
908.139	17520
908.256	17490
908.372	17474
908.488	17421
908.604	17330
908.72	17155
908.836	17181
908.952	17204
909.068	17250
909.184	17353
909.3	17277
909.415	17273
909.531	17261
909.647	17006
909.762	16885
909.878	16805
909.993	16976
910.108	16942
910.224	16900
910.339	16972
910.454	16873
910.57	16706
910.685	16675
910.8	16934
910.915	16873
911.03	16786
911.145	16565
911.259	16611
911.374	16535
911.489	16538
911.604	16348
911.718	16265
911.833	16246
911.947	16211
912.062	16109
912.176	16344
912.291	16230
912.405	16272
912.519	16310
912.633	16428
912.748	16402
912.862	16139
912.976	16265
913.09	16013
913.204	16029
913.318	16036
913.431	16143
913.545	16139
913.659	16219
913.772	16013
913.886	15922
914	15880
914.113	15945
914.226	15918
914.34	15922
914.453	15675
914.566	15884
914.68	15762
914.793	15774
914.906	15568
915.019	15393
915.132	15469
915.245	15458
915.358	15485
915.47	15416
915.583	15469
915.696	15447
915.809	15629
915.921	15614
916.034	15408
916.146	15325
916.259	15348
916.371	15435
916.483	15466
916.595	15310
916.708	15310
916.82	15275
916.932	15302
917.044	15249
917.156	15211
917.268	15142
917.38	15165
917.491	15150
917.603	15074
917.715	15123
917.826	15252
917.938	15097
918.049	15020
918.161	15188
918.272	15272
918.384	15237
918.495	15058
918.606	14861
918.717	14758
918.828	14883
918.939	14895
919.05	14807
919.161	14830
919.272	14674
919.383	14727
919.494	14891
919.604	15055
919.715	14834
919.826	14701
919.936	14781
920.047	14849
920.157	14792
920.267	14979
920.378	14823
920.488	14800
920.598	15024
920.708	15058
920.818	14960
920.928	14883
921.038	14975
921.148	15039
921.258	14746
921.368	14644
921.477	14568
921.587	14533
921.697	14450
921.806	14533
921.916	14400
922.025	14248
922.134	14164
922.244	14153
922.353	14256
922.462	14008
922.571	14043
922.68	13822
922.789	13742
922.898	13967
923.007	13761
923.116	13750
923.224	13807
923.333	13765
923.442	13666
923.55	13632
923.659	13643
923.767	13662
923.876	13559
923.984	13651
924.092	13518
924.201	13616
924.309	13594
924.417	13575
924.525	13616
924.633	13506
924.741	14275
924.849	13244
924.956	13403
925.064	13282
925.172	13213
925.279	13232
925.387	13304
925.494	13190
925.602	13384
925.709	13312
925.816	13015
925.924	13206
926.031	13266
926.138	13171
926.245	13263
926.352	13019
926.459	13217
926.566	13240
926.673	13149
926.779	13008
926.886	12966
926.993	12837
927.099	12878
927.206	12715
927.312	12745
927.419	12757
927.525	12684
927.631	12787
927.737	12627
927.843	12684
927.95	12437
928.056	12570
928.162	12593
928.267	12669
928.373	13160
928.479	12722
928.585	12498
928.69	12525
928.796	12498
928.901	12350
929.007	12262
929.112	12517
929.218	12372
929.323	12380
929.428	12319
929.533	12483
929.638	12254
929.743	12216
929.848	12277
929.953	12334
930.058	12194
930.163	11996
930.267	12022
930.372	12178
930.477	11999
930.581	12232
930.685	12129
930.79	11863
930.894	11855
930.998	11901
931.103	11878
931.207	11604
931.311	11417
931.415	11452
931.519	11307
931.623	11261
