Data from test_V78500241_3033.txt Node
Date: Fri Mar 25 16:02:48 CST 2022
User: usil
Spectrometer: V785-0024
Trigger mode: 0
Integration Time (sec): 4.000000E-1
Scans to average: 1
Nonlinearity correction enabled: false
Boxcar width: 0
Storing dark spectrum: false
XAxis mode: Wavelengths
Number of Pixels in Spectrum: 1024
>>>>>Begin Spectral Data<<<<<
801.071	28759
801.214	28858
801.356	28504
801.499	28538
801.641	28371
801.783	28356
801.926	28569
802.068	28417
802.211	28348
802.353	28356
802.496	28276
802.638	28074
802.78	28093
802.923	28044
803.065	27998
803.208	28017
803.35	28234
803.492	28185
803.635	28394
803.777	28337
803.919	28436
804.061	28843
804.204	28386
804.346	28329
804.488	28322
804.63	28394
804.773	28200
804.915	28451
805.057	28485
805.199	28310
805.341	28489
805.483	28557
805.626	28516
805.768	28481
805.91	28478
806.052	28618
806.194	28485
806.336	28698
806.478	28569
806.62	28573
806.762	28740
806.904	28820
807.046	29079
807.188	29048
807.33	28946
807.472	29254
807.614	29014
807.756	28984
807.898	28877
808.04	28790
808.182	28721
808.324	28896
808.465	28782
808.607	29124
808.749	29239
808.891	29269
809.033	29463
809.174	29239
809.316	29162
809.458	29349
809.6	29159
809.741	29261
809.883	29436
810.025	29558
810.166	29577
810.308	29531
810.45	29596
810.591	29429
810.733	29227
810.875	29239
811.016	29155
811.158	29273
811.299	29322
811.441	29402
811.582	29402
811.724	29212
811.865	29208
812.007	29261
812.148	29315
812.29	29258
812.431	29433
812.573	29551
812.714	29585
812.855	29798
812.997	29958
813.138	29912
813.279	29866
813.421	29843
813.562	29821
813.703	29585
813.845	29543
813.986	29220
814.127	28961
814.268	29029
814.41	29079
814.551	29064
814.692	29048
814.833	28694
814.974	28911
815.115	28843
815.256	28771
815.397	28896
815.539	28930
815.68	28752
815.821	28740
815.962	28946
816.103	28793
816.244	28565
816.385	28405
816.526	28630
816.666	28455
816.807	28166
816.948	28257
817.089	28459
817.23	28253
817.371	28257
817.512	28299
817.653	28230
817.793	28207
817.934	28337
818.075	28413
818.216	28207
818.356	28230
818.497	28181
818.638	28006
818.778	28158
818.919	28025
819.06	28211
819.2	28135
819.341	28226
819.481	28363
819.622	28523
819.762	28649
819.903	28489
820.043	28554
820.184	28360
820.324	28409
820.465	28554
820.605	28394
820.746	28440
820.886	28352
821.026	28413
821.167	28546
821.307	28386
821.447	28291
821.588	28242
821.728	28074
821.868	27968
822.008	27861
822.149	27865
822.289	27724
822.429	27568
822.569	27302
822.709	27370
822.849	27348
822.99	27203
823.13	27252
823.27	27184
823.41	27089
823.55	26944
823.69	26940
823.83	27138
823.97	26967
824.11	26861
824.25	26914
824.389	26925
824.529	27051
824.669	26853
824.809	27009
824.949	27108
825.089	26982
825.228	26948
825.368	26811
825.508	26765
825.648	26868
825.787	26975
825.927	26861
826.067	26720
826.206	26804
826.346	26921
826.485	26735
826.625	26701
826.765	26891
826.904	26792
827.044	26568
827.183	26545
827.323	26419
827.462	26632
827.601	26492
827.741	26465
827.88	26579
828.02	26355
828.159	26499
828.298	26575
828.437	26720
828.577	26492
828.716	26484
828.855	26374
828.994	26157
829.134	26275
829.273	26225
829.412	26290
829.551	26206
829.69	26419
829.829	26248
829.968	26263
830.107	26355
830.246	26252
830.385	26221
830.524	25982
830.663	25936
830.802	26016
830.941	25887
831.08	25795
831.219	25871
831.357	25883
831.496	26122
831.635	25875
831.774	25681
831.913	25616
832.051	25628
832.19	25685
832.329	25616
832.467	25571
832.606	25514
832.744	25438
832.883	25441
833.022	25339
833.16	25449
833.299	25445
833.437	25472
833.576	25548
833.714	25559
833.852	25518
833.991	25689
834.129	25662
834.267	25529
834.406	25620
834.544	25578
834.682	25491
834.821	25540
834.959	25632
835.097	25529
835.235	25518
835.373	25575
835.511	25601
835.65	25430
835.788	25411
835.926	25202
836.064	25244
836.202	25164
836.34	25419
836.478	25472
836.615	25285
836.753	25392
836.891	25434
837.029	25369
837.167	25259
837.305	25225
837.443	25194
837.58	25141
837.718	25358
837.856	25392
837.993	25228
838.131	25126
838.269	24943
838.406	25164
838.544	25072
838.681	25038
838.819	24871
838.956	24627
839.094	24700
839.231	24741
839.369	24817
839.506	24966
839.643	24992
839.781	24726
839.918	24525
840.055	24604
840.193	24593
840.33	24608
840.467	24639
840.604	24661
840.742	24859
840.879	24445
841.016	24441
841.153	24517
841.29	24631
841.427	24639
841.564	24547
841.701	24494
841.838	24559
841.975	24445
842.112	24467
842.249	24513
842.385	24376
842.522	24578
842.659	24407
842.796	24315
842.933	24369
843.069	24369
843.206	24117
843.343	24266
843.479	24292
843.616	24353
843.752	24243
843.889	24155
844.025	24197
844.162	24064
844.298	24232
844.435	24003
844.571	24064
844.708	24285
844.844	24357
844.98	24273
845.117	24174
845.253	24079
845.389	23939
845.525	24079
845.661	23920
845.798	23855
845.934	23923
846.07	23695
846.206	23897
846.342	23977
846.478	23676
846.614	23638
846.75	23436
846.886	23528
847.022	23611
847.158	23764
847.294	23551
847.429	23691
847.565	23592
847.701	23783
847.837	23307
847.972	23315
848.108	23337
848.244	23337
848.379	23174
848.515	23147
848.65	22984
848.786	23003
848.921	23208
849.057	23273
849.192	23151
849.328	23189
849.463	23113
849.598	23159
849.734	22984
849.869	22927
850.004	22927
850.14	22949
850.275	22972
850.41	22755
850.545	22847
850.68	22877
850.815	22930
850.95	22927
851.085	23075
851.22	23064
851.355	22995
851.49	22831
851.625	22896
851.76	22858
851.895	22778
852.03	22877
852.165	22839
852.299	22904
852.434	22930
852.569	22805
852.703	22850
852.838	22965
852.973	23010
853.107	23117
853.242	23041
853.376	22683
853.511	22474
853.645	22710
853.78	22736
853.914	22713
854.048	22668
854.183	22706
854.317	22702
854.451	22816
854.585	22763
854.72	22763
854.854	22885
854.988	22782
855.122	22831
855.256	22672
855.39	22653
855.524	22733
855.658	22755
855.792	22702
855.926	22660
856.06	22774
856.194	22687
856.327	22725
856.461	22664
856.595	22759
856.729	22740
856.862	22805
856.996	22721
857.13	22858
857.263	22755
857.397	22763
857.53	22702
857.664	22839
857.797	22782
857.931	22915
858.064	22729
858.197	22908
858.331	22653
858.464	22679
858.597	22550
858.731	22592
858.864	22592
858.997	22645
859.13	22721
859.263	22710
859.396	22854
859.529	22698
859.662	22809
859.795	22778
859.928	22702
860.061	22862
860.194	22896
860.327	22858
860.46	22889
860.592	22847
860.725	22809
860.858	22904
860.99	22729
861.123	22710
861.256	22824
861.388	22839
861.521	23474
861.653	22584
861.786	22504
861.918	22580
862.05	22778
862.183	22660
862.315	22641
862.447	22725
862.58	22691
862.712	22337
862.844	22333
862.976	22565
863.108	22577
863.24	22721
863.372	22398
863.504	22382
863.636	22409
863.768	22371
863.9	22413
864.032	22405
864.164	22379
864.296	22375
864.428	22504
864.559	22546
864.691	22459
864.823	22398
864.954	22428
865.086	22371
865.217	22390
865.349	22173
865.48	22375
865.612	22329
865.743	22440
865.875	22402
866.006	22367
866.137	22188
866.269	22291
866.4	22344
866.531	22348
866.662	22131
866.793	22363
866.924	22242
867.055	22242
867.186	22238
867.317	22147
867.448	22196
867.579	22196
867.71	22154
867.841	22044
867.972	22291
868.103	22131
868.233	22238
868.364	22181
868.495	22455
868.625	22394
868.756	22462
868.886	22390
869.017	22310
869.147	22531
869.278	22668
869.408	22542
869.539	22367
869.669	22432
869.799	22451
869.929	22618
870.06	22584
870.19	22869
870.32	22710
870.45	22858
870.58	22801
870.71	22881
870.84	22927
870.97	22862
871.1	22927
871.23	23140
871.36	23067
871.489	22911
871.619	22980
871.749	23098
871.879	23113
872.008	23086
872.138	23052
872.267	22999
872.397	22984
872.526	22850
872.656	22896
872.785	22869
872.915	23056
873.044	23269
873.173	23166
873.303	23086
873.432	23113
873.561	23128
873.69	23052
873.819	23098
873.948	23174
874.077	23143
874.206	23147
874.335	23056
874.464	23075
874.593	23288
874.722	23265
874.851	23265
874.979	23531
875.108	23391
875.237	23204
875.365	23242
875.494	23197
875.623	23284
875.751	23288
875.88	23356
876.008	23417
876.136	23444
876.265	23642
876.393	23840
876.521	23836
876.65	23722
876.778	23733
876.906	23634
877.034	23486
877.162	23531
877.29	23551
877.418	23596
877.546	23630
877.674	23634
877.802	23558
877.93	23657
878.058	23482
878.185	23478
878.313	23543
878.441	23543
878.568	23490
878.696	23573
878.824	23539
878.951	23672
879.079	23809
879.206	23813
879.333	23748
879.461	23699
879.588	23779
879.715	23863
879.842	23775
879.97	23661
880.097	23372
880.224	23360
880.351	23501
880.478	23455
880.605	23410
880.732	23474
880.859	23691
880.986	23482
881.112	23360
881.239	23379
881.366	23204
881.493	23140
881.619	23208
881.746	23109
881.872	23022
881.999	23044
882.125	22828
882.252	23033
882.378	22946
882.505	23033
882.631	22904
882.757	22710
882.883	22812
883.01	22675
883.136	22664
883.262	22538
883.388	22607
883.514	22748
883.64	22580
883.766	22630
883.892	22459
884.018	22542
884.143	22599
884.269	22713
884.395	22379
884.52	22230
884.646	22375
884.772	22322
884.897	22291
885.023	22230
885.148	22325
885.274	22516
885.399	22348
885.524	22367
885.65	22276
885.775	22299
885.9	22356
886.025	22268
886.15	22337
886.275	22318
886.4	22192
886.525	22181
886.65	22177
886.775	22169
886.9	22356
887.025	22405
887.149	22375
887.274	22025
887.399	22177
887.523	22059
887.648	22040
887.773	21892
887.897	22093
888.021	22040
888.146	21975
888.27	22219
888.395	22169
888.519	22120
888.643	22078
888.767	22112
888.891	21983
889.015	21736
889.139	21979
889.263	21827
889.387	22006
889.511	21941
889.635	22105
889.759	21774
889.883	21850
890.006	21854
890.13	21960
890.254	21899
890.377	21850
890.501	21580
890.624	21561
890.748	21564
890.871	21595
890.995	21344
891.118	21298
891.241	21443
891.364	21405
891.488	21466
891.611	21393
891.734	21374
891.857	21462
891.98	21447
892.103	21382
892.226	21370
892.349	21176
892.471	21169
892.594	21344
892.717	21340
892.839	21192
892.962	21218
893.085	21302
893.207	21291
893.33	21165
893.452	21077
893.575	21389
893.697	21340
893.819	21397
893.941	21389
894.064	21283
894.186	21245
894.308	21161
894.43	21336
894.552	21393
894.674	21283
894.796	21165
894.918	21146
895.04	21249
895.161	21188
895.283	21386
895.405	21150
895.526	21268
895.648	21245
895.769	21203
895.891	21306
896.012	21359
896.134	21374
896.255	21291
896.376	21089
896.498	21336
896.619	21237
896.74	21249
896.861	21405
896.982	21595
897.103	21762
897.224	21492
897.345	21485
897.466	21378
897.587	21515
897.708	21595
897.828	21568
897.949	21450
898.07	21306
898.19	21397
898.311	21690
898.431	21439
898.552	21386
898.672	21648
898.792	21488
898.913	21344
899.033	21336
899.153	21412
899.273	21150
899.393	21241
899.513	21173
899.633	21173
899.753	21188
899.873	21089
899.993	21275
900.113	21230
900.232	20994
900.352	21146
900.472	21032
900.591	20876
900.711	20990
900.83	20891
900.95	21066
901.069	21051
901.189	20804
901.308	20583
901.427	20488
901.546	20530
901.665	20545
901.784	20617
901.904	20214
902.023	20355
902.141	20100
902.26	20058
902.379	20244
902.498	19989
902.617	19906
902.735	20130
902.854	19959
902.973	19909
903.091	19632
903.21	19582
903.328	19655
903.446	19609
903.565	19616
903.683	19491
903.801	19304
903.919	19464
904.038	19289
904.156	19255
904.274	19244
904.392	19187
904.51	19232
904.627	19164
904.745	19293
904.863	19236
904.981	19076
905.098	18901
905.216	18856
905.334	18924
905.451	18863
905.569	18863
905.686	18935
905.803	18897
905.921	18658
906.038	18863
906.155	18700
906.272	18494
906.389	18677
906.506	18346
906.623	18471
906.74	18403
906.857	18315
906.974	18334
907.091	18506
907.208	18525
907.324	18528
907.441	18350
907.557	18087
907.674	18182
907.79	18060
907.907	18060
908.023	18079
908.139	18155
908.256	17950
908.372	18060
908.488	18064
908.604	17889
908.72	17840
908.836	17832
908.952	17843
909.068	17817
909.184	17946
909.3	17916
909.415	17939
909.531	17828
909.647	17543
909.762	17592
909.878	17478
909.993	17528
910.108	17463
910.224	17471
910.339	17448
910.454	17376
910.57	17356
910.685	17254
910.8	17558
910.915	17417
911.03	17334
911.145	17208
911.259	17102
911.374	17067
911.489	17071
911.604	17105
911.718	16835
911.833	16805
911.947	16698
912.062	16702
912.176	16778
912.291	16809
912.405	16938
912.519	17010
912.633	17056
912.748	16809
912.862	16771
912.976	16675
913.09	16637
913.204	16679
913.318	16679
913.431	16664
913.545	16733
913.659	16786
913.772	16607
913.886	16455
914	16402
914.113	16565
914.226	16481
914.34	16447
914.453	16325
914.566	16493
914.68	16371
914.793	16268
914.906	16059
915.019	16086
915.132	16021
915.245	16059
915.358	16112
915.47	15964
915.583	16040
915.696	16059
915.809	16120
915.921	16120
916.034	15945
916.146	15945
916.259	15812
916.371	15960
916.483	15797
916.595	15941
916.708	15911
916.82	15774
916.932	15808
917.044	15770
917.156	15701
917.268	15732
917.38	15610
917.491	15652
917.603	15736
917.715	15694
917.826	15728
917.938	15504
918.049	15511
918.161	15663
918.272	15701
918.384	15724
918.495	15549
918.606	15359
918.717	15306
918.828	15363
918.939	15408
919.05	15218
919.161	15306
919.272	15100
919.383	15222
919.494	15431
919.604	15553
919.715	15302
919.826	15169
919.936	15264
920.047	15439
920.157	15424
920.267	15477
920.378	15359
920.488	15218
920.598	15408
920.708	15633
920.818	15519
920.928	15450
921.038	15515
921.148	15488
921.258	15195
921.368	15226
921.477	15055
921.587	14921
921.697	14952
921.806	15093
921.916	14872
922.025	14754
922.134	14701
922.244	14655
922.353	14663
922.462	14587
922.571	14469
922.68	14434
922.789	14374
922.898	14301
923.007	14332
923.116	14290
923.224	14305
923.333	14313
923.442	14111
923.55	14161
923.659	14123
923.767	14161
923.876	14088
923.984	14195
924.092	14088
924.201	14088
924.309	14027
924.417	13986
924.525	13925
924.633	13978
924.741	14773
924.849	13734
924.956	13818
925.064	13757
925.172	13636
925.279	13708
925.387	13738
925.494	13685
925.602	13799
925.709	13742
925.816	13582
925.924	13658
926.031	13784
926.138	13597
926.245	13643
926.352	13552
926.459	13651
926.566	13670
926.673	13575
926.779	13358
926.886	13422
926.993	13255
927.099	13255
927.206	13221
927.312	13118
927.419	13228
927.525	13228
927.631	13228
927.737	13095
927.843	13038
927.95	12962
928.056	13129
928.162	13019
928.267	13099
928.373	13731
928.479	13023
928.585	12852
928.69	12962
928.796	12943
928.901	12886
929.007	12753
929.112	12894
929.218	12772
929.323	12779
929.428	12715
929.533	12825
929.638	12612
929.743	12665
929.848	12719
929.953	12688
930.058	12570
930.163	12422
930.267	12448
930.372	12585
930.477	12372
930.581	12616
930.685	12330
930.79	12304
930.894	12311
930.998	12304
931.103	12357
931.207	12053
931.311	11927
931.415	11923
931.519	11676
931.623	11611
