Data from test_V78500241_3571.txt Node
Date: Fri Mar 25 16:06:32 CST 2022
User: usil
Spectrometer: V785-0024
Trigger mode: 0
Integration Time (sec): 4.000000E-1
Scans to average: 1
Nonlinearity correction enabled: false
Boxcar width: 0
Storing dark spectrum: false
XAxis mode: Wavelengths
Number of Pixels in Spectrum: 1024
>>>>>Begin Spectral Data<<<<<
801.071	28850
801.214	28843
801.356	28622
801.499	28550
801.641	28432
801.783	28603
801.926	28363
802.068	28531
802.211	28322
802.353	28192
802.496	28158
802.638	28101
802.78	28101
802.923	28006
803.065	27907
803.208	28097
803.35	28124
803.492	28291
803.635	28371
803.777	28303
803.919	28295
804.061	28683
804.204	28455
804.346	28337
804.488	28337
804.63	28428
804.773	28310
804.915	28481
805.057	28474
805.199	28398
805.341	28443
805.483	28523
805.626	28489
805.768	28367
805.91	28504
806.052	28634
806.194	28394
806.336	28706
806.478	28584
806.62	28523
806.762	28687
806.904	28923
807.046	29048
807.188	28923
807.33	28847
807.472	29147
807.614	28934
807.756	28953
807.898	28888
808.04	28725
808.182	28668
808.324	28991
808.465	28888
808.607	29204
808.749	29022
808.891	29288
809.033	29337
809.174	29360
809.316	29261
809.458	29368
809.6	29227
809.741	29303
809.883	29345
810.025	29554
810.166	29463
810.308	29440
810.45	29436
810.591	29410
810.733	29307
810.875	29178
811.016	29136
811.158	29189
811.299	29239
811.441	29425
811.582	29482
811.724	29254
811.865	29143
812.007	29197
812.148	29280
812.29	29364
812.431	29452
812.573	29528
812.714	29627
812.855	29760
812.997	29870
813.138	29961
813.279	29893
813.421	29794
813.562	29543
813.703	29387
813.845	29455
813.986	29307
814.127	29124
814.268	28923
814.41	28934
814.551	28968
814.692	29022
814.833	28896
814.974	28885
815.115	28972
815.256	28896
815.397	28854
815.539	28862
815.68	28649
815.821	28698
815.962	28771
816.103	28698
816.244	28565
816.385	28573
816.526	28546
816.666	28291
816.807	28162
816.948	28261
817.089	28398
817.23	28291
817.371	28314
817.512	28284
817.653	28253
817.793	28147
817.934	28261
818.075	28287
818.216	28299
818.356	28188
818.497	28284
818.638	28002
818.778	28048
818.919	27998
819.06	28200
819.2	28162
819.341	28177
819.481	28363
819.622	28356
819.762	28637
819.903	28523
820.043	28474
820.184	28337
820.324	28242
820.465	28527
820.605	28424
820.746	28325
820.886	28249
821.026	28443
821.167	28318
821.307	28413
821.447	28238
821.588	28230
821.728	28017
821.868	27911
822.008	27751
822.149	27709
822.289	27713
822.429	27504
822.569	27439
822.709	27443
822.849	27340
822.99	27294
823.13	27230
823.27	27252
823.41	27104
823.55	26880
823.69	27009
823.83	26998
823.97	26933
824.11	26883
824.25	26880
824.389	26921
824.529	26979
824.669	26998
824.809	26998
824.949	26998
825.089	26948
825.228	27001
825.368	26765
825.508	26811
825.648	26788
825.787	26834
825.927	26800
826.067	26712
826.206	26853
826.346	26940
826.485	26849
826.625	26800
826.765	26940
826.904	26826
827.044	26598
827.183	26644
827.323	26446
827.462	26419
827.601	26446
827.741	26492
827.88	26602
828.02	26423
828.159	26495
828.298	26450
828.437	26526
828.577	26499
828.716	26514
828.855	26328
828.994	26183
829.134	26107
829.273	26313
829.412	26107
829.551	26183
829.69	26195
829.829	26195
829.968	26294
830.107	26442
830.246	26180
830.385	26221
830.524	26107
830.663	25902
830.802	25902
830.941	25788
831.08	25742
831.219	25970
831.357	26008
831.496	26046
831.635	25795
831.774	25761
831.913	25830
832.051	25586
832.19	25582
832.329	25514
832.467	25407
832.606	25472
832.744	25343
832.883	25460
833.022	25312
833.16	25472
833.299	25438
833.437	25483
833.576	25377
833.714	25582
833.852	25647
833.991	25666
834.129	25556
834.267	25563
834.406	25476
834.544	25540
834.682	25464
834.821	25472
834.959	25742
835.097	25563
835.235	25616
835.373	25666
835.511	25563
835.65	25392
835.788	25362
835.926	25274
836.064	25084
836.202	25244
836.34	25407
836.478	25438
836.615	25289
836.753	25263
836.891	25457
837.029	25316
837.167	25407
837.305	25129
837.443	25202
837.58	25122
837.718	25270
837.856	25255
837.993	25156
838.131	25198
838.269	24837
838.406	25019
838.544	24856
838.681	24817
838.819	24669
838.956	24642
839.094	24681
839.231	24764
839.369	24696
839.506	25084
839.643	24878
839.781	24578
839.918	24502
840.055	24578
840.193	24525
840.33	24627
840.467	24502
840.604	24620
840.742	24787
840.879	24445
841.016	24494
841.153	24365
841.29	24639
841.427	24563
841.564	24669
841.701	24532
841.838	24464
841.975	24441
842.112	24475
842.249	24471
842.385	24224
842.522	24555
842.659	24414
842.796	24258
842.933	24342
843.069	24220
843.206	24201
843.343	24372
843.479	24315
843.616	24224
843.752	24045
843.889	24045
844.025	24277
844.162	24163
844.298	24140
844.435	24087
844.571	24026
844.708	24125
844.844	24224
844.98	24315
845.117	24197
845.253	23965
845.389	23828
845.525	23878
845.661	23882
845.798	23817
845.934	23882
846.07	23714
846.206	23809
846.342	23942
846.478	23851
846.614	23684
846.75	23566
846.886	23531
847.022	23570
847.158	23448
847.294	23497
847.429	23585
847.565	23516
847.701	23771
847.837	23250
847.972	23235
848.108	23315
848.244	23395
848.379	23193
848.515	23056
848.65	23174
848.786	23113
848.921	23143
849.057	23216
849.192	23140
849.328	23052
849.463	23140
849.598	23056
849.734	23052
849.869	22976
850.004	22919
850.14	22850
850.275	22946
850.41	22801
850.545	22774
850.68	22892
850.815	22961
850.95	22744
851.085	23079
851.22	22923
851.355	22976
851.49	22889
851.625	22812
851.76	22911
851.895	22752
852.03	22835
852.165	22915
852.299	22946
852.434	22938
852.569	22987
852.703	22919
852.838	22904
852.973	22904
853.107	22953
853.242	22774
853.376	22835
853.511	22584
853.645	22519
853.78	22740
853.914	22672
854.048	22649
854.183	22561
854.317	22778
854.451	22923
854.585	22854
854.72	22702
854.854	22748
854.988	22721
855.122	22656
855.256	22519
855.39	22584
855.524	22698
855.658	22683
855.792	22816
855.926	22603
856.06	22618
856.194	22850
856.327	22634
856.461	22721
856.595	22687
856.729	22752
856.862	22942
856.996	22664
857.13	22782
857.263	22824
857.397	22702
857.53	22664
857.664	22748
857.797	22759
857.931	22801
858.064	22618
858.197	22839
858.331	22653
858.464	22630
858.597	22565
858.731	22698
858.864	22626
858.997	22577
859.13	22797
859.263	22717
859.396	22744
859.529	22744
859.662	22733
859.795	22542
859.928	22809
860.061	22866
860.194	22923
860.327	22721
860.46	22717
860.592	22892
860.725	22755
860.858	22850
860.99	22774
861.123	22565
861.256	22675
861.388	22656
861.521	23391
861.653	22542
861.786	22466
861.918	22618
862.05	22607
862.183	22535
862.315	22672
862.447	22660
862.58	22599
862.712	22337
862.844	22421
862.976	22554
863.108	22489
863.24	22763
863.372	22398
863.504	22367
863.636	22417
863.768	22447
863.9	22500
864.032	22337
864.164	22265
864.296	22421
864.428	22527
864.559	22637
864.691	22466
864.823	22569
864.954	22352
865.086	22341
865.217	22272
865.349	22135
865.48	22284
865.612	22276
865.743	22493
865.875	22337
866.006	22287
866.137	22291
866.269	22390
866.4	22238
866.531	22242
866.662	22238
866.793	22207
866.924	22215
867.055	22303
867.186	22265
867.317	22211
867.448	22013
867.579	22234
867.71	22109
867.841	22040
867.972	22295
868.103	22101
868.233	22303
868.364	22116
868.495	22295
868.625	22367
868.756	22546
868.886	22322
869.017	22379
869.147	22474
869.278	22470
869.408	22485
869.539	22462
869.669	22470
869.799	22325
869.929	22580
870.06	22519
870.19	22702
870.32	22660
870.45	22862
870.58	22793
870.71	22976
870.84	22961
870.97	22930
871.1	22915
871.23	23071
871.36	23048
871.489	22976
871.619	23014
871.749	22999
871.879	23132
872.008	22995
872.138	23067
872.267	22980
872.397	22976
872.526	22904
872.656	22862
872.785	22911
872.915	23136
873.044	23037
873.173	23010
873.303	23064
873.432	23227
873.561	23124
873.69	23098
873.819	23010
873.948	23178
874.077	23044
874.206	23041
874.335	23075
874.464	23334
874.593	23292
874.722	23315
874.851	23364
874.979	23360
875.108	23299
875.237	23235
875.365	23239
875.494	23280
875.623	23387
875.751	23235
875.88	23250
876.008	23383
876.136	23448
876.265	23589
876.393	23817
876.521	23794
876.65	23794
876.778	23600
876.906	23646
877.034	23646
877.162	23547
877.29	23425
877.418	23634
877.546	23592
877.674	23623
877.802	23570
877.93	23600
878.058	23535
878.185	23490
878.313	23600
878.441	23649
878.568	23326
878.696	23627
878.824	23608
878.951	23615
879.079	23718
879.206	23935
879.333	23828
879.461	23608
879.588	23691
879.715	23809
879.842	23870
879.97	23646
880.097	23474
880.224	23440
880.351	23455
880.478	23383
880.605	23619
880.732	23436
880.859	23695
880.986	23345
881.112	23501
881.239	23372
881.366	23223
881.493	23067
881.619	22934
881.746	23109
881.872	22953
881.999	22946
882.125	22904
882.252	23155
882.378	23010
882.505	23083
882.631	22839
882.757	22546
882.883	22816
883.01	22615
883.136	22645
883.262	22523
883.388	22516
883.514	22748
883.64	22710
883.766	22618
883.892	22447
884.018	22508
884.143	22573
884.269	22748
884.395	22322
884.52	22268
884.646	22223
884.772	22215
884.897	22010
885.023	22341
885.148	22428
885.274	22481
885.399	22200
885.524	22238
885.65	22299
885.775	22341
885.9	22265
886.025	22318
886.15	22398
886.275	22215
886.4	22367
886.525	22238
886.65	22306
886.775	22177
886.9	22314
887.025	22546
887.149	22234
887.274	22063
887.399	22181
887.523	22002
887.648	22032
887.773	21956
887.897	22246
888.021	22002
888.146	21949
888.27	22097
888.395	22051
888.519	22166
888.643	22036
888.767	22090
888.891	21876
889.015	21911
889.139	21911
889.263	21808
889.387	21968
889.511	21975
889.635	21968
889.759	21895
889.883	21766
890.006	21793
890.13	21899
890.254	21705
890.377	21713
890.501	21519
890.624	21622
890.748	21720
890.871	21515
890.995	21291
891.118	21336
891.241	21408
891.364	21317
891.488	21580
891.611	21393
891.734	21397
891.857	21439
891.98	21405
892.103	21447
892.226	21294
892.349	21268
892.471	21325
892.594	21348
892.717	21420
892.839	21313
892.962	21466
893.085	21378
893.207	21268
893.33	21100
893.452	21188
893.575	21256
893.697	21184
893.819	21450
893.941	21435
894.064	21344
894.186	21233
894.308	21207
894.43	21272
894.552	21439
894.674	21340
894.796	21222
894.918	21207
895.04	21184
895.161	21302
895.283	21408
895.405	21093
895.526	21165
895.648	21283
895.769	21340
895.891	21287
896.012	21298
896.134	21302
896.255	21317
896.376	21116
896.498	21222
896.619	21188
896.74	21180
896.861	21374
896.982	21561
897.103	21633
897.224	21595
897.345	21557
897.466	21313
897.587	21454
897.708	21595
897.828	21466
897.949	21325
898.07	21207
898.19	21336
898.311	21519
898.431	21431
898.552	21439
898.672	21412
898.792	21526
898.913	21454
899.033	21336
899.153	21291
899.273	21123
899.393	21131
899.513	21329
899.633	21173
899.753	21127
899.873	21127
899.993	21252
900.113	21218
900.232	21093
900.352	21165
900.472	20956
900.591	20960
900.711	21039
900.83	20967
900.95	21032
901.069	21001
901.189	20762
901.308	20621
901.427	20530
901.546	20575
901.665	20488
901.784	20518
901.904	20412
902.023	20267
902.141	20100
902.26	20054
902.379	20046
902.498	20024
902.617	20130
902.735	20096
902.854	19932
902.973	19967
903.091	19590
903.21	19750
903.328	19689
903.446	19613
903.565	19476
903.683	19415
903.801	19415
903.919	19381
904.038	19422
904.156	19202
904.274	19388
904.392	19183
904.51	19251
904.627	19171
904.745	19335
904.863	19335
904.981	19038
905.098	18878
905.216	18829
905.334	18901
905.451	18848
905.569	18890
905.686	18932
905.803	18943
905.921	18722
906.038	18650
906.155	18677
906.272	18612
906.389	18635
906.506	18357
906.623	18433
906.74	18464
906.857	18376
906.974	18224
907.091	18445
907.208	18604
907.324	18506
907.441	18304
907.557	18110
907.674	18079
907.79	18068
907.907	18095
908.023	18140
908.139	18171
908.256	17980
908.372	17946
908.488	17942
908.604	17783
908.72	17817
908.836	17764
908.952	17783
909.068	17790
909.184	17901
909.3	17813
909.415	17859
909.531	17714
909.647	17501
909.762	17478
909.878	17543
909.993	17493
910.108	17459
910.224	17356
910.339	17532
910.454	17307
910.57	17334
910.685	17269
910.8	17455
910.915	17463
911.03	17254
911.145	17140
911.259	17014
911.374	17071
911.489	17033
911.604	16995
911.718	16828
911.833	16835
911.947	16771
912.062	16668
912.176	16869
912.291	16835
912.405	16885
912.519	17003
912.633	17014
912.748	16797
912.862	16793
912.976	16596
913.09	16546
913.204	16565
913.318	16630
913.431	16717
913.545	16687
913.659	16710
913.772	16588
913.886	16531
914	16341
914.113	16500
914.226	16531
914.34	16485
914.453	16268
914.566	16493
914.68	16318
914.793	16322
914.906	16013
915.019	16048
915.132	15941
915.245	15956
915.358	15911
915.47	16029
915.583	15945
915.696	16025
915.809	16059
915.921	16105
916.034	15937
916.146	15800
916.259	15869
916.371	15964
916.483	15857
916.595	15876
916.708	15789
916.82	15728
916.932	15743
917.044	15781
917.156	15736
917.268	15682
917.38	15705
917.491	15701
917.603	15641
917.715	15698
917.826	15732
917.938	15576
918.049	15530
918.161	15580
918.272	15724
918.384	15682
918.495	15595
918.606	15416
918.717	15260
918.828	15439
918.939	15466
919.05	15272
919.161	15306
919.272	15119
919.383	15291
919.494	15408
919.604	15545
919.715	15233
919.826	15157
919.936	15336
920.047	15348
920.157	15272
920.267	15450
920.378	15336
920.488	15348
920.598	15488
920.708	15599
920.818	15481
920.928	15389
921.038	15667
921.148	15454
921.258	15306
921.368	15157
921.477	15112
921.587	15013
921.697	14807
921.806	15024
921.916	14788
922.025	14648
922.134	14598
922.244	14648
922.353	14689
922.462	14613
922.571	14507
922.68	14301
922.789	14286
922.898	14244
923.007	14172
923.116	14290
923.224	14183
923.333	14271
923.442	14187
923.55	14126
923.659	14069
923.767	14229
923.876	14149
923.984	14149
924.092	13947
924.201	14035
924.309	14024
924.417	14012
924.525	13955
924.633	14126
924.741	14830
924.849	13712
924.956	13879
925.064	13845
925.172	13597
925.279	13712
925.387	13731
925.494	13685
925.602	13826
925.709	13689
925.816	13571
925.924	13537
926.031	13700
926.138	13696
926.245	13666
926.352	13499
926.459	13655
926.566	13616
926.673	13460
926.779	13460
926.886	13419
926.993	13244
927.099	13236
927.206	13149
927.312	13095
927.419	13316
927.525	13232
927.631	13187
927.737	13099
927.843	13031
927.95	12935
928.056	12985
928.162	13099
928.267	13069
928.373	13681
928.479	13084
928.585	12897
928.69	12966
928.796	12920
928.901	12833
929.007	12726
929.112	12977
929.218	12760
929.323	12791
929.428	12707
929.533	12829
929.638	12620
929.743	12700
929.848	12703
929.953	12631
930.058	12574
930.163	12486
930.267	12467
930.372	12467
930.477	12361
930.581	12551
930.685	12369
930.79	12330
930.894	12334
930.998	12266
931.103	12292
931.207	11984
931.311	11855
931.415	11821
931.519	11699
931.623	11608
