Data from test_V78500241_3618.txt Node
Date: Fri Mar 25 16:06:51 CST 2022
User: usil
Spectrometer: V785-0024
Trigger mode: 0
Integration Time (sec): 4.000000E-1
Scans to average: 1
Nonlinearity correction enabled: false
Boxcar width: 0
Storing dark spectrum: false
XAxis mode: Wavelengths
Number of Pixels in Spectrum: 1024
>>>>>Begin Spectral Data<<<<<
801.071	28850
801.214	28869
801.356	28577
801.499	28432
801.641	28360
801.783	28405
801.926	28382
802.068	28409
802.211	28344
802.353	28261
802.496	28303
802.638	28059
802.78	28082
802.923	27960
803.065	27914
803.208	28105
803.35	28002
803.492	28219
803.635	28284
803.777	28101
803.919	28265
804.061	28637
804.204	28322
804.346	28367
804.488	28192
804.63	28428
804.773	28181
804.915	28303
805.057	28573
805.199	28375
805.341	28348
805.483	28436
805.626	28440
805.768	28394
805.91	28523
806.052	28485
806.194	28455
806.336	28710
806.478	28413
806.62	28436
806.762	28675
806.904	28797
807.046	29029
807.188	28782
807.33	29067
807.472	28949
807.614	28828
807.756	28812
807.898	28816
808.04	28622
808.182	28592
808.324	28839
808.465	28831
808.607	28991
808.749	29315
808.891	29288
809.033	29231
809.174	29178
809.316	29197
809.458	29064
809.6	29220
809.741	29189
809.883	29239
810.025	29444
810.166	29478
810.308	29452
810.45	29410
810.591	29296
810.733	29231
810.875	29223
811.016	29117
811.158	29178
811.299	29181
811.441	29250
811.582	29254
811.724	29200
811.865	29056
812.007	29105
812.148	29151
812.29	29235
812.431	29311
812.573	29577
812.714	29596
812.855	29726
812.997	29832
813.138	29878
813.279	29866
813.421	29619
813.562	29520
813.703	29642
813.845	29467
813.986	29284
814.127	28881
814.268	28885
814.41	28885
814.551	28809
814.692	28976
814.833	28778
814.974	28744
815.115	28835
815.256	28812
815.397	28767
815.539	28801
815.68	28740
815.821	28622
815.962	28687
816.103	28645
816.244	28489
816.385	28561
816.526	28409
816.666	28105
816.807	28090
816.948	28360
817.089	28371
817.23	28158
817.371	28284
817.512	28143
817.653	28169
817.793	28128
817.934	28169
818.075	28044
818.216	28291
818.356	28131
818.497	27998
818.638	27911
818.778	27975
818.919	28063
819.06	27953
819.2	28029
819.341	28185
819.481	28196
819.622	28409
819.762	28481
819.903	28523
820.043	28379
820.184	28390
820.324	28341
820.465	28504
820.605	28398
820.746	28325
820.886	28120
821.026	28329
821.167	28287
821.307	28246
821.447	28219
821.588	28078
821.728	28090
821.868	27922
822.008	27789
822.149	27671
822.289	27709
822.429	27325
822.569	27416
822.709	27310
822.849	27272
822.99	27214
823.13	27192
823.27	27123
823.41	27096
823.55	26910
823.69	27020
823.83	27070
823.97	26952
824.11	26891
824.25	26826
824.389	26796
824.529	26895
824.669	26842
824.809	26906
824.949	26971
825.089	26933
825.228	26986
825.368	26640
825.508	26724
825.648	26625
825.787	26720
825.927	26785
826.067	26724
826.206	26640
826.346	26788
826.485	26712
826.625	26682
826.765	26921
826.904	26739
827.044	26495
827.183	26549
827.323	26461
827.462	26587
827.601	26507
827.741	26339
827.88	26499
828.02	26259
828.159	26423
828.298	26469
828.437	26533
828.577	26351
828.716	26541
828.855	26324
828.994	26202
829.134	26210
829.273	26206
829.412	26142
829.551	26161
829.69	26107
829.829	26176
829.968	26187
830.107	26187
830.246	26107
830.385	26039
830.524	26122
830.663	25913
830.802	25765
830.941	25647
831.08	25632
831.219	25811
831.357	25906
831.496	25902
831.635	25742
831.774	25674
831.913	25647
832.051	25537
832.19	25518
832.329	25502
832.467	25552
832.606	25308
832.744	25514
832.883	25350
833.022	25346
833.16	25510
833.299	25502
833.437	25449
833.576	25487
833.714	25434
833.852	25499
833.991	25460
834.129	25521
834.267	25540
834.406	25525
834.544	25476
834.682	25487
834.821	25537
834.959	25639
835.097	25426
835.235	25556
835.373	25514
835.511	25335
835.65	25411
835.788	25335
835.926	25266
836.064	25179
836.202	25027
836.34	25198
836.478	25430
836.615	25187
836.753	25221
836.891	25202
837.029	25194
837.167	25339
837.305	25194
837.443	25221
837.58	25114
837.718	25110
837.856	25084
837.993	25179
838.131	25015
838.269	25072
838.406	25031
838.544	24863
838.681	24749
838.819	24650
838.956	24547
839.094	24570
839.231	24703
839.369	24635
839.506	24985
839.643	24783
839.781	24585
839.918	24494
840.055	24521
840.193	24445
840.33	24464
840.467	24597
840.604	24601
840.742	24833
840.879	24273
841.016	24475
841.153	24220
841.29	24521
841.427	24464
841.564	24555
841.701	24570
841.838	24361
841.975	24391
842.112	24433
842.249	24372
842.385	24281
842.522	24486
842.659	24296
842.796	24311
842.933	24315
843.069	24289
843.206	24201
843.343	24266
843.479	24220
843.616	24232
843.752	24057
843.889	24136
844.025	24102
844.162	24133
844.298	24068
844.435	24049
844.571	23950
844.708	24060
844.844	24178
844.98	24163
845.117	24076
845.253	23893
845.389	23885
845.525	23870
845.661	23851
845.798	23779
845.934	23790
846.07	23596
846.206	23885
846.342	23939
846.478	23661
846.614	23630
846.75	23554
846.886	23562
847.022	23474
847.158	23535
847.294	23444
847.429	23501
847.565	23356
847.701	23562
847.837	23216
847.972	23174
848.108	23311
848.244	23284
848.379	23086
848.515	23121
848.65	23060
848.786	23044
848.921	23018
849.057	23143
849.192	23147
849.328	23025
849.463	23075
849.598	23022
849.734	23014
849.869	22900
850.004	22824
850.14	22862
850.275	22797
850.41	22740
850.545	22736
850.68	22809
850.815	22847
850.95	22858
851.085	22885
851.22	22949
851.355	22816
851.49	22767
851.625	22858
851.76	22793
851.895	22771
852.03	22862
852.165	22885
852.299	22889
852.434	22858
852.569	22847
852.703	22797
852.838	22862
852.973	22809
853.107	22885
853.242	22596
853.376	22641
853.511	22569
853.645	22626
853.78	22733
853.914	22660
854.048	22698
854.183	22809
854.317	22782
854.451	22961
854.585	22641
854.72	22504
854.854	22774
854.988	22729
855.122	22755
855.256	22554
855.39	22618
855.524	22752
855.658	22763
855.792	22599
855.926	22596
856.06	22607
856.194	22664
856.327	22702
856.461	22497
856.595	22538
856.729	22569
856.862	22752
856.996	22683
857.13	22717
857.263	22782
857.397	22717
857.53	22557
857.664	22691
857.797	22710
857.931	22675
858.064	22740
858.197	22862
858.331	22580
858.464	22546
858.597	22531
858.731	22622
858.864	22668
858.997	22561
859.13	22470
859.263	22592
859.396	22733
859.529	22603
859.662	22626
859.795	22580
859.928	22752
860.061	22641
860.194	22843
860.327	22828
860.46	22668
860.592	22778
860.725	22713
860.858	22831
860.99	22630
861.123	22538
861.256	22481
861.388	22691
861.521	23482
861.653	22519
861.786	22516
861.918	22398
862.05	22531
862.183	22546
862.315	22603
862.447	22645
862.58	22554
862.712	22341
862.844	22314
862.976	22451
863.108	22352
863.24	22835
863.372	22318
863.504	22333
863.636	22268
863.768	22390
863.9	22348
864.032	22223
864.164	22306
864.296	22371
864.428	22257
864.559	22405
864.691	22356
864.823	22291
864.954	22284
865.086	22287
865.217	22211
865.349	22181
865.48	22253
865.612	22177
865.743	22261
865.875	22223
866.006	22287
866.137	22192
866.269	22143
866.4	22253
866.531	22169
866.662	22086
866.793	22196
866.924	22147
867.055	22139
867.186	22200
867.317	22143
867.448	21964
867.579	22226
867.71	22109
867.841	22010
867.972	22185
868.103	22090
868.233	22097
868.364	22177
868.495	22333
868.625	22333
868.756	22481
868.886	22428
869.017	22329
869.147	22550
869.278	22424
869.408	22432
869.539	22379
869.669	22421
869.799	22379
869.929	22630
870.06	22489
870.19	22630
870.32	22706
870.45	22694
870.58	22752
870.71	22873
870.84	22862
870.97	22713
871.1	22831
871.23	22957
871.36	22881
871.489	22820
871.619	22904
871.749	22980
871.879	23052
872.008	23147
872.138	23018
872.267	22889
872.397	22919
872.526	22706
872.656	22896
872.785	22938
872.915	23094
873.044	23086
873.173	22949
873.303	22968
873.432	23025
873.561	23242
873.69	23083
873.819	23052
873.948	23022
874.077	22999
874.206	22923
874.335	22919
874.464	23223
874.593	23181
874.722	23162
874.851	23185
874.979	23231
875.108	23159
875.237	23132
875.365	23193
875.494	23071
875.623	23204
875.751	23185
875.88	23254
876.008	23349
876.136	23368
876.265	23570
876.393	23767
876.521	23627
876.65	23722
876.778	23630
876.906	23493
877.034	23528
877.162	23505
877.29	23493
877.418	23448
877.546	23531
877.674	23528
877.802	23467
877.93	23482
878.058	23482
878.185	23421
878.313	23440
878.441	23528
878.568	23398
878.696	23395
878.824	23520
878.951	23619
879.079	23737
879.206	23893
879.333	23805
879.461	23672
879.588	23691
879.715	23843
879.842	23779
879.97	23608
880.097	23482
880.224	23406
880.351	23391
880.478	23356
880.605	23372
880.732	23334
880.859	23680
880.986	23364
881.112	23391
881.239	23280
881.366	23151
881.493	23147
881.619	22957
881.746	22976
881.872	22961
881.999	22976
882.125	22824
882.252	23033
882.378	22965
882.505	22942
882.631	22793
882.757	22656
882.883	22763
883.01	22611
883.136	22691
883.262	22447
883.388	22489
883.514	22653
883.64	22580
883.766	22508
883.892	22291
884.018	22405
884.143	22557
884.269	22637
884.395	22360
884.52	22276
884.646	22196
884.772	22234
884.897	22188
885.023	22303
885.148	22382
885.274	22424
885.399	22390
885.524	22150
885.65	22261
885.775	22234
885.9	22143
886.025	22280
886.15	22367
886.275	22143
886.4	22101
886.525	22135
886.65	22238
886.775	22166
886.9	22523
887.025	22375
887.149	22223
887.274	21930
887.399	21968
887.523	21983
887.648	22010
887.773	21899
887.897	22051
888.021	21991
888.146	21899
888.27	22109
888.395	22063
888.519	21945
888.643	21934
888.767	22063
888.891	21854
889.015	21797
889.139	21766
889.263	21812
889.387	21911
889.511	22013
889.635	21846
889.759	21766
889.883	21759
890.006	21724
890.13	21945
890.254	21587
890.377	21774
890.501	21469
890.624	21447
890.748	21496
890.871	21481
890.995	21222
891.118	21420
891.241	21378
891.364	21298
891.488	21431
891.611	21386
891.734	21412
891.857	21450
891.98	21211
892.103	21443
892.226	21336
892.349	21306
892.471	21138
892.594	21272
892.717	21302
892.839	21325
892.962	21211
893.085	21241
893.207	21123
893.33	21154
893.452	21245
893.575	21241
893.697	21222
893.819	21252
893.941	21439
894.064	21397
894.186	21154
894.308	21138
894.43	21310
894.552	21363
894.674	21408
894.796	21165
894.918	21108
895.04	21119
895.161	21264
895.283	21218
895.405	21131
895.526	21249
895.648	21066
895.769	21161
895.891	21066
896.012	21272
896.134	21317
896.255	21116
896.376	21165
896.498	21184
896.619	21184
896.74	21169
896.861	21203
896.982	21595
897.103	21587
897.224	21348
897.345	21374
897.466	21386
897.587	21428
897.708	21481
897.828	21534
897.949	21370
898.07	21249
898.19	21272
898.311	21519
898.431	21306
898.552	21580
898.672	21431
898.792	21511
898.913	21405
899.033	21332
899.153	21279
899.273	21074
899.393	21119
899.513	21173
899.633	21157
899.753	21321
899.873	20994
899.993	21127
900.113	21127
900.232	21036
900.352	21017
900.472	20967
900.591	20868
900.711	20944
900.83	20853
900.95	20975
901.069	20902
901.189	20830
901.308	20560
901.427	20415
901.546	20594
901.665	20454
901.784	20355
901.904	20301
902.023	20145
902.141	20164
902.26	20054
902.379	20039
902.498	19974
902.617	19917
902.735	20054
902.854	19830
902.973	19879
903.091	19651
903.21	19594
903.328	19658
903.446	19609
903.565	19289
903.683	19362
903.801	19304
903.919	19343
904.038	19392
904.156	19190
904.274	19301
904.392	19145
904.51	19065
904.627	19114
904.745	19278
904.863	19160
904.981	18863
905.098	18844
905.216	18810
905.334	18810
905.451	18939
905.569	18909
905.686	18802
905.803	18753
905.921	18536
906.038	18604
906.155	18604
906.272	18403
906.389	18608
906.506	18330
906.623	18437
906.74	18323
906.857	18266
906.974	18262
907.091	18422
907.208	18498
907.324	18441
907.441	18273
907.557	18148
907.674	18239
907.79	18011
907.907	17996
908.023	18121
908.139	18201
908.256	17950
908.372	17863
908.488	18030
908.604	17863
908.72	17657
908.836	17805
908.952	17687
909.068	17984
909.184	17878
909.3	17745
909.415	17737
909.531	17661
909.647	17543
909.762	17444
909.878	17421
909.993	17433
910.108	17398
910.224	17402
910.339	17463
910.454	17406
910.57	17231
910.685	17223
910.8	17376
910.915	17368
911.03	17296
911.145	17079
911.259	17033
911.374	17056
911.489	16995
911.604	17086
911.718	16793
911.833	16828
911.947	16763
912.062	16603
912.176	16809
912.291	16778
912.405	16748
912.519	17003
912.633	16923
912.748	16877
912.862	16805
912.976	16577
913.09	16447
913.204	16599
913.318	16523
913.431	16656
913.545	16790
913.659	16683
913.772	16531
913.886	16447
914	16382
914.113	16314
914.226	16455
914.34	16375
914.453	16348
914.566	16413
914.68	16230
914.793	16207
914.906	16032
915.019	15876
915.132	16002
915.245	15922
915.358	16002
915.47	15956
915.583	15857
915.696	15960
915.809	16071
915.921	15998
916.034	15857
916.146	15873
916.259	15808
916.371	15979
916.483	15892
916.595	15785
916.708	15838
916.82	15648
916.932	15747
917.044	15633
917.156	15663
917.268	15679
917.38	15633
917.491	15477
917.603	15591
917.715	15652
917.826	15618
917.938	15458
918.049	15462
918.161	15515
918.272	15671
918.384	15641
918.495	15454
918.606	15378
918.717	15298
918.828	15431
918.939	15378
919.05	15241
919.161	15310
919.272	15157
919.383	15055
919.494	15359
919.604	15584
919.715	15298
919.826	15321
919.936	15279
920.047	15325
920.157	15173
920.267	15420
920.378	15287
920.488	15317
920.598	15408
920.708	15584
920.818	15485
920.928	15477
921.038	15458
921.148	15515
921.258	15260
921.368	15043
921.477	14963
921.587	15005
921.697	14819
921.806	15024
921.916	14887
922.025	14667
922.134	14602
922.244	14682
922.353	14674
922.462	14488
922.571	14415
922.68	14370
922.789	14256
922.898	14225
923.007	14267
923.116	14214
923.224	14225
923.333	14221
923.442	14126
923.55	14111
923.659	14016
923.767	14115
923.876	14016
923.984	14126
924.092	13974
924.201	14065
924.309	14024
924.417	13951
924.525	13852
924.633	13818
924.741	14861
924.849	13708
924.956	13852
925.064	13712
925.172	13647
925.279	13636
925.387	13723
925.494	13552
925.602	13769
925.709	13708
925.816	13445
925.924	13559
926.031	13636
926.138	13613
926.245	13582
926.352	13426
926.459	13636
926.566	13696
926.673	13476
926.779	13407
926.886	13358
926.993	13236
927.099	13221
927.206	13179
927.312	13091
927.419	13179
927.525	13175
927.631	13168
927.737	12954
927.843	13000
927.95	12985
928.056	13008
928.162	13012
928.267	13050
928.373	13693
928.479	13103
928.585	12894
928.69	12840
928.796	12916
928.901	12779
929.007	12719
929.112	12837
929.218	12768
929.323	12677
929.428	12722
929.533	12837
929.638	12631
929.743	12604
929.848	12646
929.953	12677
930.058	12551
930.163	12369
930.267	12296
930.372	12574
930.477	12407
930.581	12578
930.685	12460
930.79	12121
930.894	12277
930.998	12277
931.103	12308
931.207	11999
931.311	11961
931.415	11703
931.519	11634
931.623	11577
