Data from test_V78500241_1286.txt Node
Date: Fri Mar 25 15:50:42 CST 2022
User: usil
Spectrometer: V785-0024
Trigger mode: 0
Integration Time (sec): 4.000000E-1
Scans to average: 1
Nonlinearity correction enabled: false
Boxcar width: 0
Storing dark spectrum: false
XAxis mode: Wavelengths
Number of Pixels in Spectrum: 1024
>>>>>Begin Spectral Data<<<<<
801.071	28451
801.214	28440
801.356	28192
801.499	28105
801.641	28032
801.783	28051
801.926	28074
802.068	27953
802.211	27823
802.353	27793
802.496	27724
802.638	27641
802.78	27698
802.923	27492
803.065	27530
803.208	27583
803.35	27614
803.492	27785
803.635	27892
803.777	27766
803.919	27728
804.061	28116
804.204	27911
804.346	27804
804.488	27854
804.63	27838
804.773	27895
804.915	27911
805.057	28036
805.199	27884
805.341	27918
805.483	27930
805.626	27895
805.768	28006
805.91	28010
806.052	28055
806.194	28048
806.336	28166
806.478	28128
806.62	27991
806.762	28162
806.904	28405
807.046	28596
807.188	28440
807.33	28478
807.472	28451
807.614	28611
807.756	28523
807.898	28379
808.04	28253
808.182	28367
808.324	28390
808.465	28371
808.607	28622
808.749	28641
808.891	28824
809.033	28828
809.174	28778
809.316	28816
809.458	28790
809.6	28774
809.741	28888
809.883	28927
810.025	29010
810.166	29010
810.308	29025
810.45	29075
810.591	28881
810.733	28866
810.875	28660
811.016	28611
811.158	28603
811.299	28759
811.441	28866
811.582	28946
811.724	28550
811.865	28763
812.007	28626
812.148	28618
812.29	28656
812.431	28915
812.573	28980
812.714	29147
812.855	29311
812.997	29337
813.138	29444
813.279	29383
813.421	29299
813.562	29170
813.703	29037
813.845	28786
813.986	28797
814.127	28516
814.268	28428
814.41	28432
814.551	28318
814.692	28561
814.833	28314
814.974	28348
815.115	28348
815.256	28306
815.397	28318
815.539	28341
815.68	28329
815.821	28124
815.962	28367
816.103	28230
816.244	28082
816.385	27979
816.526	28021
816.666	27747
816.807	27747
816.948	27914
817.089	27876
817.23	27770
817.371	27831
817.512	27614
817.653	27705
817.793	27534
817.934	27671
818.075	27675
818.216	27759
818.356	27694
818.497	27526
818.638	27412
818.778	27557
818.919	27473
819.06	27690
819.2	27614
819.341	27698
819.481	27838
819.622	27960
819.762	28105
819.903	28090
820.043	27964
820.184	27911
820.324	27869
820.465	27914
820.605	27991
820.746	27838
820.886	27785
821.026	27770
821.167	27720
821.307	27937
821.447	27793
821.588	27717
821.728	27443
821.868	27287
822.008	27245
822.149	27245
822.289	27249
822.429	27043
822.569	26823
822.709	26921
822.849	26655
822.99	26845
823.13	26617
823.27	26655
823.41	26511
823.55	26427
823.69	26499
823.83	26549
823.97	26511
824.11	26358
824.25	26408
824.389	26412
824.529	26408
824.669	26446
824.809	26427
824.949	26431
825.089	26476
825.228	26408
825.368	26271
825.508	26271
825.648	26237
825.787	26267
825.927	26324
826.067	26187
826.206	26385
826.346	26313
826.485	26450
826.625	26183
826.765	26278
826.904	26358
827.044	26065
827.183	26122
827.323	25963
827.462	26062
827.601	25871
827.741	25898
827.88	25944
828.02	25852
828.159	25852
828.298	26035
828.437	26035
828.577	25963
828.716	26039
828.855	25917
828.994	25643
829.134	25651
829.273	25742
829.412	25586
829.551	25639
829.69	25677
829.829	25597
829.968	25750
830.107	25700
830.246	25624
830.385	25616
830.524	25457
830.663	25655
830.802	25411
830.941	25183
831.08	25247
831.219	25411
831.357	25369
831.496	25563
831.635	25331
831.774	25251
831.913	25133
832.051	25175
832.19	25065
832.329	25084
832.467	25012
832.606	24821
832.744	24962
832.883	24966
833.022	24848
833.16	25012
833.299	24992
833.437	24928
833.576	24962
833.714	24989
833.852	25015
833.991	25107
834.129	25160
834.267	25145
834.406	25183
834.544	25034
834.682	25084
834.821	25061
834.959	25255
835.097	24852
835.235	25072
835.373	24989
835.511	25019
835.65	24814
835.788	24825
835.926	24825
836.064	24669
836.202	24627
836.34	24764
836.478	24913
836.615	24833
836.753	24719
836.891	24810
837.029	24962
837.167	24719
837.305	24635
837.443	24772
837.58	24521
837.718	24795
837.856	24692
837.993	24631
838.131	24612
838.269	24517
838.406	24627
838.544	24498
838.681	24266
838.819	24407
838.956	24220
839.094	24182
839.231	24201
839.369	24361
839.506	24528
839.643	24407
839.781	24026
839.918	24026
840.055	24018
840.193	24110
840.33	24087
840.467	24022
840.604	23984
840.742	24372
840.879	23832
841.016	23992
841.153	23897
841.29	24034
841.427	24030
841.564	24072
841.701	24038
841.838	24091
841.975	23874
842.112	23996
842.249	23855
842.385	23737
842.522	24038
842.659	23821
842.796	23851
842.933	23714
843.069	23680
843.206	23615
843.343	23961
843.479	23817
843.616	23817
843.752	23554
843.889	23531
844.025	23634
844.162	23410
844.298	23726
844.435	23516
844.571	23531
844.708	23471
844.844	23764
844.98	23676
845.117	23642
845.253	23478
845.389	23452
845.525	23619
845.661	23395
845.798	23303
845.934	23360
846.07	23307
846.206	23341
846.342	23372
846.478	23334
846.614	23121
846.75	23033
846.886	23121
847.022	23071
847.158	23113
847.294	22968
847.429	23044
847.565	23022
847.701	23246
847.837	22611
847.972	22683
848.108	22820
848.244	22873
848.379	22660
848.515	22668
848.65	22424
848.786	22668
848.921	22573
849.057	22710
849.192	22744
849.328	22626
849.463	22519
849.598	22596
849.734	22508
849.869	22470
850.004	22394
850.14	22421
850.275	22451
850.41	22344
850.545	22295
850.68	22284
850.815	22474
850.95	22352
851.085	22508
851.22	22424
851.355	22322
851.49	22356
851.625	22421
851.76	22367
851.895	22299
852.03	22303
852.165	22478
852.299	22382
852.434	22527
852.569	22504
852.703	22371
852.838	22417
852.973	22500
853.107	22542
853.242	22249
853.376	22352
853.511	22090
853.645	22055
853.78	22246
853.914	22200
854.048	22059
854.183	22177
854.317	22223
854.451	22344
854.585	22150
854.72	22162
854.854	22261
854.988	22131
855.122	22105
855.256	22032
855.39	22002
855.524	22181
855.658	22314
855.792	22234
855.926	22207
856.06	22265
856.194	22303
856.327	22112
856.461	22124
856.595	22124
856.729	22147
856.862	22344
856.996	22280
857.13	22310
857.263	22242
857.397	22272
857.53	22105
857.664	22238
857.797	22253
857.931	22261
858.064	22105
858.197	22234
858.331	22128
858.464	22185
858.597	22006
858.731	22105
858.864	22166
858.997	22097
859.13	22246
859.263	22234
859.396	22177
859.529	22246
859.662	22211
859.795	22112
859.928	22207
860.061	22257
860.194	22333
860.327	22188
860.46	22226
860.592	22363
860.725	22409
860.858	22341
860.99	22169
861.123	22139
861.256	22120
861.388	22105
861.521	22923
861.653	22006
861.786	22017
861.918	21915
862.05	22051
862.183	22044
862.315	22135
862.447	22154
862.58	22105
862.712	21895
862.844	21838
862.976	21892
863.108	21930
863.24	22363
863.372	21857
863.504	21880
863.636	21869
863.768	21964
863.9	21911
864.032	21755
864.164	21781
864.296	21876
864.428	22029
864.559	21964
864.691	22006
864.823	21884
864.954	21804
865.086	21751
865.217	21812
865.349	21679
865.48	21648
865.612	21785
865.743	21915
865.875	21774
866.006	21770
866.137	21720
866.269	21778
866.4	21717
866.531	21759
866.662	21606
866.793	21705
866.924	21690
867.055	21682
867.186	21778
867.317	21713
867.448	21629
867.579	21778
867.71	21679
867.841	21610
867.972	21797
868.103	21739
868.233	21583
868.364	21686
868.495	21827
868.625	21876
868.756	21972
868.886	21899
869.017	21835
869.147	21930
869.278	22128
869.408	21972
869.539	21994
869.669	22029
869.799	21964
869.929	21968
870.06	22131
870.19	22242
870.32	22234
870.45	22223
870.58	22363
870.71	22440
870.84	22421
870.97	22333
871.1	22379
871.23	22531
871.36	22512
871.489	22413
871.619	22546
871.749	22474
871.879	22512
872.008	22584
872.138	22615
872.267	22588
872.397	22489
872.526	22440
872.656	22367
872.785	22390
872.915	22592
873.044	22664
873.173	22561
873.303	22618
873.432	22577
873.561	22694
873.69	22733
873.819	22535
873.948	22656
874.077	22500
874.206	22531
874.335	22569
874.464	22656
874.593	22641
874.722	22694
874.851	22797
874.979	22831
875.108	22908
875.237	22683
875.365	22611
875.494	22778
875.623	22820
875.751	22713
875.88	22668
876.008	22805
876.136	22961
876.265	23117
876.393	23143
876.521	23258
876.65	23265
876.778	23090
876.906	23216
877.034	23121
877.162	23143
877.29	23113
877.418	23151
877.546	23044
877.674	23231
877.802	23041
877.93	23044
878.058	22991
878.185	23128
878.313	23018
878.441	23113
878.568	22869
878.696	23044
878.824	23197
878.951	23071
879.079	23212
879.206	23372
879.333	23330
879.461	23033
879.588	23376
879.715	23337
879.842	23402
879.97	23284
880.097	22889
880.224	22900
880.351	22987
880.478	22919
880.605	22839
880.732	22904
880.859	23094
880.986	22915
881.112	22908
881.239	22858
881.366	22615
881.493	22599
881.619	22436
881.746	22443
881.872	22535
881.999	22508
882.125	22337
882.252	22554
882.378	22413
882.505	22531
882.631	22337
882.757	22257
882.883	22207
883.01	22211
883.136	22192
883.262	22109
883.388	22055
883.514	22105
883.64	22246
883.766	22090
883.892	21895
884.018	21876
884.143	22147
884.269	22207
884.395	21823
884.52	21747
884.646	21876
884.772	21774
884.897	21876
885.023	21915
885.148	21915
885.274	21903
885.399	21903
885.524	21831
885.65	21755
885.775	21823
885.9	21770
886.025	21827
886.15	21918
886.275	21698
886.4	21629
886.525	21835
886.65	21663
886.775	21701
886.9	21960
887.025	22036
887.149	21778
887.274	21599
887.399	21496
887.523	21538
887.648	21466
887.773	21412
887.897	21701
888.021	21568
888.146	21500
888.27	21553
888.395	21599
888.519	21652
888.643	21644
888.767	21530
888.891	21386
889.015	21359
889.139	21507
889.263	21344
889.387	21530
889.511	21587
889.635	21568
889.759	21431
889.883	21313
890.006	21370
890.13	21359
890.254	21218
890.377	21264
890.501	21169
890.624	20944
890.748	21074
890.871	21009
890.995	20883
891.118	20956
891.241	20994
891.364	20963
891.488	21070
891.611	20872
891.734	20967
891.857	21036
891.98	20910
892.103	20876
892.226	20925
892.349	20864
892.471	20739
892.594	20902
892.717	20678
892.839	20811
892.962	20849
893.085	20857
893.207	20708
893.33	20731
893.452	20743
893.575	20902
893.697	20765
893.819	21001
893.941	21017
894.064	20868
894.186	20800
894.308	20735
894.43	21013
894.552	20868
894.674	20853
894.796	20678
894.918	20811
895.04	20651
895.161	20819
895.283	20743
895.405	20762
895.526	20891
895.648	20872
895.769	20807
895.891	20921
896.012	20899
896.134	20807
896.255	20887
896.376	20785
896.498	20887
896.619	20788
896.74	20781
896.861	20785
896.982	21116
897.103	21298
897.224	21051
897.345	21093
897.466	20910
897.587	20933
897.708	21222
897.828	20986
897.949	20937
898.07	20750
898.19	20906
898.311	21005
898.431	20944
898.552	21051
898.672	21058
898.792	21028
898.913	21081
899.033	20861
899.153	20826
899.273	20697
899.393	20735
899.513	20697
899.633	20762
899.753	20678
899.873	20674
899.993	20826
900.113	20689
900.232	20701
900.352	20754
900.472	20530
900.591	20457
900.711	20545
900.83	20419
900.95	20598
901.069	20670
901.189	20355
901.308	20332
901.427	20107
901.546	20107
901.665	20012
901.784	20180
901.904	19860
902.023	19814
902.141	19734
902.26	19655
902.379	19731
902.498	19571
902.617	19552
902.735	19582
902.854	19491
902.973	19415
903.091	19346
903.21	19232
903.328	19293
903.446	19145
903.565	19012
903.683	19019
903.801	18939
903.919	19027
904.038	18935
904.156	18840
904.274	18795
904.392	18779
904.51	18764
904.627	18734
904.745	18795
904.863	18837
904.981	18570
905.098	18372
905.216	18399
905.334	18532
905.451	18483
905.569	18388
905.686	18555
905.803	18388
905.921	18247
906.038	18365
906.155	18323
906.272	18235
906.389	18239
906.506	18030
906.623	18011
906.74	17992
906.857	17847
906.974	17927
907.091	18068
907.208	18163
907.324	18030
907.441	17927
907.557	17680
907.674	17649
907.79	17653
907.907	17684
908.023	17741
908.139	17752
908.256	17570
908.372	17672
908.488	17528
908.604	17406
908.72	17436
908.836	17467
908.952	17376
909.068	17524
909.184	17528
909.3	17364
909.415	17467
909.531	17368
909.647	17147
909.762	17330
909.878	17067
909.993	17155
910.108	17200
910.224	17022
910.339	17079
910.454	17003
910.57	17003
910.685	16782
910.8	17170
910.915	17098
911.03	16915
911.145	16759
911.259	16694
911.374	16668
911.489	16611
911.604	16546
911.718	16424
911.833	16382
911.947	16417
912.062	16314
912.176	16432
912.291	16493
912.405	16462
912.519	16645
912.633	16478
912.748	16542
912.862	16352
912.976	16261
913.09	16162
913.204	16268
913.318	16265
913.431	16333
913.545	16398
913.659	16451
913.772	16207
913.886	16150
914	16055
914.113	16169
914.226	16257
914.34	16219
914.453	15964
914.566	16006
914.68	15975
914.793	15888
914.906	15781
915.019	15606
915.132	15667
915.245	15633
915.358	15675
915.47	15606
915.583	15663
915.696	15644
915.809	15781
915.921	15770
916.034	15679
916.146	15576
916.259	15694
916.371	15618
916.483	15599
916.595	15523
916.708	15538
916.82	15504
916.932	15519
917.044	15454
917.156	15450
917.268	15313
917.38	15336
917.491	15287
917.603	15291
917.715	15291
917.826	15496
917.938	15298
918.049	15218
918.161	15294
918.272	15374
918.384	15374
918.495	15291
918.606	15081
918.717	15097
918.828	15085
918.939	15188
919.05	15001
919.161	15066
919.272	14883
919.383	14876
919.494	15135
919.604	15207
919.715	15055
919.826	14952
919.936	15013
920.047	15077
920.157	14967
920.267	15230
920.378	15024
920.488	14941
920.598	15195
920.708	15283
920.818	15146
920.928	15161
921.038	15233
921.148	15252
921.258	14941
921.368	14906
921.477	14727
921.587	14674
921.697	14560
921.806	14781
921.916	14579
922.025	14503
922.134	14442
922.244	14267
922.353	14385
922.462	14301
922.571	14206
922.68	14012
922.789	14012
922.898	14134
923.007	13925
923.116	14077
923.224	14092
923.333	13970
923.442	13970
923.55	13826
923.659	13811
923.767	13902
923.876	13833
923.984	13875
924.092	13845
924.201	13784
924.309	13811
924.417	13795
924.525	13704
924.633	13624
924.741	14564
924.849	13499
924.956	13628
925.064	13407
925.172	13285
925.279	13445
925.387	13388
925.494	13381
925.602	13540
925.709	13472
925.816	13304
925.924	13282
926.031	13369
926.138	13350
926.245	13358
926.352	13274
926.459	13453
926.566	13335
926.673	13304
926.779	13168
926.886	13141
926.993	13038
927.099	12996
927.206	12913
927.312	12943
927.419	13050
927.525	12985
927.631	12932
927.737	12852
927.843	12802
927.95	12688
928.056	12772
928.162	12722
928.267	12856
928.373	13324
928.479	12852
928.585	12582
928.69	12734
928.796	12768
928.901	12669
929.007	12502
929.112	12608
929.218	12627
929.323	12525
929.428	12486
929.533	12604
929.638	12448
929.743	12494
929.848	12502
929.953	12445
930.058	12429
930.163	12182
930.267	12178
930.372	12353
930.477	12102
930.581	12380
930.685	12216
930.79	12194
930.894	12038
930.998	12026
931.103	12209
931.207	11703
931.311	11710
931.415	11619
931.519	11417
931.623	11356
