Data from test_V78500241_3188.txt Node
Date: Fri Mar 25 16:03:53 CST 2022
User: usil
Spectrometer: V785-0024
Trigger mode: 0
Integration Time (sec): 4.000000E-1
Scans to average: 1
Nonlinearity correction enabled: false
Boxcar width: 0
Storing dark spectrum: false
XAxis mode: Wavelengths
Number of Pixels in Spectrum: 1024
>>>>>Begin Spectral Data<<<<<
801.071	28611
801.214	28432
801.356	28363
801.499	28367
801.641	28181
801.783	28207
801.926	28295
802.068	28253
802.211	28196
802.353	28002
802.496	27914
802.638	27991
802.78	27854
802.923	27812
803.065	27861
803.208	27781
803.35	27911
803.492	27953
803.635	28093
803.777	28017
803.919	28253
804.061	28322
804.204	28177
804.346	28120
804.488	28002
804.63	28211
804.773	28086
804.915	28211
805.057	28280
805.199	28067
805.341	28192
805.483	28261
805.626	28306
805.768	28143
805.91	28405
806.052	28413
806.194	28276
806.336	28390
806.478	28238
806.62	28344
806.762	28363
806.904	28634
807.046	28858
807.188	28656
807.33	28694
807.472	28752
807.614	28771
807.756	28790
807.898	28542
808.04	28538
808.182	28489
808.324	28577
808.465	28679
808.607	28892
808.749	29003
808.891	29174
809.033	29189
809.174	29109
809.316	29014
809.458	28828
809.6	29006
809.741	29128
809.883	29121
810.025	29185
810.166	29269
810.308	29318
810.45	29242
810.591	29174
810.733	28976
810.875	29113
811.016	29037
811.158	29006
811.299	29147
811.441	29128
811.582	29162
811.724	29056
811.865	29022
812.007	28984
812.148	28995
812.29	28934
812.431	29280
812.573	29307
812.714	29307
812.855	29615
812.997	29596
813.138	29733
813.279	29668
813.421	29535
813.562	29505
813.703	29258
813.845	29098
813.986	29162
814.127	28733
814.268	28740
814.41	28869
814.551	28771
814.692	28729
814.833	28516
814.974	28698
815.115	28725
815.256	28554
815.397	28554
815.539	28683
815.68	28390
815.821	28337
815.962	28485
816.103	28660
816.244	28428
816.385	28440
816.526	28158
816.666	28211
816.807	28017
816.948	28082
817.089	28143
817.23	28109
817.371	28090
817.512	28048
817.653	28013
817.793	27956
817.934	28040
818.075	27987
818.216	28143
818.356	28048
818.497	27819
818.638	27663
818.778	27690
818.919	27785
819.06	27888
819.2	27922
819.341	28040
819.481	28029
819.622	28112
819.762	28367
819.903	28333
820.043	28196
820.184	28135
820.324	28207
820.465	28268
820.605	28166
820.746	28040
820.886	28029
821.026	28082
821.167	28090
821.307	28124
821.447	28120
821.588	27930
821.728	27770
821.868	27679
822.008	27488
822.149	27576
822.289	27462
822.429	27116
822.569	27256
822.709	27100
822.849	27192
822.99	27036
823.13	26933
823.27	26891
823.41	26735
823.55	26663
823.69	26819
823.83	26925
823.97	26765
824.11	26708
824.25	26648
824.389	26587
824.529	26743
824.669	26568
824.809	26750
824.949	26815
825.089	26849
825.228	26838
825.368	26549
825.508	26648
825.648	26488
825.787	26674
825.927	26537
826.067	26503
826.206	26587
826.346	26648
826.485	26602
826.625	26609
826.765	26788
826.904	26530
827.044	26355
827.183	26442
827.323	26256
827.462	26256
827.601	26263
827.741	26214
827.88	26229
828.02	26043
828.159	26065
828.298	26275
828.437	26225
828.577	26187
828.716	26309
828.855	26130
828.994	25868
829.134	25974
829.273	25955
829.412	25845
829.551	25856
829.69	26039
829.829	25887
829.968	25997
830.107	25925
830.246	25887
830.385	25913
830.524	25826
830.663	25811
830.802	25506
830.941	25571
831.08	25601
831.219	25738
831.357	25556
831.496	25681
831.635	25563
831.774	25308
831.913	25445
832.051	25373
832.19	25369
832.329	25274
832.467	25343
832.606	25232
832.744	25141
832.883	25168
833.022	25187
833.16	25274
833.299	25168
833.437	25217
833.576	25324
833.714	25255
833.852	25369
833.991	25354
834.129	25316
834.267	25304
834.406	25221
834.544	25430
834.682	25316
834.821	25202
834.959	25483
835.097	25198
835.235	25293
835.373	25247
835.511	25168
835.65	25240
835.788	25091
835.926	25015
836.064	24711
836.202	24814
836.34	25076
836.478	25297
836.615	25046
836.753	25324
836.891	25175
837.029	25217
837.167	25034
837.305	24905
837.443	24985
837.58	25012
837.718	24962
837.856	24932
837.993	24856
838.131	25053
838.269	24814
838.406	24798
838.544	24658
838.681	24612
838.819	24494
838.956	24361
839.094	24426
839.231	24452
839.369	24532
839.506	24791
839.643	24646
839.781	24319
839.918	24281
840.055	24437
840.193	24365
840.33	24281
840.467	24334
840.604	24296
840.742	24509
840.879	24152
841.016	24300
841.153	24254
841.29	24410
841.427	24220
841.564	24353
841.701	24292
841.838	24194
841.975	24159
842.112	24034
842.249	24095
842.385	24011
842.522	24254
842.659	24121
842.796	24114
842.933	24026
843.069	24007
843.206	23923
843.343	24057
843.479	24083
843.616	23999
843.752	23897
843.889	23863
844.025	24007
844.162	23878
844.298	23927
844.435	23764
844.571	23851
844.708	23904
844.844	23885
844.98	23904
845.117	23912
845.253	23798
845.389	23718
845.525	23668
845.661	23687
845.798	23531
845.934	23653
846.07	23467
846.206	23577
846.342	23665
846.478	23562
846.614	23387
846.75	23193
846.886	23258
847.022	23356
847.158	23273
847.294	23326
847.429	23322
847.565	23326
847.701	23497
847.837	23052
847.972	22961
848.108	23105
848.244	23010
848.379	23018
848.515	22847
848.65	22778
848.786	22972
848.921	22828
849.057	23041
849.192	22900
849.328	22862
849.463	22877
849.598	22816
849.734	22672
849.869	22763
850.004	22656
850.14	22596
850.275	22637
850.41	22615
850.545	22645
850.68	22596
850.815	22812
850.95	22694
851.085	22820
851.22	22706
851.355	22755
851.49	22596
851.625	22500
851.76	22603
851.895	22641
852.03	22561
852.165	22596
852.299	22672
852.434	22592
852.569	22767
852.703	22675
852.838	22702
852.973	22740
853.107	22717
853.242	22622
853.376	22413
853.511	22379
853.645	22337
853.78	22672
853.914	22409
854.048	22398
854.183	22550
854.317	22478
854.451	22592
854.585	22386
854.72	22459
854.854	22466
854.988	22451
855.122	22519
855.256	22440
855.39	22432
855.524	22573
855.658	22550
855.792	22512
855.926	22462
856.06	22516
856.194	22508
856.327	22508
856.461	22481
856.595	22542
856.729	22352
856.862	22348
856.996	22557
857.13	22584
857.263	22470
857.397	22554
857.53	22455
857.664	22489
857.797	22523
857.931	22542
858.064	22394
858.197	22573
858.331	22405
858.464	22459
858.597	22261
858.731	22409
858.864	22447
858.997	22459
859.13	22390
859.263	22375
859.396	22470
859.529	22455
859.662	22272
859.795	22447
859.928	22398
860.061	22493
860.194	22763
860.327	22500
860.46	22554
860.592	22599
860.725	22721
860.858	22588
860.99	22519
861.123	22356
861.256	22333
861.388	22344
861.521	23296
861.653	22246
861.786	22181
861.918	22299
862.05	22318
862.183	22382
862.315	22443
862.447	22474
862.58	22382
862.712	22173
862.844	22143
862.976	22238
863.108	22226
863.24	22481
863.372	22120
863.504	22010
863.636	22139
863.768	22109
863.9	22188
864.032	22139
864.164	22150
864.296	22166
864.428	22200
864.559	22211
864.691	22234
864.823	22204
864.954	22112
865.086	22112
865.217	22074
865.349	21827
865.48	22086
865.612	21987
865.743	22166
865.875	22044
866.006	22116
866.137	21987
866.269	21994
866.4	21892
866.531	21960
866.662	21892
866.793	21903
866.924	21949
867.055	21960
867.186	21968
867.317	21953
867.448	21941
867.579	21998
867.71	21911
867.841	21873
867.972	21918
868.103	21964
868.233	21934
868.364	21930
868.495	22090
868.625	22188
868.756	22314
868.886	22162
869.017	22238
869.147	22303
869.278	22280
869.408	22272
869.539	22242
869.669	22405
869.799	22242
869.929	22413
870.06	22287
870.19	22546
870.32	22455
870.45	22497
870.58	22523
870.71	22622
870.84	22634
870.97	22653
871.1	22550
871.23	22786
871.36	22816
871.489	22721
871.619	22653
871.749	22843
871.879	22869
872.008	22965
872.138	22904
872.267	22869
872.397	22797
872.526	22702
872.656	22584
872.785	22729
872.915	22930
873.044	23010
873.173	22793
873.303	22953
873.432	22908
873.561	22904
873.69	22824
873.819	22881
873.948	22976
874.077	22908
874.206	22809
874.335	22759
874.464	22816
874.593	23025
874.722	23044
874.851	23117
874.979	23132
875.108	23060
875.237	23140
875.365	22930
875.494	23041
875.623	23098
875.751	23056
875.88	23162
876.008	23102
876.136	23235
876.265	23406
876.393	23539
876.521	23604
876.65	23436
876.778	23417
876.906	23474
877.034	23379
877.162	23429
877.29	23368
877.418	23478
877.546	23345
877.674	23360
877.802	23539
877.93	23448
878.058	23444
878.185	23360
878.313	23368
878.441	23383
878.568	23220
878.696	23322
878.824	23360
878.951	23444
879.079	23516
879.206	23570
879.333	23440
879.461	23524
879.588	23478
879.715	23547
879.842	23646
879.97	23463
880.097	23299
880.224	23303
880.351	23334
880.478	23250
880.605	23151
880.732	23227
880.859	23478
880.986	23246
881.112	23174
881.239	23140
881.366	22915
881.493	22873
881.619	22881
881.746	22710
881.872	22694
881.999	22748
882.125	22771
882.252	22809
882.378	22805
882.505	22896
882.631	22500
882.757	22493
882.883	22615
883.01	22478
883.136	22421
883.262	22356
883.388	22226
883.514	22542
883.64	22470
883.766	22382
883.892	22257
884.018	22226
884.143	22432
884.269	22474
884.395	22067
884.52	22086
884.646	22109
884.772	21907
884.897	21987
885.023	22082
885.148	22147
885.274	22139
885.399	22246
885.524	22082
885.65	22070
885.775	22090
885.9	22048
886.025	22200
886.15	22196
886.275	21968
886.4	22002
886.525	22112
886.65	22105
886.775	22029
886.9	22196
887.025	22238
887.149	22006
887.274	21892
887.399	21823
887.523	21831
887.648	21804
887.773	21854
887.897	21915
888.021	21842
888.146	21797
888.27	21873
888.395	21892
888.519	21956
888.643	21873
888.767	21835
888.891	21774
889.015	21671
889.139	21656
889.263	21603
889.387	21701
889.511	21663
889.635	21713
889.759	21538
889.883	21622
890.006	21637
890.13	21713
890.254	21523
890.377	21549
890.501	21370
890.624	21382
890.748	21340
890.871	21256
890.995	21157
891.118	21024
891.241	21279
891.364	21245
891.488	21268
891.611	21169
891.734	21150
891.857	21195
891.98	21237
892.103	21093
892.226	21096
892.349	21138
892.471	21039
892.594	21116
892.717	21123
892.839	21142
892.962	21070
893.085	21245
893.207	20963
893.33	20876
893.452	21032
893.575	21096
893.697	21074
893.819	21211
893.941	21211
894.064	21176
894.186	21024
894.308	20880
894.43	21199
894.552	21165
894.674	21131
894.796	20960
894.918	21085
895.04	20971
895.161	21055
895.283	21112
895.405	21024
895.526	21070
895.648	20918
895.769	21081
895.891	21154
896.012	21195
896.134	21036
896.255	20937
896.376	20975
896.498	21039
896.619	20944
896.74	20982
896.861	21116
896.982	21329
897.103	21428
897.224	21203
897.345	21237
897.466	21100
897.587	21233
897.708	21374
897.828	21203
897.949	21264
898.07	21062
898.19	21135
898.311	21154
898.431	21142
898.552	21306
898.672	21382
898.792	21260
898.913	21256
899.033	21055
899.153	21036
899.273	20971
899.393	20979
899.513	21070
899.633	21043
899.753	21032
899.873	20933
899.993	20990
900.113	20982
900.232	20971
900.352	20906
900.472	20864
900.591	20720
900.711	20678
900.83	20746
900.95	20868
901.069	20819
901.189	20720
901.308	20457
901.427	20259
901.546	20358
901.665	20442
901.784	20393
901.904	20172
902.023	19955
902.141	19917
902.26	19799
902.379	19940
902.498	19936
902.617	19795
902.735	19814
902.854	19772
902.973	19700
903.091	19525
903.21	19491
903.328	19464
903.446	19430
903.565	19346
903.683	19247
903.801	19152
903.919	19255
904.038	19187
904.156	19038
904.274	19050
904.392	18996
904.51	18954
904.627	18947
904.745	18989
904.863	19145
904.981	18840
905.098	18684
905.216	18719
905.334	18711
905.451	18692
905.569	18623
905.686	18658
905.803	18696
905.921	18532
906.038	18479
906.155	18479
906.272	18410
906.389	18407
906.506	18239
906.623	18117
906.74	18228
906.857	18136
906.974	18167
907.091	18304
907.208	18251
907.324	18300
907.441	18098
907.557	17988
907.674	17977
907.79	17931
907.907	17893
908.023	17939
908.139	18034
908.256	17805
908.372	17786
908.488	17885
908.604	17691
908.72	17573
908.836	17710
908.952	17524
909.068	17794
909.184	17646
909.3	17570
909.415	17680
909.531	17539
909.647	17406
909.762	17356
909.878	17273
909.993	17334
910.108	17341
910.224	17223
910.339	17189
910.454	17208
910.57	17143
910.685	17132
910.8	17356
910.915	17299
911.03	17197
911.145	17090
911.259	16927
911.374	16862
911.489	16862
911.604	16839
911.718	16691
911.833	16736
911.947	16580
912.062	16459
912.176	16569
912.291	16653
912.405	16607
912.519	16862
912.633	16771
912.748	16740
912.862	16733
912.976	16523
913.09	16443
913.204	16356
913.318	16535
913.431	16641
913.545	16504
913.659	16546
913.772	16405
913.886	16390
914	16272
914.113	16276
914.226	16405
914.34	16265
914.453	16226
914.566	16249
914.68	16120
914.793	16185
914.906	15911
915.019	15865
915.132	15873
915.245	15846
915.358	15838
915.47	15751
915.583	15762
915.696	15770
915.809	15926
915.921	16002
916.034	15797
916.146	15751
916.259	15667
916.371	15747
916.483	15888
916.595	15732
916.708	15698
916.82	15648
916.932	15584
917.044	15641
917.156	15622
917.268	15458
917.38	15450
917.491	15420
917.603	15473
917.715	15492
917.826	15584
917.938	15367
918.049	15310
918.161	15439
918.272	15580
918.384	15549
918.495	15412
918.606	15283
918.717	15138
918.828	15256
918.939	15272
919.05	15074
919.161	15195
919.272	14982
919.383	15135
919.494	15249
919.604	15405
919.715	15032
919.826	15142
919.936	15169
920.047	15161
920.157	15157
920.267	15329
920.378	15138
920.488	15085
920.598	15313
920.708	15428
920.818	15351
920.928	15218
921.038	15428
921.148	15424
921.258	15066
921.368	14971
921.477	14952
921.587	14872
921.697	14765
921.806	14891
921.916	14579
922.025	14583
922.134	14587
922.244	14503
922.353	14571
922.462	14381
922.571	14286
922.68	14172
922.789	14225
922.898	14111
923.007	14016
923.116	14229
923.224	14180
923.333	14100
923.442	14005
923.55	14005
923.659	13940
923.767	13993
923.876	13849
923.984	13997
924.092	13955
924.201	13989
924.309	13890
924.417	13761
924.525	13822
924.633	13875
924.741	14632
924.849	13575
924.956	13719
925.064	13655
925.172	13502
925.279	13540
925.387	13643
925.494	13544
925.602	13605
925.709	13620
925.816	13521
925.924	13521
926.031	13552
926.138	13426
926.245	13578
926.352	13377
926.459	13582
926.566	13544
926.673	13373
926.779	13320
926.886	13343
926.993	13122
927.099	13110
927.206	12973
927.312	13050
927.419	13122
927.525	13114
927.631	13118
927.737	13053
927.843	12947
927.95	12833
928.056	12916
928.162	12928
928.267	12943
928.373	13483
928.479	13008
928.585	12779
928.69	12829
928.796	12837
928.901	12829
929.007	12673
929.112	12711
929.218	12726
929.323	12635
929.428	12547
929.533	12650
929.638	12563
929.743	12544
929.848	12547
929.953	12570
930.058	12422
930.163	12201
930.267	12319
930.372	12426
930.477	12277
930.581	12410
930.685	12292
930.79	12178
930.894	12178
930.998	12152
931.103	12209
931.207	11912
931.311	11851
931.415	11695
931.519	11543
931.623	11455
