Data from test_V78500241_3395.txt Node
Date: Fri Mar 25 16:05:19 CST 2022
User: usil
Spectrometer: V785-0024
Trigger mode: 0
Integration Time (sec): 4.000000E-1
Scans to average: 1
Nonlinearity correction enabled: false
Boxcar width: 0
Storing dark spectrum: false
XAxis mode: Wavelengths
Number of Pixels in Spectrum: 1024
>>>>>Begin Spectral Data<<<<<
801.071	28192
801.214	28090
801.356	27994
801.499	27751
801.641	27778
801.783	27774
801.926	27743
802.068	27705
802.211	27648
802.353	27720
802.496	27450
802.638	27401
802.78	27348
802.923	27313
803.065	27370
803.208	27462
803.35	27386
803.492	27424
803.635	27648
803.777	27454
803.919	27542
804.061	27892
804.204	27580
804.346	27389
804.488	27447
804.63	27625
804.773	27572
804.915	27511
805.057	27793
805.199	27709
805.341	27633
805.483	27736
805.626	27682
805.768	27564
805.91	27747
806.052	27717
806.194	27690
806.336	27949
806.478	27846
806.62	27625
806.762	27823
806.904	28010
807.046	28287
807.188	28173
807.33	28158
807.472	28234
807.614	27994
807.756	28207
807.898	28101
808.04	27964
808.182	27869
808.324	28013
808.465	28128
808.607	28169
808.749	28401
808.891	28554
809.033	28569
809.174	28466
809.316	28443
809.458	28428
809.6	28360
809.741	28489
809.883	28565
810.025	28569
810.166	28634
810.308	28626
810.45	28603
810.591	28618
810.733	28424
810.875	28519
811.016	28230
811.158	28226
811.299	28295
811.441	28618
811.582	28577
811.724	28401
811.865	28455
812.007	28424
812.148	28462
812.29	28284
812.431	28611
812.573	28710
812.714	28793
812.855	28839
812.997	28843
813.138	29212
813.279	29060
813.421	28885
813.562	28965
813.703	28729
813.845	28542
813.986	28341
814.127	28135
814.268	28055
814.41	28082
814.551	28272
814.692	28169
814.833	28029
814.974	28040
815.115	28048
815.256	28010
815.397	28048
815.539	27975
815.68	27751
815.821	27743
815.962	27808
816.103	27869
816.244	27732
816.385	27648
816.526	27675
816.666	27370
816.807	27469
816.948	27363
817.089	27408
817.23	27397
817.371	27496
817.512	27519
817.653	27408
817.793	27416
817.934	27256
818.075	27233
818.216	27386
818.356	27420
818.497	27313
818.638	27100
818.778	27051
818.919	27222
819.06	27214
819.2	27192
819.341	27355
819.481	27481
819.622	27549
819.762	27804
819.903	27500
820.043	27553
820.184	27439
820.324	27469
820.465	27629
820.605	27576
820.746	27572
820.886	27310
821.026	27401
821.167	27462
821.307	27466
821.447	27469
821.588	27317
821.728	27138
821.868	27017
822.008	26937
822.149	26845
822.289	26826
822.429	26674
822.569	26621
822.709	26442
822.849	26370
822.99	26347
823.13	26484
823.27	26366
823.41	26191
823.55	26145
823.69	26229
823.83	26145
823.97	26096
824.11	25963
824.25	25932
824.389	25928
824.529	26115
824.669	25898
824.809	26020
824.949	26046
825.089	25925
825.228	26020
825.368	25696
825.508	25772
825.648	25925
825.787	25852
825.927	25997
826.067	25860
826.206	25871
826.346	25936
826.485	26039
826.625	25936
826.765	25875
826.904	25982
827.044	25639
827.183	25548
827.323	25540
827.462	25609
827.601	25422
827.741	25601
827.88	25632
828.02	25537
828.159	25514
828.298	25575
828.437	25544
828.577	25525
828.716	25776
828.855	25464
828.994	25365
829.134	25251
829.273	25449
829.412	25206
829.551	25160
829.69	25179
829.829	25339
829.968	25324
830.107	25354
830.246	25236
830.385	25198
830.524	25152
830.663	25084
830.802	25031
830.941	25008
831.08	24776
831.219	24966
831.357	24962
831.496	25084
831.635	24970
831.774	24829
831.913	24696
832.051	24631
832.19	24688
832.329	24604
832.467	24547
832.606	24456
832.744	24555
832.883	24536
833.022	24563
833.16	24429
833.299	24525
833.437	24635
833.576	24536
833.714	24631
833.852	24627
833.991	24635
834.129	24608
834.267	24707
834.406	24582
834.544	24635
834.682	24772
834.821	24513
834.959	24764
835.097	24441
835.235	24623
835.373	24677
835.511	24555
835.65	24494
835.788	24437
835.926	24300
836.064	24220
836.202	24433
836.34	24475
836.478	24661
836.615	24563
836.753	24559
836.891	24566
837.029	24429
837.167	24239
837.305	24448
837.443	24201
837.58	24163
837.718	24315
837.856	24178
837.993	24125
838.131	24300
838.269	24053
838.406	24171
838.544	24182
838.681	23901
838.819	23927
838.956	23745
839.094	23764
839.231	23870
839.369	23939
839.506	24213
839.643	23999
839.781	23916
839.918	23824
840.055	23779
840.193	23703
840.33	23581
840.467	23733
840.604	23547
840.742	23828
840.879	23585
841.016	23653
841.153	23554
841.29	23748
841.427	23611
841.564	23741
841.701	23482
841.838	23649
841.975	23581
842.112	23505
842.249	23474
842.385	23383
842.522	23684
842.659	23482
842.796	23345
842.933	23417
843.069	23452
843.206	23383
843.343	23459
843.479	23425
843.616	23376
843.752	23140
843.889	23208
844.025	23383
844.162	23197
844.298	23181
844.435	23132
844.571	23140
844.708	23067
844.844	23402
844.98	23292
845.117	23315
845.253	23090
845.389	22949
845.525	23105
845.661	23022
845.798	23044
845.934	22949
846.07	22919
846.206	23037
846.342	22957
846.478	22873
846.614	22691
846.75	22698
846.886	22675
847.022	22713
847.158	22706
847.294	22668
847.429	22831
847.565	22622
847.701	22957
847.837	22550
847.972	22306
848.108	22527
848.244	22527
848.379	22192
848.515	22318
848.65	22219
848.786	22276
848.921	22207
849.057	22352
849.192	22306
849.328	22261
849.463	22246
849.598	22185
849.734	22147
849.869	22158
850.004	22067
850.14	22158
850.275	22044
850.41	21918
850.545	22040
850.68	21857
850.815	22067
850.95	22059
851.085	22207
851.22	22040
851.355	22013
851.49	21941
851.625	22029
851.76	22070
851.895	22002
852.03	21930
852.165	22002
852.299	21960
852.434	22078
852.569	22051
852.703	22010
852.838	22021
852.973	22177
853.107	22116
853.242	21937
853.376	21781
853.511	21724
853.645	21808
853.78	21960
853.914	21949
854.048	21766
854.183	21770
854.317	21819
854.451	22048
854.585	21865
854.72	21835
854.854	21892
854.988	21800
855.122	21888
855.256	21819
855.39	21789
855.524	21865
855.658	21835
855.792	21808
855.926	21911
856.06	21903
856.194	21823
856.327	21800
856.461	21797
856.595	21759
856.729	21759
856.862	22013
856.996	21960
857.13	21854
857.263	21876
857.397	21903
857.53	21770
857.664	21907
857.797	22017
857.931	21869
858.064	21838
858.197	21899
858.331	21880
858.464	21915
858.597	21762
858.731	21812
858.864	21800
858.997	21732
859.13	21888
859.263	21892
859.396	21953
859.529	21789
859.662	21713
859.795	21880
859.928	21918
860.061	22025
860.194	22116
860.327	21987
860.46	22010
860.592	22082
860.725	21930
860.858	21949
860.99	21876
861.123	21709
861.256	21850
861.388	21907
861.521	22660
861.653	21713
861.786	21644
861.918	21682
862.05	21717
862.183	21869
862.315	21918
862.447	21903
862.58	21778
862.712	21580
862.844	21526
862.976	21644
863.108	21633
863.24	22070
863.372	21561
863.504	21583
863.636	21545
863.768	21641
863.9	21675
864.032	21530
864.164	21705
864.296	21690
864.428	21690
864.559	21568
864.691	21583
864.823	21572
864.954	21458
865.086	21370
865.217	21557
865.349	21428
865.48	21443
865.612	21359
865.743	21587
865.875	21378
866.006	21336
866.137	21519
866.269	21450
866.4	21504
866.531	21526
866.662	21374
866.793	21268
866.924	21454
867.055	21447
867.186	21386
867.317	21313
867.448	21260
867.579	21397
867.71	21313
867.841	21359
867.972	21454
868.103	21473
868.233	21332
868.364	21549
868.495	21500
868.625	21599
868.756	21755
868.886	21435
869.017	21538
869.147	21614
869.278	21720
869.408	21736
869.539	21603
869.669	21709
869.799	21823
869.929	21724
870.06	21743
870.19	21953
870.32	22070
870.45	21918
870.58	22051
870.71	22181
870.84	22082
870.97	22021
871.1	22002
871.23	22280
871.36	22257
871.489	22131
871.619	22093
871.749	22318
871.879	22154
872.008	22337
872.138	22238
872.267	22192
872.397	22021
872.526	22074
872.656	22158
872.785	22029
872.915	22306
873.044	22318
873.173	22185
873.303	22333
873.432	22322
873.561	22318
873.69	22276
873.819	22329
873.948	22371
874.077	22303
874.206	22325
874.335	22310
874.464	22318
874.593	22588
874.722	22527
874.851	22561
874.979	22516
875.108	22535
875.237	22371
875.365	22481
875.494	22333
875.623	22607
875.751	22413
875.88	22436
876.008	22577
876.136	22615
876.265	22816
876.393	22934
876.521	22949
876.65	22892
876.778	22774
876.906	22809
877.034	22698
877.162	22843
877.29	22835
877.418	22873
877.546	22824
877.674	22930
877.802	22835
877.93	22881
878.058	22675
878.185	22653
878.313	22755
878.441	22778
878.568	22698
878.696	22839
878.824	22717
878.951	22854
879.079	22972
879.206	23022
879.333	23075
879.461	22889
879.588	22809
879.715	22957
879.842	23025
879.97	22854
880.097	22710
880.224	22592
880.351	22713
880.478	22637
880.605	22672
880.732	22649
880.859	22949
880.986	22668
881.112	22618
881.239	22542
881.366	22451
881.493	22295
881.619	22196
881.746	22360
881.872	22246
881.999	22177
882.125	22169
882.252	22325
882.378	22196
882.505	22238
882.631	22051
882.757	21903
882.883	22086
883.01	21884
883.136	21861
883.262	21781
883.388	21781
883.514	21915
883.64	21884
883.766	21724
883.892	21644
884.018	21603
884.143	21857
884.269	22002
884.395	21625
884.52	21488
884.646	21618
884.772	21450
884.897	21530
885.023	21504
885.148	21572
885.274	21736
885.399	21663
885.524	21504
885.65	21580
885.775	21519
885.9	21504
886.025	21534
886.15	21507
886.275	21405
886.4	21458
886.525	21477
886.65	21515
886.775	21542
886.9	21694
887.025	21831
887.149	21587
887.274	21298
887.399	21310
887.523	21294
887.648	21249
887.773	21222
887.897	21397
888.021	21393
888.146	21161
888.27	21370
888.395	21488
888.519	21252
888.643	21287
888.767	21237
888.891	21138
889.015	21150
889.139	21146
889.263	21119
889.387	21237
889.511	21192
889.635	21249
889.759	20990
889.883	21074
890.006	21062
890.13	21154
890.254	21112
890.377	21036
890.501	20891
890.624	20823
890.748	20788
890.871	20743
890.995	20602
891.118	20560
891.241	20686
891.364	20678
891.488	20739
891.611	20727
891.734	20625
891.857	20697
891.98	20636
892.103	20670
892.226	20800
892.349	20594
892.471	20533
892.594	20587
892.717	20579
892.839	20530
892.962	20606
893.085	20598
893.207	20412
893.33	20358
893.452	20537
893.575	20552
893.697	20598
893.819	20659
893.941	20754
894.064	20636
894.186	20621
894.308	20503
894.43	20659
894.552	20720
894.674	20708
894.796	20366
894.918	20552
895.04	20514
895.161	20632
895.283	20568
895.405	20560
895.526	20568
895.648	20400
895.769	20556
895.891	20590
896.012	20667
896.134	20495
896.255	20590
896.376	20556
896.498	20514
896.619	20708
896.74	20530
896.861	20644
896.982	20929
897.103	20975
897.224	20910
897.345	20796
897.466	20716
897.587	20708
897.708	20731
897.828	20750
897.949	20758
898.07	20621
898.19	20720
898.311	20842
898.431	20701
898.552	20765
898.672	20902
898.792	20895
898.913	20724
899.033	20773
899.153	20621
899.273	20495
899.393	20511
899.513	20564
899.633	20343
899.753	20590
899.873	20351
899.993	20438
900.113	20442
900.232	20541
900.352	20442
900.472	20461
900.591	20252
900.711	20339
900.83	20172
900.95	20374
901.069	20480
901.189	20092
901.308	19856
901.427	19856
901.546	19833
901.665	19879
901.784	19913
901.904	19670
902.023	19559
902.141	19460
902.26	19350
902.379	19510
902.498	19335
902.617	19339
902.735	19327
902.854	19297
902.973	19244
903.091	19129
903.21	18966
903.328	19042
903.446	19072
903.565	18821
903.683	18939
903.801	18646
903.919	18798
904.038	18745
904.156	18604
904.274	18582
904.392	18536
904.51	18627
904.627	18532
904.745	18650
904.863	18677
904.981	18361
905.098	18133
905.216	18365
905.334	18357
905.451	18232
905.569	18273
905.686	18304
905.803	18216
905.921	18106
906.038	18114
906.155	18026
906.272	17870
906.389	17874
906.506	17832
906.623	17855
906.74	17790
906.857	17703
906.974	17767
907.091	17878
907.208	17843
907.324	17824
907.441	17608
907.557	17429
907.674	17501
907.79	17486
907.907	17402
908.023	17493
908.139	17486
908.256	17440
908.372	17356
908.488	17391
908.604	17197
908.72	17140
908.836	17162
908.952	17079
909.068	17250
909.184	17315
909.3	17174
909.415	17220
909.531	17189
909.647	16915
909.762	16938
909.878	16831
909.993	16820
910.108	16930
910.224	16889
910.339	16801
910.454	16869
910.57	16744
910.685	16649
910.8	16877
910.915	16866
911.03	16702
911.145	16599
911.259	16485
911.374	16440
911.489	16447
911.604	16310
911.718	16322
911.833	16280
911.947	16090
912.062	16017
912.176	16200
912.291	16238
912.405	16200
912.519	16390
912.633	16402
912.748	16211
912.862	16143
912.976	16109
913.09	15987
913.204	16074
913.318	16185
913.431	16074
913.545	16059
913.659	16074
913.772	16006
913.886	15850
914	15766
914.113	15953
914.226	16029
914.34	15873
914.453	15728
914.566	15880
914.68	15865
914.793	15656
914.906	15488
915.019	15534
915.132	15435
915.245	15412
915.358	15466
915.47	15553
915.583	15500
915.696	15542
915.809	15591
915.921	15618
916.034	15458
916.146	15317
916.259	15378
916.371	15389
916.483	15382
916.595	15199
916.708	15408
916.82	15203
916.932	15252
917.044	15249
917.156	15135
917.268	15093
917.38	15131
917.491	15043
917.603	15142
917.715	15112
917.826	15211
917.938	14929
918.049	14902
918.161	15074
918.272	15199
918.384	15108
918.495	15150
918.606	14849
918.717	14781
918.828	14861
918.939	14883
919.05	14781
919.161	14838
919.272	14610
919.383	14682
919.494	14853
919.604	15005
919.715	14758
919.826	14724
919.936	14743
920.047	14853
920.157	14743
920.267	14960
920.378	14804
920.488	14724
920.598	14960
920.708	15062
920.818	14960
920.928	14956
921.038	15131
921.148	15013
921.258	14750
921.368	14552
921.477	14526
921.587	14446
921.697	14404
921.806	14526
921.916	14412
922.025	14275
922.134	14138
922.244	14084
922.353	14107
922.462	14092
922.571	14001
922.68	13727
922.789	13788
922.898	13852
923.007	13708
923.116	13830
923.224	13788
923.333	13750
923.442	13731
923.55	13616
923.659	13670
923.767	13742
923.876	13578
923.984	13666
924.092	13563
924.201	13518
924.309	13544
924.417	13422
924.525	13491
924.633	13487
924.741	14290
924.849	13266
924.956	13308
925.064	13320
925.172	13084
925.279	13156
925.387	13190
925.494	13168
925.602	13381
925.709	13225
925.816	13061
925.924	13122
926.031	13255
926.138	13050
926.245	13266
926.352	12981
926.459	13202
926.566	13217
926.673	13179
926.779	12928
926.886	12951
926.993	12837
927.099	12848
927.206	12764
927.312	12662
927.419	12814
927.525	12730
927.631	12768
927.737	12654
927.843	12589
927.95	12467
928.056	12597
928.162	12566
928.267	12642
928.373	13164
928.479	12612
928.585	12403
928.69	12555
928.796	12601
928.901	12391
929.007	12311
929.112	12384
929.218	12361
929.323	12361
929.428	12353
929.533	12437
929.638	12182
929.743	12254
929.848	12338
929.953	12258
930.058	12121
930.163	12011
930.267	11988
930.372	12182
930.477	11908
930.581	12167
930.685	12110
930.79	11923
930.894	11824
930.998	11817
931.103	11965
931.207	11558
931.311	11558
931.415	11440
931.519	11174
931.623	11216
