Data from test_V78500241_2425.txt Node
Date: Fri Mar 25 15:58:35 CST 2022
User: usil
Spectrometer: V785-0024
Trigger mode: 0
Integration Time (sec): 4.000000E-1
Scans to average: 1
Nonlinearity correction enabled: false
Boxcar width: 0
Storing dark spectrum: false
XAxis mode: Wavelengths
Number of Pixels in Spectrum: 1024
>>>>>Begin Spectral Data<<<<<
801.071	28691
801.214	28634
801.356	28356
801.499	28207
801.641	28162
801.783	28162
801.926	28268
802.068	28010
802.211	28082
802.353	28147
802.496	27819
802.638	27812
802.78	27800
802.923	27686
803.065	27739
803.208	27713
803.35	27804
803.492	28017
803.635	27998
803.777	27857
803.919	27991
804.061	28314
804.204	28078
804.346	28010
804.488	28032
804.63	28105
804.773	27945
804.915	28109
805.057	28204
805.199	27987
805.341	28143
805.483	28162
805.626	28268
805.768	28143
805.91	28242
806.052	28150
806.194	28139
806.336	28287
806.478	28234
806.62	28226
806.762	28417
806.904	28565
807.046	28843
807.188	28656
807.33	28664
807.472	28694
807.614	28478
807.756	28611
807.898	28546
808.04	28459
808.182	28421
808.324	28481
808.465	28603
808.607	28801
808.749	28923
808.891	28900
809.033	28991
809.174	29090
809.316	28729
809.458	28850
809.6	28968
809.741	28930
809.883	29060
810.025	29121
810.166	29071
810.308	29223
810.45	29056
810.591	28881
810.733	28957
810.875	28904
811.016	28847
811.158	28740
811.299	29003
811.441	28938
811.582	29121
811.724	28816
811.865	28877
812.007	28980
812.148	28961
812.29	28900
812.431	29166
812.573	29105
812.714	29280
812.855	29387
812.997	29486
813.138	29760
813.279	29695
813.421	29436
813.562	29284
813.703	29235
813.845	29174
813.986	28854
814.127	28683
814.268	28653
814.41	28630
814.551	28592
814.692	28660
814.833	28542
814.974	28561
815.115	28577
815.256	28451
815.397	28550
815.539	28500
815.68	28341
815.821	28428
815.962	28348
816.103	28363
816.244	28329
816.385	28246
816.526	28158
816.666	27998
816.807	27789
816.948	28029
817.089	27934
817.23	27728
817.371	27880
817.512	27831
817.653	27880
817.793	27762
817.934	28002
818.075	27895
818.216	27926
818.356	27751
818.497	27751
818.638	27709
818.778	27701
818.919	27686
819.06	27629
819.2	27850
819.341	27960
819.481	27911
819.622	28074
819.762	28044
819.903	28120
820.043	28188
820.184	28074
820.324	28150
820.465	28192
820.605	28010
820.746	27987
820.886	27960
821.026	27934
821.167	27956
821.307	28002
821.447	27876
821.588	27926
821.728	27595
821.868	27561
822.008	27310
822.149	27481
822.289	27306
822.429	27085
822.569	27047
822.709	27043
822.849	26944
822.99	26842
823.13	26929
823.27	26845
823.41	26621
823.55	26571
823.69	26670
823.83	26758
823.97	26632
824.11	26442
824.25	26499
824.389	26473
824.529	26590
824.669	26590
824.809	26640
824.949	26727
825.089	26636
825.228	26686
825.368	26465
825.508	26396
825.648	26415
825.787	26290
825.927	26522
826.067	26199
826.206	26381
826.346	26442
826.485	26396
826.625	26404
826.765	26533
826.904	26358
827.044	26195
827.183	26206
827.323	26046
827.462	26119
827.601	26130
827.741	26138
827.88	26077
828.02	25978
828.159	26111
828.298	26187
828.437	26084
828.577	25925
828.716	26199
828.855	25986
828.994	25818
829.134	25887
829.273	25776
829.412	25772
829.551	25780
829.69	25727
829.829	25742
829.968	25765
830.107	25856
830.246	25822
830.385	25776
830.524	25594
830.663	25567
830.802	25529
830.941	25396
831.08	25350
831.219	25537
831.357	25419
831.496	25635
831.635	25388
831.774	25377
831.913	25278
832.051	25179
832.19	25251
832.329	25225
832.467	25057
832.606	25107
832.744	24913
832.883	25084
833.022	25050
833.16	25076
833.299	25122
833.437	25050
833.576	25076
833.714	25114
833.852	25228
833.991	25171
834.129	25221
834.267	25110
834.406	25038
834.544	25175
834.682	25023
834.821	25107
834.959	25358
835.097	25091
835.235	25198
835.373	25084
835.511	25061
835.65	24932
835.788	25031
835.926	24878
836.064	24833
836.202	24772
836.34	25072
836.478	25046
836.615	24928
836.753	24920
836.891	24951
837.029	24935
837.167	24920
837.305	24829
837.443	24703
837.58	24726
837.718	24844
837.856	24772
837.993	24867
838.131	24852
838.269	24654
838.406	24703
838.544	24544
838.681	24684
838.819	24452
838.956	24224
839.094	24258
839.231	24281
839.369	24422
839.506	24604
839.643	24418
839.781	24216
839.918	24148
840.055	24182
840.193	24251
840.33	24197
840.467	24235
840.604	24114
840.742	24426
840.879	24064
841.016	24083
841.153	23958
841.29	24205
841.427	24049
841.564	24182
841.701	24228
841.838	24064
841.975	24026
842.112	24098
842.249	24072
842.385	23756
842.522	24182
842.659	24053
842.796	23988
842.933	23828
843.069	23870
843.206	23870
843.343	23942
843.479	23863
843.616	24045
843.752	23710
843.889	23764
844.025	23790
844.162	23634
844.298	23786
844.435	23623
844.571	23611
844.708	23752
844.844	23748
844.98	23843
845.117	23752
845.253	23638
845.389	23608
845.525	23592
845.661	23444
845.798	23406
845.934	23433
846.07	23360
846.206	23452
846.342	23554
846.478	23383
846.614	23178
846.75	23136
846.886	23223
847.022	23258
847.158	23162
847.294	23067
847.429	23185
847.565	23113
847.701	23433
847.837	22858
847.972	22805
848.108	23071
848.244	22938
848.379	22767
848.515	22748
848.65	22694
848.786	22748
848.921	22752
849.057	22934
849.192	22710
849.328	22653
849.463	22672
849.598	22668
849.734	22706
849.869	22535
850.004	22588
850.14	22432
850.275	22538
850.41	22314
850.545	22447
850.68	22432
850.815	22481
850.95	22428
851.085	22733
851.22	22615
851.355	22504
851.49	22474
851.625	22409
851.76	22493
851.895	22413
852.03	22398
852.165	22508
852.299	22542
852.434	22489
852.569	22516
852.703	22489
852.838	22497
852.973	22615
853.107	22497
853.242	22417
853.376	22432
853.511	22185
853.645	22291
853.78	22440
853.914	22272
854.048	22261
854.183	22325
854.317	22352
854.451	22592
854.585	22333
854.72	22310
854.854	22348
854.988	22181
855.122	22219
855.256	22246
855.39	22299
855.524	22314
855.658	22268
855.792	22261
855.926	22413
856.06	22360
856.194	22413
856.327	22246
856.461	22295
856.595	22284
856.729	22177
856.862	22291
856.996	22386
857.13	22451
857.263	22382
857.397	22470
857.53	22299
857.664	22440
857.797	22367
857.931	22421
858.064	22344
858.197	22344
858.331	22276
858.464	22276
858.597	22318
858.731	22295
858.864	22322
858.997	22238
859.13	22204
859.263	22417
859.396	22455
859.529	22303
859.662	22405
859.795	22303
859.928	22272
860.061	22557
860.194	22618
860.327	22348
860.46	22333
860.592	22489
860.725	22546
860.858	22417
860.99	22424
861.123	22371
861.256	22280
861.388	22318
861.521	23033
861.653	22287
861.786	22135
861.918	22093
862.05	22234
862.183	22192
862.315	22272
862.447	22230
862.58	22101
862.712	22067
862.844	22086
862.976	22192
863.108	22029
863.24	22428
863.372	21892
863.504	22029
863.636	22086
863.768	22093
863.9	22040
864.032	21911
864.164	22063
864.296	22124
864.428	22173
864.559	22002
864.691	22101
864.823	22048
864.954	22105
865.086	22002
865.217	21987
865.349	21793
865.48	21937
865.612	21876
865.743	22002
865.875	21926
866.006	21930
866.137	21827
866.269	21873
866.4	22063
866.531	21876
866.662	21816
866.793	21850
866.924	21915
867.055	21937
867.186	21785
867.317	21789
867.448	21762
867.579	21793
867.71	21709
867.841	21835
867.972	21770
868.103	21861
868.233	21884
868.364	21800
868.495	22051
868.625	22128
868.756	22124
868.886	22051
869.017	22120
869.147	22131
869.278	22169
869.408	22135
869.539	22093
869.669	22196
869.799	22150
869.929	22360
870.06	22185
870.19	22466
870.32	22367
870.45	22421
870.58	22424
870.71	22573
870.84	22557
870.97	22497
871.1	22409
871.23	22565
871.36	22828
871.489	22630
871.619	22580
871.749	22664
871.879	22759
872.008	22790
872.138	22607
872.267	22778
872.397	22660
872.526	22519
872.656	22565
872.785	22645
872.915	22755
873.044	22816
873.173	22752
873.303	22824
873.432	22774
873.561	22733
873.69	22683
873.819	22801
873.948	22801
874.077	22721
874.206	22672
874.335	22755
874.464	22733
874.593	22976
874.722	22869
874.851	23025
874.979	22908
875.108	22991
875.237	22942
875.365	22873
875.494	22877
875.623	23006
875.751	23079
875.88	22957
876.008	22953
876.136	23181
876.265	23459
876.393	23516
876.521	23425
876.65	23356
876.778	23406
876.906	23284
877.034	23254
877.162	23258
877.29	23261
877.418	23322
877.546	23250
877.674	23330
877.802	23181
877.93	23330
878.058	23269
878.185	23151
878.313	23231
878.441	23151
878.568	23124
878.696	23254
878.824	23296
878.951	23402
879.079	23368
879.206	23577
879.333	23398
879.461	23303
879.588	23421
879.715	23444
879.842	23440
879.97	23315
880.097	23102
880.224	23121
880.351	22976
880.478	23117
880.605	23003
880.732	23128
880.859	23292
880.986	23079
881.112	23124
881.239	23060
881.366	22828
881.493	22706
881.619	22725
881.746	22622
881.872	22660
881.999	22634
882.125	22565
882.252	22801
882.378	22554
882.505	22702
882.631	22542
882.757	22238
882.883	22417
883.01	22451
883.136	22348
883.262	22200
883.388	22166
883.514	22371
883.64	22268
883.766	22329
883.892	22067
884.018	22196
884.143	22284
884.269	22367
884.395	22074
884.52	21983
884.646	21949
884.772	21915
884.897	21880
885.023	21998
885.148	22036
885.274	22070
885.399	22162
885.524	22105
885.65	22017
885.775	21968
885.9	22010
886.025	21968
886.15	22128
886.275	21842
886.4	21934
886.525	21823
886.65	21857
886.775	21846
886.9	21972
887.025	22135
887.149	21979
887.274	21701
887.399	21755
887.523	21656
887.648	21656
887.773	21622
887.897	21838
888.021	21709
888.146	21603
888.27	21774
888.395	21823
888.519	21911
888.643	21827
888.767	21911
888.891	21709
889.015	21412
889.139	21526
889.263	21496
889.387	21694
889.511	21633
889.635	21564
889.759	21515
889.883	21523
890.006	21595
890.13	21603
890.254	21488
890.377	21534
890.501	21249
890.624	21150
890.748	21252
890.871	21184
890.995	21005
891.118	20963
891.241	21024
891.364	21100
891.488	21226
891.611	21039
891.734	21070
891.857	21024
891.98	21070
892.103	21131
892.226	21150
892.349	20933
892.471	20899
892.594	20941
892.717	21051
892.839	20876
892.962	21062
893.085	21013
893.207	21074
893.33	20880
893.452	20902
893.575	21013
893.697	20963
893.819	21180
893.941	21089
894.064	21085
894.186	20864
894.308	20956
894.43	21043
894.552	21108
894.674	21043
894.796	20830
894.918	20921
895.04	20941
895.161	20994
895.283	20937
895.405	20872
895.526	20929
895.648	20963
895.769	20914
895.891	20963
896.012	20990
896.134	20887
896.255	20975
896.376	20921
896.498	20952
896.619	20948
896.74	21051
896.861	20941
896.982	21218
897.103	21386
897.224	21161
897.345	21112
897.466	21093
897.587	21214
897.708	21222
897.828	21051
897.949	21154
898.07	21001
898.19	21024
898.311	21306
898.431	21195
898.552	21142
898.672	21131
898.792	21188
898.913	21100
899.033	20990
899.153	20967
899.273	20857
899.393	20811
899.513	20998
899.633	20842
899.753	20960
899.873	20804
899.993	20883
900.113	20861
900.232	20910
900.352	20807
900.472	20659
900.591	20617
900.711	20697
900.83	20613
900.95	20655
901.069	20678
901.189	20457
901.308	20423
901.427	20244
901.546	20115
901.665	20339
901.784	20161
901.904	20077
902.023	20024
902.141	19769
902.26	19780
902.379	19875
902.498	19746
902.617	19708
902.735	19738
902.854	19628
902.973	19700
903.091	19438
903.21	19350
903.328	19422
903.446	19213
903.565	19190
903.683	19194
903.801	19034
903.919	19160
904.038	19160
904.156	18863
904.274	18966
904.392	19019
904.51	19012
904.627	19000
904.745	18996
904.863	19034
904.981	18658
905.098	18661
905.216	18544
905.334	18646
905.451	18681
905.569	18483
905.686	18650
905.803	18715
905.921	18350
906.038	18509
906.155	18323
906.272	18315
906.389	18281
906.506	18095
906.623	18117
906.74	18121
906.857	17996
906.974	18045
907.091	18068
907.208	18239
907.324	18030
907.441	17946
907.557	17863
907.674	17855
907.79	17756
907.907	17805
908.023	17817
908.139	17783
908.256	17836
908.372	17703
908.488	17687
908.604	17634
908.72	17471
908.836	17520
908.952	17497
909.068	17630
909.184	17642
909.3	17486
909.415	17566
909.531	17585
909.647	17296
909.762	17280
909.878	17235
909.993	17200
910.108	17280
910.224	17200
910.339	17193
910.454	17109
910.57	17052
910.685	16885
910.8	17162
910.915	17083
911.03	16965
911.145	16900
911.259	16854
911.374	16869
911.489	16774
911.604	16713
911.718	16550
911.833	16702
911.947	16462
912.062	16519
912.176	16554
912.291	16466
912.405	16508
912.519	16717
912.633	16729
912.748	16634
912.862	16573
912.976	16375
913.09	16223
913.204	16314
913.318	16447
913.431	16478
913.545	16451
913.659	16474
913.772	16242
913.886	16207
914	16105
914.113	16196
914.226	16196
914.34	16234
914.453	16071
914.566	16215
914.68	15991
914.793	16002
914.906	15762
915.019	15743
915.132	15812
915.245	15911
915.358	15793
915.47	15694
915.583	15686
915.696	15766
915.809	15911
915.921	15876
916.034	15660
916.146	15686
916.259	15682
916.371	15831
916.483	15816
916.595	15614
916.708	15584
916.82	15629
916.932	15549
917.044	15481
917.156	15428
917.268	15466
917.38	15397
917.491	15374
917.603	15408
917.715	15397
917.826	15325
917.938	15268
918.049	15199
918.161	15245
918.272	15496
918.384	15447
918.495	15355
918.606	15249
918.717	15138
918.828	15104
918.939	15093
919.05	15070
919.161	15123
919.272	14864
919.383	14929
919.494	15176
919.604	15378
919.715	15119
919.826	15093
919.936	15093
920.047	15127
920.157	15081
920.267	15237
920.378	15047
920.488	15093
920.598	15241
920.708	15405
920.818	15180
920.928	15161
921.038	15359
921.148	15237
921.258	15032
921.368	14960
921.477	14921
921.587	14834
921.697	14667
921.806	14891
921.916	14701
922.025	14503
922.134	14503
922.244	14408
922.353	14484
922.462	14377
922.571	14199
922.68	14187
922.789	14027
922.898	14134
923.007	14054
923.116	14180
923.224	14054
923.333	14008
923.442	13982
923.55	13849
923.659	13921
923.767	14043
923.876	13879
923.984	13917
924.092	13833
924.201	13860
924.309	13894
924.417	13811
924.525	13750
924.633	13719
924.741	14442
924.849	13624
924.956	13624
925.064	13544
925.172	13476
925.279	13544
925.387	13601
925.494	13464
925.602	13559
925.709	13594
925.816	13384
925.924	13396
926.031	13529
926.138	13422
926.245	13487
926.352	13327
926.459	13354
926.566	13575
926.673	13320
926.779	13278
926.886	13285
926.993	13050
927.099	13088
927.206	12993
927.312	12894
927.419	13080
927.525	13072
927.631	13057
927.737	12973
927.843	12833
927.95	12806
928.056	12856
928.162	12920
928.267	12977
928.373	13529
928.479	12958
928.585	12627
928.69	12844
928.796	12875
928.901	12734
929.007	12593
929.112	12696
929.218	12700
929.323	12654
929.428	12563
929.533	12715
929.638	12528
929.743	12544
929.848	12601
929.953	12490
930.058	12315
930.163	12292
930.267	12197
930.372	12410
930.477	12125
930.581	12429
930.685	12361
930.79	12155
930.894	12163
930.998	12049
931.103	12304
931.207	11855
931.311	11741
931.415	11699
931.519	11516
931.623	11478
