Data from test_V78500241_3330.txt Node
Date: Fri Mar 25 16:04:52 CST 2022
User: usil
Spectrometer: V785-0024
Trigger mode: 0
Integration Time (sec): 4.000000E-1
Scans to average: 1
Nonlinearity correction enabled: false
Boxcar width: 0
Storing dark spectrum: false
XAxis mode: Wavelengths
Number of Pixels in Spectrum: 1024
>>>>>Begin Spectral Data<<<<<
801.071	28900
801.214	28885
801.356	28679
801.499	28565
801.641	28447
801.783	28341
801.926	28565
802.068	28310
802.211	28398
802.353	28303
802.496	28169
802.638	28101
802.78	28150
802.923	28105
803.065	27914
803.208	28082
803.35	28124
803.492	28470
803.635	28504
803.777	28303
803.919	28478
804.061	28653
804.204	28440
804.346	28314
804.488	28363
804.63	28371
804.773	28390
804.915	28580
805.057	28535
805.199	28379
805.341	28542
805.483	28459
805.626	28641
805.768	28474
805.91	28554
806.052	28569
806.194	28447
806.336	28778
806.478	28683
806.62	28607
806.762	28809
806.904	28767
807.046	29064
807.188	29204
807.33	28957
807.472	29056
807.614	28957
807.756	29041
807.898	28987
808.04	28885
808.182	28797
808.324	28934
808.465	28892
808.607	29113
808.749	29189
808.891	29433
809.033	29315
809.174	29379
809.316	29292
809.458	29193
809.6	29315
809.741	29292
809.883	29425
810.025	29467
810.166	29558
810.308	29653
810.45	29452
810.591	29299
810.733	29296
810.875	29322
811.016	29083
811.158	28980
811.299	29455
811.441	29535
811.582	29318
811.724	29200
811.865	29299
812.007	29448
812.148	29372
812.29	29379
812.431	29551
812.573	29722
812.714	29790
812.855	29851
812.997	29752
813.138	29862
813.279	29942
813.421	29984
813.562	29817
813.703	29600
813.845	29520
813.986	29208
814.127	29064
814.268	29140
814.41	28908
814.551	28919
814.692	29029
814.833	28961
814.974	28911
815.115	29189
815.256	28946
815.397	28885
815.539	28900
815.68	28755
815.821	28847
815.962	28991
816.103	28744
816.244	28611
816.385	28668
816.526	28679
816.666	28436
816.807	28238
816.948	28382
817.089	28424
817.23	28371
817.371	28363
817.512	28325
817.653	28432
817.793	28386
817.934	28246
818.075	28306
818.216	28337
818.356	28230
818.497	28169
818.638	28044
818.778	28044
818.919	28242
819.06	28166
819.2	28337
819.341	28242
819.481	28291
819.622	28413
819.762	28755
819.903	28660
820.043	28592
820.184	28421
820.324	28489
820.465	28573
820.605	28512
820.746	28322
820.886	28348
821.026	28592
821.167	28485
821.307	28516
821.447	28440
821.588	28166
821.728	28211
821.868	28032
822.008	27774
822.149	27903
822.289	27698
822.429	27618
822.569	27519
822.709	27545
822.849	27412
822.99	27363
823.13	27447
823.27	27298
823.41	27154
823.55	27108
823.69	27199
823.83	27150
823.97	27036
824.11	26975
824.25	27024
824.389	26929
824.529	26948
824.669	27001
824.809	27051
824.949	27047
825.089	27165
825.228	27051
825.368	26830
825.508	26838
825.648	26796
825.787	26979
825.927	27085
826.067	26998
826.206	26929
826.346	27017
826.485	26963
826.625	26781
826.765	26929
826.904	26918
827.044	26720
827.183	26606
827.323	26659
827.462	26689
827.601	26594
827.741	26556
827.88	26530
828.02	26484
828.159	26518
828.298	26659
828.437	26613
828.577	26545
828.716	26769
828.855	26446
828.994	26320
829.134	26275
829.273	26282
829.412	26305
829.551	26218
829.69	26263
829.829	26366
829.968	26351
830.107	26298
830.246	26347
830.385	26324
830.524	26191
830.663	26084
830.802	25932
830.941	25921
831.08	25864
831.219	26065
831.357	25871
831.496	26119
831.635	25917
831.774	25917
831.913	25879
832.051	25620
832.19	25681
832.329	25495
832.467	25647
832.606	25643
832.744	25537
832.883	25544
833.022	25666
833.16	25533
833.299	25590
833.437	25594
833.576	25590
833.714	25647
833.852	25609
833.991	25586
834.129	25734
834.267	25723
834.406	25556
834.544	25658
834.682	25662
834.821	25514
834.959	25830
835.097	25556
835.235	25662
835.373	25689
835.511	25563
835.65	25514
835.788	25594
835.926	25438
836.064	25202
836.202	25354
836.34	25575
836.478	25502
836.615	25457
836.753	25434
836.891	25586
837.029	25457
837.167	25407
837.305	25358
837.443	25270
837.58	25278
837.718	25244
837.856	25228
837.993	25126
838.131	25289
838.269	25118
838.406	25270
838.544	25012
838.681	24897
838.819	24932
838.956	24798
839.094	24700
839.231	24707
839.369	24905
839.506	25141
839.643	24973
839.781	24825
839.918	24795
840.055	24848
840.193	24738
840.33	24734
840.467	24661
840.604	24669
840.742	25000
840.879	24456
841.016	24616
841.153	24483
841.29	24753
841.427	24483
841.564	24730
841.701	24635
841.838	24635
841.975	24483
842.112	24585
842.249	24350
842.385	24346
842.522	24669
842.659	24547
842.796	24399
842.933	24399
843.069	24365
843.206	24346
843.343	24471
843.479	24445
843.616	24414
843.752	24186
843.889	24194
844.025	24334
844.162	24254
844.298	24232
844.435	24262
844.571	24178
844.708	24194
844.844	24380
844.98	24334
845.117	24365
845.253	24224
845.389	23999
845.525	24148
845.661	24072
845.798	23920
845.934	23988
846.07	23889
846.206	23961
846.342	24003
846.478	23984
846.614	23737
846.75	23676
846.886	23619
847.022	23592
847.158	23726
847.294	23634
847.429	23596
847.565	23608
847.701	23958
847.837	23345
847.972	23284
848.108	23459
848.244	23360
848.379	23277
848.515	23170
848.65	23113
848.786	23376
848.921	23239
849.057	23303
849.192	23334
849.328	23254
849.463	23208
849.598	23056
849.734	23117
849.869	23189
850.004	22968
850.14	22949
850.275	22930
850.41	22885
850.545	23033
850.68	22923
850.815	22991
850.95	23086
851.085	23178
851.22	23094
851.355	22995
851.49	23056
851.625	22896
851.76	23067
851.895	22885
852.03	22965
852.165	22987
852.299	23018
852.434	23094
852.569	22995
852.703	22930
852.838	23067
852.973	23132
853.107	23083
853.242	22904
853.376	22858
853.511	22713
853.645	22759
853.78	22881
853.914	22782
854.048	22740
854.183	22930
854.317	22790
854.451	22946
854.585	22748
854.72	22904
854.854	22965
854.988	22782
855.122	22869
855.256	22713
855.39	22740
855.524	22889
855.658	22866
855.792	22858
855.926	22835
856.06	22801
856.194	22847
856.327	22786
856.461	22778
856.595	22889
856.729	22740
856.862	22831
856.996	22790
857.13	22900
857.263	22892
857.397	22862
857.53	22656
857.664	22900
857.797	22755
857.931	22930
858.064	22774
858.197	22835
858.331	22725
858.464	22778
858.597	22740
858.731	22850
858.864	22854
858.997	22736
859.13	22889
859.263	22847
859.396	22904
859.529	22862
859.662	22713
859.795	22752
859.928	22771
860.061	22961
860.194	23014
860.327	22828
860.46	22828
860.592	22927
860.725	23037
860.858	22961
860.99	22740
861.123	22797
861.256	22736
861.388	22839
861.521	23516
861.653	22752
861.786	22630
861.918	22691
862.05	22626
862.183	22713
862.315	22736
862.447	22763
862.58	22683
862.712	22577
862.844	22356
862.976	22618
863.108	22497
863.24	23029
863.372	22557
863.504	22561
863.636	22386
863.768	22489
863.9	22485
864.032	22417
864.164	22428
864.296	22584
864.428	22588
864.559	22500
864.691	22565
864.823	22459
864.954	22440
865.086	22500
865.217	22432
865.349	22341
865.48	22348
865.612	22440
865.743	22531
865.875	22310
866.006	22322
866.137	22466
866.269	22215
866.4	22470
866.531	22223
866.662	22238
866.793	22333
866.924	22375
867.055	22246
867.186	22413
867.317	22272
867.448	22067
867.579	22272
867.71	22188
867.841	22162
867.972	22424
868.103	22268
868.233	22360
868.364	22325
868.495	22409
868.625	22440
868.756	22573
868.886	22436
869.017	22500
869.147	22687
869.278	22729
869.408	22535
869.539	22538
869.669	22637
869.799	22565
869.929	22675
870.06	22691
870.19	22778
870.32	22900
870.45	22965
870.58	22904
870.71	22987
870.84	23037
870.97	22927
871.1	23075
871.23	23117
871.36	23109
871.489	23086
871.619	23064
871.749	23136
871.879	23151
872.008	23261
872.138	23166
872.267	23181
872.397	23090
872.526	23003
872.656	23025
872.785	23048
872.915	23140
873.044	23208
873.173	23223
873.303	23265
873.432	23246
873.561	23318
873.69	23117
873.819	23147
873.948	23174
874.077	23208
874.206	23113
874.335	23246
874.464	23155
874.593	23364
874.722	23341
874.851	23444
874.979	23337
875.108	23459
875.237	23258
875.365	23288
875.494	23303
875.623	23395
875.751	23311
875.88	23402
876.008	23558
876.136	23535
876.265	23741
876.393	23897
876.521	23760
876.65	23737
876.778	23714
876.906	23802
877.034	23566
877.162	23668
877.29	23684
877.418	23741
877.546	23676
877.674	23783
877.802	23638
877.93	23752
878.058	23520
878.185	23505
878.313	23619
878.441	23623
878.568	23387
878.696	23642
878.824	23638
878.951	23863
879.079	23889
879.206	23863
879.333	23832
879.461	23611
879.588	23882
879.715	23836
879.842	24030
879.97	23874
880.097	23463
880.224	23661
880.351	23501
880.478	23444
880.605	23539
880.732	23562
880.859	23783
880.986	23478
881.112	23611
881.239	23414
881.366	23296
881.493	23159
881.619	23052
881.746	23109
881.872	23136
881.999	23029
882.125	23006
882.252	23121
882.378	23151
882.505	23280
882.631	22957
882.757	22835
882.883	22797
883.01	22839
883.136	22733
883.262	22683
883.388	22557
883.514	22744
883.64	22744
883.766	22565
883.892	22538
884.018	22557
884.143	22763
884.269	22801
884.395	22512
884.52	22455
884.646	22440
884.772	22348
884.897	22325
885.023	22462
885.148	22432
885.274	22531
885.399	22462
885.524	22421
885.65	22538
885.775	22363
885.9	22478
886.025	22512
886.15	22565
886.275	22436
886.4	22242
886.525	22379
886.65	22310
886.775	22451
886.9	22417
887.025	22611
887.149	22379
887.274	22215
887.399	22055
887.523	22055
887.648	22063
887.773	21945
887.897	22257
888.021	22158
888.146	22082
888.27	22097
888.395	22188
888.519	22112
888.643	22185
888.767	22196
888.891	22116
889.015	21960
889.139	22010
889.263	21895
889.387	22067
889.511	22223
889.635	22120
889.759	21907
889.883	21854
890.006	21899
890.13	22086
890.254	21778
890.377	21865
890.501	21739
890.624	21599
890.748	21743
890.871	21534
890.995	21458
891.118	21511
891.241	21538
891.364	21488
891.488	21641
891.611	21401
891.734	21477
891.857	21500
891.98	21496
892.103	21454
892.226	21428
892.349	21344
892.471	21249
892.594	21408
892.717	21458
892.839	21241
892.962	21351
893.085	21393
893.207	21351
893.33	21310
893.452	21351
893.575	21291
893.697	21291
893.819	21431
893.941	21610
894.064	21553
894.186	21241
894.308	21169
894.43	21336
894.552	21511
894.674	21507
894.796	21233
894.918	21313
895.04	21287
895.161	21447
895.283	21332
895.405	21241
895.526	21203
895.648	21336
895.769	21408
895.891	21382
896.012	21428
896.134	21317
896.255	21306
896.376	21291
896.498	21382
896.619	21469
896.74	21260
896.861	21393
896.982	21709
897.103	21770
897.224	21644
897.345	21625
897.466	21454
897.587	21332
897.708	21739
897.828	21557
897.949	21408
898.07	21412
898.19	21454
898.311	21557
898.431	21450
898.552	21420
898.672	21591
898.792	21485
898.913	21466
899.033	21504
899.153	21359
899.273	21135
899.393	21207
899.513	21279
899.633	21222
899.753	21222
899.873	21233
899.993	21245
900.113	21135
900.232	21150
900.352	21176
900.472	21085
900.591	20952
900.711	21066
900.83	21116
900.95	21032
901.069	21032
901.189	20876
901.308	20674
901.427	20549
901.546	20556
901.665	20549
901.784	20503
901.904	20522
902.023	20336
902.141	20126
902.26	20096
902.379	20180
902.498	20027
902.617	20054
902.735	20168
902.854	20069
902.973	20020
903.091	19753
903.21	19826
903.328	19700
903.446	19601
903.565	19597
903.683	19597
903.801	19449
903.919	19529
904.038	19468
904.156	19381
904.274	19388
904.392	19316
904.51	19365
904.627	19320
904.745	19339
904.863	19350
904.981	19110
905.098	19012
905.216	19046
905.334	18943
905.451	19000
905.569	18928
905.686	18970
905.803	18939
905.921	18825
906.038	18886
906.155	18726
906.272	18589
906.389	18703
906.506	18506
906.623	18578
906.74	18525
906.857	18433
906.974	18327
907.091	18684
907.208	18509
907.324	18540
907.441	18452
907.557	18216
907.674	18194
907.79	18106
907.907	18350
908.023	18342
908.139	18258
908.256	18216
908.372	18022
908.488	18091
908.604	18011
908.72	17901
908.836	17882
908.952	17851
909.068	17996
909.184	18068
909.3	17889
909.415	17908
909.531	17920
909.647	17703
909.762	17687
909.878	17684
909.993	17703
910.108	17600
910.224	17608
910.339	17524
910.454	17535
910.57	17467
910.685	17265
910.8	17577
910.915	17524
911.03	17398
911.145	17216
911.259	17200
911.374	17220
911.489	17105
911.604	17098
911.718	16927
911.833	16953
911.947	16919
912.062	16889
912.176	17025
912.291	16946
912.405	16869
912.519	17178
912.633	17193
912.748	17010
912.862	16889
912.976	16702
913.09	16634
913.204	16717
913.318	16847
913.431	16892
913.545	16755
913.659	16889
913.772	16717
913.886	16538
914	16607
914.113	16500
914.226	16672
914.34	16599
914.453	16455
914.566	16580
914.68	16527
914.793	16306
914.906	16207
915.019	16135
915.132	15998
915.245	16166
915.358	16082
915.47	16082
915.583	16158
915.696	16143
915.809	16219
915.921	16147
916.034	16010
916.146	16071
916.259	15987
916.371	16048
916.483	16044
916.595	15983
916.708	15922
916.82	15800
916.932	15918
917.044	15884
917.156	15781
917.268	15819
917.38	15793
917.491	15770
917.603	15667
917.715	15720
917.826	15873
917.938	15679
918.049	15481
918.161	15629
918.272	15789
918.384	15778
918.495	15724
918.606	15500
918.717	15466
918.828	15462
918.939	15469
919.05	15325
919.161	15439
919.272	15359
919.383	15355
919.494	15450
919.604	15694
919.715	15340
919.826	15245
919.936	15329
920.047	15462
920.157	15367
920.267	15599
920.378	15363
920.488	15412
920.598	15443
920.708	15709
920.818	15568
920.928	15511
921.038	15675
921.148	15629
921.258	15313
921.368	15332
921.477	15157
921.587	15116
921.697	14986
921.806	15131
921.916	14941
922.025	14861
922.134	14705
922.244	14739
922.353	14785
922.462	14651
922.571	14488
922.68	14434
922.789	14492
922.898	14404
923.007	14259
923.116	14389
923.224	14313
923.333	14446
923.442	14195
923.55	14256
923.659	14267
923.767	14263
923.876	14065
923.984	14183
924.092	14195
924.201	14145
924.309	14206
924.417	14145
924.525	13963
924.633	14100
924.741	14994
924.849	13902
924.956	13925
925.064	13852
925.172	13597
925.279	13662
925.387	13742
925.494	13731
925.602	13814
925.709	13757
925.816	13693
925.924	13696
926.031	13761
926.138	13734
926.245	13780
926.352	13590
926.459	13674
926.566	13772
926.673	13624
926.779	13487
926.886	13502
926.993	13358
927.099	13384
927.206	13213
927.312	13259
927.419	13377
927.525	13240
927.631	13354
927.737	13137
927.843	13099
927.95	13031
928.056	13145
928.162	13084
928.267	13149
928.373	13674
928.479	13133
928.585	12878
928.69	13084
928.796	13031
928.901	12962
929.007	12837
929.112	12951
929.218	12916
929.323	12806
929.428	12776
929.533	12993
929.638	12715
929.743	12696
929.848	12703
929.953	12753
930.058	12681
930.163	12471
930.267	12555
930.372	12623
930.477	12448
930.581	12658
930.685	12589
930.79	12304
930.894	12410
930.998	12323
931.103	12452
931.207	12110
931.311	12003
931.415	11958
931.519	11752
931.623	11691
