Data from test_V78500241_2148.txt Node
Date: Fri Mar 25 15:56:40 CST 2022
User: usil
Spectrometer: V785-0024
Trigger mode: 0
Integration Time (sec): 4.000000E-1
Scans to average: 1
Nonlinearity correction enabled: false
Boxcar width: 0
Storing dark spectrum: false
XAxis mode: Wavelengths
Number of Pixels in Spectrum: 1024
>>>>>Begin Spectral Data<<<<<
801.071	28934
801.214	28968
801.356	28915
801.499	28706
801.641	28546
801.783	28645
801.926	28561
802.068	28569
802.211	28459
802.353	28565
802.496	28421
802.638	28337
802.78	28291
802.923	28280
803.065	28211
803.208	28150
803.35	28363
803.492	28470
803.635	28508
803.777	28325
803.919	28687
804.061	28637
804.204	28668
804.346	28382
804.488	28470
804.63	28493
804.773	28481
804.915	28599
805.057	28577
805.199	28493
805.341	28516
805.483	28729
805.626	28694
805.768	28774
805.91	28668
806.052	28691
806.194	28542
806.336	28866
806.478	28626
806.62	28557
806.762	28908
806.904	29090
807.046	29261
807.188	29193
807.33	29231
807.472	29235
807.614	29105
807.756	29315
807.898	29018
808.04	28824
808.182	28995
808.324	29037
808.465	29155
808.607	29277
808.749	29429
808.891	29433
809.033	29577
809.174	29505
809.316	29303
809.458	29444
809.6	29341
809.741	29573
809.883	29440
810.025	29665
810.166	29824
810.308	29756
810.45	29840
810.591	29551
810.733	29520
810.875	29440
811.016	29334
811.158	29269
811.299	29395
811.441	29608
811.582	29726
811.724	29524
811.865	29368
812.007	29433
812.148	29535
812.29	29554
812.431	29634
812.573	29760
812.714	29897
812.855	29779
812.997	30003
813.138	30182
813.279	30144
813.421	30041
813.562	29813
813.703	29566
813.845	29809
813.986	29387
814.127	29216
814.268	29212
814.41	29181
814.551	29090
814.692	29235
814.833	29094
814.974	29094
815.115	29181
815.256	29025
815.397	29006
815.539	29109
815.68	28862
815.821	28900
815.962	28961
816.103	28904
816.244	28938
816.385	28831
816.526	28656
816.666	28664
816.807	28409
816.948	28569
817.089	28584
817.23	28481
817.371	28405
817.512	28508
817.653	28398
817.793	28371
817.934	28615
818.075	28375
818.216	28405
818.356	28443
818.497	28375
818.638	28109
818.778	28299
818.919	28314
819.06	28333
819.2	28310
819.341	28485
819.481	28459
819.622	28588
819.762	28824
819.903	28824
820.043	28694
820.184	28538
820.324	28527
820.465	28656
820.605	28569
820.746	28546
820.886	28478
821.026	28618
821.167	28577
821.307	28580
821.447	28557
821.588	28497
821.728	28424
821.868	27983
822.008	28055
822.149	27854
822.289	27918
822.429	27774
822.569	27629
822.709	27462
822.849	27454
822.99	27447
823.13	27431
823.27	27427
823.41	27294
823.55	27165
823.69	27374
823.83	27279
823.97	27199
824.11	27157
824.25	27116
824.389	27077
824.529	27150
824.669	27077
824.809	27287
824.949	27272
825.089	27230
825.228	27119
825.368	26906
825.508	27009
825.648	26906
825.787	27043
825.927	27047
826.067	26921
826.206	26929
826.346	26994
826.485	26906
826.625	26880
826.765	27211
826.904	27188
827.044	26804
827.183	26781
827.323	26735
827.462	26849
827.601	26883
827.741	26693
827.88	26636
828.02	26682
828.159	26727
828.298	26625
828.437	26781
828.577	26674
828.716	26651
828.855	26552
828.994	26446
829.134	26518
829.273	26526
829.412	26320
829.551	26332
829.69	26408
829.829	26476
829.968	26564
830.107	26400
830.246	26408
830.385	26233
830.524	26233
830.663	26180
830.802	26134
830.941	25909
831.08	25978
831.219	26088
831.357	26084
831.496	26294
831.635	26058
831.774	25894
831.913	25917
832.051	25845
832.19	25818
832.329	25879
832.467	25578
832.606	25582
832.744	25518
832.883	25567
833.022	25510
833.16	25647
833.299	25784
833.437	25753
833.576	25727
833.714	25811
833.852	25780
833.991	25693
834.129	25708
834.267	25674
834.406	25674
834.544	25742
834.682	25677
834.821	25731
834.959	25757
835.097	25632
835.235	25791
835.373	25681
835.511	25639
835.65	25571
835.788	25605
835.926	25499
836.064	25407
836.202	25464
836.34	25556
836.478	25601
836.615	25601
836.753	25514
836.891	25620
837.029	25639
837.167	25491
837.305	25449
837.443	25392
837.58	25213
837.718	25384
837.856	25346
837.993	25331
838.131	25396
838.269	25324
838.406	25289
838.544	25228
838.681	25061
838.819	25031
838.956	24844
839.094	24897
839.231	24909
839.369	25000
839.506	25293
839.643	25019
839.781	24783
839.918	24829
840.055	24840
840.193	24658
840.33	24810
840.467	24798
840.604	24745
840.742	24897
840.879	24620
841.016	24608
841.153	24532
841.29	24787
841.427	24669
841.564	24829
841.701	24669
841.838	24642
841.975	24639
842.112	24654
842.249	24452
842.385	24525
842.522	24665
842.659	24677
842.796	24490
842.933	24437
843.069	24471
843.206	24289
843.343	24517
843.479	24555
843.616	24475
843.752	24289
843.889	24266
844.025	24350
844.162	24369
844.298	24460
844.435	24163
844.571	24171
844.708	24209
844.844	24330
844.98	24388
845.117	24292
845.253	24129
845.389	24053
845.525	24140
845.661	24057
845.798	23977
845.934	24068
846.07	23897
846.206	23992
846.342	24018
846.478	23923
846.614	23775
846.75	23783
846.886	23577
847.022	23813
847.158	23760
847.294	23767
847.429	23665
847.565	23741
847.701	23908
847.837	23436
847.972	23440
848.108	23585
848.244	23493
848.379	23406
848.515	23360
848.65	23223
848.786	23235
848.921	23265
849.057	23436
849.192	23303
849.328	23318
849.463	23258
849.598	23151
849.734	23288
849.869	23162
850.004	23033
850.14	23113
850.275	23079
850.41	22972
850.545	23029
850.68	23044
850.815	23083
850.95	23094
851.085	23166
851.22	23151
851.355	22934
851.49	22961
851.625	23117
851.76	23014
851.895	22930
852.03	23041
852.165	23079
852.299	23143
852.434	23189
852.569	23064
852.703	22961
852.838	23060
852.973	23292
853.107	23105
853.242	23029
853.376	22896
853.511	22793
853.645	22744
853.78	22999
853.914	22957
854.048	22911
854.183	22854
854.317	22934
854.451	23086
854.585	22957
854.72	22923
854.854	23166
854.988	22828
855.122	22835
855.256	22793
855.39	22847
855.524	22991
855.658	22892
855.792	22843
855.926	22839
856.06	22900
856.194	22911
856.327	22824
856.461	22763
856.595	22771
856.729	22923
856.862	23048
856.996	22927
857.13	22908
857.263	22980
857.397	22930
857.53	22843
857.664	22816
857.797	23018
857.931	22995
858.064	22854
858.197	22927
858.331	22831
858.464	22889
858.597	22786
858.731	22904
858.864	22881
858.997	22839
859.13	22850
859.263	22991
859.396	22892
859.529	23006
859.662	22946
859.795	22820
859.928	22873
860.061	23098
860.194	23018
860.327	22911
860.46	23018
860.592	23006
860.725	22984
860.858	23018
860.99	22999
861.123	22835
861.256	22919
861.388	22934
861.521	23509
861.653	22733
861.786	22603
861.918	22752
862.05	22801
862.183	22847
862.315	22812
862.447	22816
862.58	22927
862.712	22596
862.844	22504
862.976	22618
863.108	22679
863.24	23124
863.372	22504
863.504	22637
863.636	22569
863.768	22618
863.9	22561
864.032	22512
864.164	22554
864.296	22561
864.428	22664
864.559	22538
864.691	22733
864.823	22641
864.954	22497
865.086	22538
865.217	22466
865.349	22462
865.48	22436
865.612	22375
865.743	22634
865.875	22641
866.006	22341
866.137	22516
866.269	22428
866.4	22508
866.531	22341
866.662	22249
866.793	22325
866.924	22436
867.055	22363
867.186	22356
867.317	22363
867.448	22253
867.579	22348
867.71	22306
867.841	22276
867.972	22402
868.103	22314
868.233	22371
868.364	22386
868.495	22398
868.625	22584
868.756	22847
868.886	22573
869.017	22641
869.147	22706
869.278	22736
869.408	22588
869.539	22569
869.669	22634
869.799	22744
869.929	22675
870.06	22710
870.19	22816
870.32	22847
870.45	22995
870.58	22984
870.71	23079
870.84	23132
870.97	22991
871.1	23060
871.23	23193
871.36	23151
871.489	23018
871.619	23128
871.749	23246
871.879	23166
872.008	23269
872.138	23299
872.267	23212
872.397	23197
872.526	23143
872.656	23132
872.785	23132
872.915	23265
873.044	23318
873.173	23299
873.303	23269
873.432	23239
873.561	23204
873.69	23280
873.819	23269
873.948	23284
874.077	23250
874.206	23254
874.335	23136
874.464	23303
874.593	23604
874.722	23326
874.851	23535
874.979	23379
875.108	23547
875.237	23372
875.365	23292
875.494	23277
875.623	23570
875.751	23383
875.88	23501
876.008	23531
876.136	23695
876.265	23836
876.393	23794
876.521	23840
876.65	23893
876.778	23874
876.906	23642
877.034	23687
877.162	23878
877.29	23745
877.418	23817
877.546	23878
877.674	23832
877.802	23745
877.93	23737
878.058	23573
878.185	23653
878.313	23775
878.441	23771
878.568	23596
878.696	23794
878.824	23729
878.951	23866
879.079	24018
879.206	24018
879.333	23874
879.461	23821
879.588	23802
879.715	23946
879.842	24053
879.97	23923
880.097	23653
880.224	23592
880.351	23589
880.478	23512
880.605	23387
880.732	23600
880.859	23798
880.986	23634
881.112	23562
881.239	23512
881.366	23318
881.493	23216
881.619	23056
881.746	23090
881.872	23193
881.999	23086
882.125	23010
882.252	23166
882.378	23181
882.505	23185
882.631	23003
882.757	22968
882.883	22949
883.01	22831
883.136	22805
883.262	22637
883.388	22622
883.514	22771
883.64	22797
883.766	22786
883.892	22550
884.018	22634
884.143	22717
884.269	23022
884.395	22493
884.52	22516
884.646	22592
884.772	22329
884.897	22314
885.023	22500
885.148	22569
885.274	22645
885.399	22736
885.524	22386
885.65	22443
885.775	22508
885.9	22367
886.025	22500
886.15	22519
886.275	22375
886.4	22337
886.525	22455
886.65	22440
886.775	22424
886.9	22599
887.025	22557
887.149	22390
887.274	22314
887.399	22109
887.523	22181
887.648	22143
887.773	22192
887.897	22367
888.021	22207
888.146	22090
888.27	22223
888.395	22295
888.519	22226
888.643	22219
888.767	22276
888.891	22078
889.015	21926
889.139	22090
889.263	21994
889.387	22097
889.511	22234
889.635	22185
889.759	21998
889.883	21968
890.006	21998
890.13	22090
890.254	21987
890.377	21918
890.501	21629
890.624	21679
890.748	21652
890.871	21652
890.995	21587
891.118	21416
891.241	21542
891.364	21557
891.488	21671
891.611	21504
891.734	21439
891.857	21625
891.98	21564
892.103	21500
892.226	21488
892.349	21549
892.471	21359
892.594	21431
892.717	21435
892.839	21485
892.962	21405
893.085	21538
893.207	21355
893.33	21199
893.452	21222
893.575	21408
893.697	21386
893.819	21458
893.941	21568
894.064	21648
894.186	21367
894.308	21321
894.43	21462
894.552	21526
894.674	21332
894.796	21176
894.918	21317
895.04	21386
895.161	21447
895.283	21424
895.405	21302
895.526	21397
895.648	21370
895.769	21367
895.891	21447
896.012	21538
896.134	21526
896.255	21408
896.376	21291
896.498	21370
896.619	21340
896.74	21511
896.861	21431
896.982	21732
897.103	21835
897.224	21679
897.345	21610
897.466	21496
897.587	21500
897.708	21743
897.828	21519
897.949	21568
898.07	21397
898.19	21538
898.311	21690
898.431	21572
898.552	21492
898.672	21709
898.792	21667
898.913	21686
899.033	21500
899.153	21416
899.273	21268
899.393	21325
899.513	21439
899.633	21211
899.753	21283
899.873	21146
899.993	21252
900.113	21344
900.232	21260
900.352	21104
900.472	21104
900.591	21089
900.711	21104
900.83	21081
900.95	21070
901.069	21218
901.189	20990
901.308	20777
901.427	20640
901.546	20564
901.665	20632
901.784	20629
901.904	20518
902.023	20381
902.141	20282
902.26	20153
902.379	20301
902.498	20153
902.617	20027
902.735	20119
902.854	19982
902.973	20046
903.091	19868
903.21	19791
903.328	19746
903.446	19681
903.565	19662
903.683	19662
903.801	19495
903.919	19552
904.038	19483
904.156	19400
904.274	19434
904.392	19320
904.51	19346
904.627	19297
904.745	19441
904.863	19324
904.981	19122
905.098	19038
905.216	19019
905.334	18970
905.451	19004
905.569	19042
905.686	18981
905.803	18962
905.921	18776
906.038	18840
906.155	18776
906.272	18627
906.389	18810
906.506	18494
906.623	18563
906.74	18521
906.857	18429
906.974	18410
907.091	18604
907.208	18673
907.324	18532
907.441	18350
907.557	18213
907.674	18251
907.79	18152
907.907	18224
908.023	18254
908.139	18182
908.256	18277
908.372	18106
908.488	18155
908.604	17916
908.72	17973
908.836	17901
908.952	17942
909.068	17855
909.184	17999
909.3	17935
909.415	18015
909.531	17980
909.647	17718
909.762	17653
909.878	17608
909.993	17558
910.108	17577
910.224	17554
910.339	17551
910.454	17467
910.57	17402
910.685	17353
910.8	17558
910.915	17493
911.03	17444
911.145	17193
911.259	17098
911.374	17284
911.489	17132
911.604	16919
911.718	17014
911.833	17018
911.947	16972
912.062	16812
912.176	16889
912.291	17018
912.405	16972
912.519	17132
912.633	17083
912.748	17018
912.862	16854
912.976	16706
913.09	16664
913.204	16603
913.318	16740
913.431	16869
913.545	16729
913.659	16752
913.772	16656
913.886	16500
914	16516
914.113	16599
914.226	16729
914.34	16618
914.453	16462
914.566	16474
914.68	16398
914.793	16386
914.906	16238
915.019	16169
915.132	16078
915.245	16124
915.358	16124
915.47	16143
915.583	16086
915.696	16120
915.809	16276
915.921	16200
916.034	16017
916.146	15987
916.259	15991
916.371	16025
916.483	16051
916.595	15895
916.708	15907
916.82	15816
916.932	15876
917.044	15823
917.156	15873
917.268	15736
917.38	15793
917.491	15774
917.603	15724
917.715	15747
917.826	15850
917.938	15660
918.049	15485
918.161	15629
918.272	15880
918.384	15842
918.495	15648
918.606	15450
918.717	15477
918.828	15523
918.939	15435
919.05	15329
919.161	15477
919.272	15325
919.383	15294
919.494	15504
919.604	15637
919.715	15504
919.826	15313
919.936	15420
920.047	15481
920.157	15245
920.267	15572
920.378	15405
920.488	15397
920.598	15538
920.708	15652
920.818	15591
920.928	15462
921.038	15823
921.148	15671
921.258	15275
921.368	15302
921.477	15169
921.587	15112
921.697	15066
921.806	15176
921.916	14960
922.025	14845
922.134	14750
922.244	14743
922.353	14777
922.462	14625
922.571	14488
922.68	14457
922.789	14442
922.898	14404
923.007	14381
923.116	14396
923.224	14434
923.333	14393
923.442	14305
923.55	14252
923.659	14244
923.767	14187
923.876	14103
923.984	14214
924.092	14111
924.201	14157
924.309	14183
924.417	14168
924.525	14107
924.633	13959
924.741	14773
924.849	13845
924.956	13890
925.064	13902
925.172	13719
925.279	13708
925.387	13761
925.494	13803
925.602	13837
925.709	13826
925.816	13784
925.924	13689
926.031	13757
926.138	13662
926.245	13616
926.352	13582
926.459	13700
926.566	13757
926.673	13594
926.779	13445
926.886	13677
926.993	13285
927.099	13449
927.206	13232
927.312	13304
927.419	13304
927.525	13198
927.631	13217
927.737	13206
927.843	13122
927.95	13023
928.056	13053
928.162	13183
928.267	13160
928.373	13700
928.479	13160
928.585	12962
928.69	12985
928.796	13118
928.901	12901
929.007	12852
929.112	12901
929.218	12943
929.323	12817
929.428	12875
929.533	12916
929.638	12795
929.743	12768
929.848	12840
929.953	12741
930.058	12654
930.163	12471
930.267	12502
930.372	12631
930.477	12422
930.581	12608
930.685	12528
930.79	12258
930.894	12429
930.998	12357
931.103	12426
931.207	12022
931.311	12034
931.415	11927
931.519	11729
931.623	11634
