Data from test_V78500241_2168.txt Node
Date: Fri Mar 25 15:56:49 CST 2022
User: usil
Spectrometer: V785-0024
Trigger mode: 0
Integration Time (sec): 4.000000E-1
Scans to average: 1
Nonlinearity correction enabled: false
Boxcar width: 0
Storing dark spectrum: false
XAxis mode: Wavelengths
Number of Pixels in Spectrum: 1024
>>>>>Begin Spectral Data<<<<<
801.071	28991
801.214	28824
801.356	28668
801.499	28759
801.641	28519
801.783	28546
801.926	28535
802.068	28569
802.211	28398
802.353	28405
802.496	28253
802.638	28299
802.78	28128
802.923	28166
803.065	28207
803.208	28025
803.35	28223
803.492	28295
803.635	28474
803.777	28360
803.919	28542
804.061	28782
804.204	28481
804.346	28348
804.488	28428
804.63	28363
804.773	28341
804.915	28386
805.057	28721
805.199	28451
805.341	28535
805.483	28618
805.626	28687
805.768	28531
805.91	28584
806.052	28698
806.194	28653
806.336	28896
806.478	28668
806.62	28569
806.762	28805
806.904	28847
807.046	29220
807.188	29018
807.33	29140
807.472	29208
807.614	29064
807.756	28984
807.898	28877
808.04	28987
808.182	28858
808.324	28953
808.465	29067
808.607	29311
808.749	29402
808.891	29398
809.033	29547
809.174	29429
809.316	29280
809.458	29448
809.6	29132
809.741	29505
809.883	29474
810.025	29627
810.166	29684
810.308	29589
810.45	29642
810.591	29516
810.733	29356
810.875	29239
811.016	29094
811.158	29227
811.299	29436
811.441	29531
811.582	29551
811.724	29433
811.865	29330
812.007	29364
812.148	29398
812.29	29417
812.431	29391
812.573	29695
812.714	29676
812.855	29840
812.997	30022
813.138	30194
813.279	29862
813.421	29813
813.562	29771
813.703	29764
813.845	29592
813.986	29315
814.127	29056
814.268	29025
814.41	29109
814.551	29010
814.692	29075
814.833	28923
814.974	28957
815.115	29044
815.256	28980
815.397	28744
815.539	28858
815.68	28809
815.821	28854
815.962	28934
816.103	28816
816.244	28736
816.385	28565
816.526	28710
816.666	28455
816.807	28451
816.948	28280
817.089	28440
817.23	28398
817.371	28306
817.512	28379
817.653	28344
817.793	28318
817.934	28413
818.075	28382
818.216	28466
818.356	28367
818.497	28417
818.638	28230
818.778	28055
818.919	28109
819.06	28280
819.2	28337
819.341	28299
819.481	28287
819.622	28421
819.762	28717
819.903	28733
820.043	28596
820.184	28569
820.324	28451
820.465	28615
820.605	28516
820.746	28485
820.886	28455
821.026	28531
821.167	28508
821.307	28462
821.447	28337
821.588	28268
821.728	28067
821.868	28101
822.008	27960
822.149	28006
822.289	27747
822.429	27709
822.569	27713
822.709	27561
822.849	27496
822.99	27340
823.13	27401
823.27	27344
823.41	27222
823.55	27093
823.69	27268
823.83	27199
823.97	27233
824.11	27043
824.25	27032
824.389	26963
824.529	27096
824.669	26971
824.809	27150
824.949	27119
825.089	27108
825.228	26963
825.368	26842
825.508	26895
825.648	26853
825.787	26937
825.927	27043
826.067	26861
826.206	26918
826.346	26910
826.485	26929
826.625	26842
826.765	26899
826.904	27001
827.044	26891
827.183	26693
827.323	26629
827.462	26682
827.601	26644
827.741	26541
827.88	26830
828.02	26613
828.159	26514
828.298	26651
828.437	26720
828.577	26537
828.716	26697
828.855	26541
828.994	26423
829.134	26244
829.273	26301
829.412	26214
829.551	26275
829.69	26248
829.829	26240
829.968	26301
830.107	26446
830.246	26370
830.385	26271
830.524	26096
830.663	26020
830.802	26024
830.941	25894
831.08	25932
831.219	25986
831.357	26043
831.496	26157
831.635	26008
831.774	25734
831.913	25757
832.051	25784
832.19	25689
832.329	25708
832.467	25540
832.606	25651
832.744	25514
832.883	25499
833.022	25518
833.16	25582
833.299	25655
833.437	25552
833.576	25609
833.714	25727
833.852	25658
833.991	25742
834.129	25833
834.267	25738
834.406	25594
834.544	25658
834.682	25597
834.821	25685
834.959	25856
835.097	25529
835.235	25628
835.373	25609
835.511	25674
835.65	25453
835.788	25487
835.926	25472
836.064	25168
836.202	25297
836.34	25445
836.478	25510
836.615	25335
836.753	25571
836.891	25540
837.029	25506
837.167	25331
837.305	25411
837.443	25278
837.58	25175
837.718	25343
837.856	25251
837.993	25179
838.131	25255
838.269	25190
838.406	25266
838.544	25084
838.681	25008
838.819	24817
838.956	24661
839.094	24753
839.231	24863
839.369	24947
839.506	25088
839.643	25023
839.781	24856
839.918	24631
840.055	24806
840.193	24711
840.33	24688
840.467	24566
840.604	24627
840.742	24856
840.879	24471
841.016	24509
841.153	24494
841.29	24646
841.427	24604
841.564	24681
841.701	24566
841.838	24574
841.975	24372
842.112	24502
842.249	24369
842.385	24528
842.522	24608
842.659	24289
842.796	24380
842.933	24403
843.069	24277
843.206	24277
843.343	24479
843.479	24285
843.616	24350
843.752	24190
843.889	24186
844.025	24296
844.162	24174
844.298	24197
844.435	24194
844.571	24091
844.708	24182
844.844	24361
844.98	24334
845.117	24342
845.253	24209
845.389	24121
845.525	23977
845.661	24095
845.798	23958
845.934	23920
846.07	23923
846.206	23920
846.342	24003
846.478	23878
846.614	23760
846.75	23577
846.886	23570
847.022	23627
847.158	23547
847.294	23634
847.429	23745
847.565	23535
847.701	23863
847.837	23345
847.972	23307
848.108	23455
848.244	23433
848.379	23269
848.515	23223
848.65	23098
848.786	23356
848.921	23239
849.057	23284
849.192	23261
849.328	23299
849.463	23208
849.598	23193
849.734	23109
849.869	23025
850.004	23143
850.14	23029
850.275	23014
850.41	22938
850.545	22877
850.68	22843
850.815	23052
850.95	22877
851.085	23113
851.22	23254
851.355	22961
851.49	22911
851.625	22946
851.76	23003
851.895	22934
852.03	22938
852.165	22972
852.299	23136
852.434	23178
852.569	22942
852.703	23052
852.838	23124
852.973	23155
853.107	23098
853.242	22976
853.376	22854
853.511	22713
853.645	22691
853.78	22721
853.914	22729
854.048	22771
854.183	22927
854.317	22854
854.451	22961
854.585	22733
854.72	22786
854.854	22831
854.988	22679
855.122	22843
855.256	22748
855.39	22839
855.524	22904
855.658	22748
855.792	22725
855.926	22778
856.06	22854
856.194	23006
856.327	22809
856.461	22763
856.595	22702
856.729	22850
856.862	22987
856.996	22877
857.13	22820
857.263	22946
857.397	22835
857.53	22710
857.664	22946
857.797	22801
857.931	22839
858.064	22790
858.197	22904
858.331	22748
858.464	22702
858.597	22778
858.731	22752
858.864	22744
858.997	22752
859.13	22607
859.263	22710
859.396	22782
859.529	22869
859.662	22698
859.795	22911
859.928	22812
860.061	22980
860.194	22965
860.327	22816
860.46	22759
860.592	22809
860.725	22938
860.858	22873
860.99	22683
861.123	22698
861.256	22649
861.388	22653
861.521	23471
861.653	22660
861.786	22596
861.918	22763
862.05	22634
862.183	22717
862.315	22721
862.447	22790
862.58	22694
862.712	22481
862.844	22592
862.976	22512
863.108	22478
863.24	22904
863.372	22409
863.504	22519
863.636	22405
863.768	22584
863.9	22497
864.032	22573
864.164	22500
864.296	22516
864.428	22504
864.559	22459
864.691	22516
864.823	22417
864.954	22485
865.086	22459
865.217	22386
865.349	22295
865.48	22375
865.612	22379
865.743	22512
865.875	22363
866.006	22489
866.137	22249
866.269	22333
866.4	22276
866.531	22356
866.662	22333
866.793	22405
866.924	22295
867.055	22291
867.186	22356
867.317	22188
867.448	22147
867.579	22337
867.71	22295
867.841	22295
867.972	22280
868.103	22265
868.233	22265
868.364	22295
868.495	22398
868.625	22462
868.756	22554
868.886	22390
869.017	22459
869.147	22493
869.278	22752
869.408	22504
869.539	22443
869.669	22550
869.799	22683
869.929	22615
870.06	22698
870.19	22721
870.32	22801
870.45	22828
870.58	22885
870.71	23060
870.84	22995
870.97	23010
871.1	22881
871.23	23170
871.36	23166
871.489	22915
871.619	23147
871.749	23105
871.879	23212
872.008	23288
872.138	23121
872.267	23090
872.397	22972
872.526	22938
872.656	23022
872.785	23010
872.915	23189
873.044	23242
873.173	23193
873.303	23121
873.432	23265
873.561	23223
873.69	23193
873.819	23178
873.948	23261
874.077	23109
874.206	23151
874.335	23216
874.464	23200
874.593	23482
874.722	23353
874.851	23372
874.979	23322
875.108	23440
875.237	23254
875.365	23140
875.494	23379
875.623	23364
875.751	23239
875.88	23398
876.008	23497
876.136	23493
876.265	23802
876.393	23954
876.521	23767
876.65	23832
876.778	23714
876.906	23752
877.034	23691
877.162	23657
877.29	23672
877.418	23642
877.546	23726
877.674	23623
877.802	23672
877.93	23741
878.058	23592
878.185	23520
878.313	23600
878.441	23646
878.568	23554
878.696	23710
878.824	23737
878.951	23699
879.079	23889
879.206	23946
879.333	23794
879.461	23752
879.588	23771
879.715	23832
879.842	23984
879.97	23714
880.097	23558
880.224	23539
880.351	23592
880.478	23589
880.605	23425
880.732	23497
880.859	23760
880.986	23490
881.112	23551
881.239	23414
881.366	23250
881.493	23193
881.619	22972
881.746	23128
881.872	23052
881.999	23003
882.125	23010
882.252	23216
882.378	23086
882.505	23151
882.631	22949
882.757	22767
882.883	22744
883.01	22717
883.136	22683
883.262	22618
883.388	22702
883.514	22721
883.64	22748
883.766	22672
883.892	22497
884.018	22577
884.143	22717
884.269	22869
884.395	22489
884.52	22253
884.646	22303
884.772	22325
884.897	22158
885.023	22440
885.148	22390
885.274	22519
885.399	22523
885.524	22284
885.65	22379
885.775	22344
885.9	22398
886.025	22440
886.15	22417
886.275	22268
886.4	22177
886.525	22230
886.65	22379
886.775	22303
886.9	22523
887.025	22554
887.149	22329
887.274	22200
887.399	22006
887.523	22154
887.648	22029
887.773	22048
887.897	22082
888.021	22185
888.146	22112
888.27	22200
888.395	22139
888.519	22215
888.643	22051
888.767	22200
888.891	22010
889.015	22013
889.139	22086
889.263	21823
889.387	21960
889.511	22154
889.635	22029
889.759	21941
889.883	21994
890.006	21903
890.13	21907
890.254	21907
890.377	21781
890.501	21755
890.624	21599
890.748	21720
890.871	21580
890.995	21443
891.118	21378
891.241	21538
891.364	21481
891.488	21557
891.611	21496
891.734	21481
891.857	21485
891.98	21420
892.103	21393
892.226	21443
892.349	21359
892.471	21169
892.594	21310
892.717	21389
892.839	21367
892.962	21370
893.085	21469
893.207	21363
893.33	21386
893.452	21294
893.575	21370
893.697	21351
893.819	21450
893.941	21603
894.064	21367
894.186	21260
894.308	21249
894.43	21447
894.552	21393
894.674	21496
894.796	21256
894.918	21268
895.04	21222
895.161	21313
895.283	21393
895.405	21245
895.526	21222
895.648	21340
895.769	21332
895.891	21389
896.012	21485
896.134	21420
896.255	21214
896.376	21275
896.498	21336
896.619	21355
896.74	21329
896.861	21408
896.982	21614
897.103	21759
897.224	21496
897.345	21454
897.466	21534
897.587	21439
897.708	21671
897.828	21610
897.949	21397
898.07	21401
898.19	21416
898.311	21523
898.431	21397
898.552	21561
898.672	21580
898.792	21557
898.913	21443
899.033	21340
899.153	21374
899.273	21127
899.393	21161
899.513	21279
899.633	21264
899.753	21260
899.873	21135
899.993	21192
900.113	21093
900.232	21256
900.352	21047
900.472	21100
900.591	20982
900.711	20933
900.83	20944
900.95	21123
901.069	21112
901.189	20967
901.308	20697
901.427	20511
901.546	20583
901.665	20606
901.784	20613
901.904	20366
902.023	20377
902.141	20107
902.26	20020
902.379	20107
902.498	20145
902.617	19879
902.735	20107
902.854	20092
902.973	19852
903.091	19689
903.21	19647
903.328	19696
903.446	19559
903.565	19639
903.683	19468
903.801	19426
903.919	19563
904.038	19407
904.156	19297
904.274	19320
904.392	19228
904.51	19187
904.627	19221
904.745	19354
904.863	19350
904.981	19088
905.098	19004
905.216	19008
905.334	18985
905.451	18913
905.569	18932
905.686	18947
905.803	18909
905.921	18791
906.038	18875
906.155	18810
906.272	18620
906.389	18616
906.506	18414
906.623	18486
906.74	18441
906.857	18429
906.974	18296
907.091	18509
907.208	18559
907.324	18486
907.441	18410
907.557	18262
907.674	18205
907.79	18076
907.907	18163
908.023	18209
908.139	18205
908.256	18121
908.372	18083
908.488	18030
908.604	17965
908.72	17840
908.836	17901
908.952	17889
909.068	17950
909.184	17889
909.3	17855
909.415	17870
909.531	17843
909.647	17592
909.762	17668
909.878	17573
909.993	17608
910.108	17547
910.224	17516
910.339	17471
910.454	17421
910.57	17410
910.685	17349
910.8	17623
910.915	17391
911.03	17307
911.145	17212
911.259	17071
911.374	17181
911.489	17014
911.604	17041
911.718	16911
911.833	16934
911.947	16702
912.062	16736
912.176	16892
912.291	16961
912.405	16839
912.519	17151
912.633	16984
912.748	16896
912.862	16828
912.976	16771
913.09	16664
913.204	16691
913.318	16672
913.431	16668
913.545	16812
913.659	16710
913.772	16645
913.886	16584
914	16500
914.113	16630
914.226	16531
914.34	16409
914.453	16367
914.566	16489
914.68	16322
914.793	16303
914.906	16093
915.019	16051
915.132	16040
915.245	16116
915.358	16131
915.47	16025
915.583	16063
915.696	16063
915.809	16226
915.921	16181
916.034	16059
916.146	15911
916.259	15964
916.371	16025
916.483	15937
916.595	15789
916.708	15865
916.82	15827
916.932	15827
917.044	15831
917.156	15774
917.268	15591
917.38	15644
917.491	15633
917.603	15709
917.715	15724
917.826	15724
917.938	15538
918.049	15454
918.161	15637
918.272	15766
918.384	15656
918.495	15568
918.606	15424
918.717	15367
918.828	15462
918.939	15462
919.05	15355
919.161	15435
919.272	15218
919.383	15298
919.494	15424
919.604	15629
919.715	15530
919.826	15230
919.936	15351
920.047	15389
920.157	15310
920.267	15557
920.378	15386
920.488	15233
920.598	15530
920.708	15644
920.818	15359
920.928	15466
921.038	15637
921.148	15629
921.258	15348
921.368	15161
921.477	15043
921.587	15043
921.697	14921
921.806	15051
921.916	14914
922.025	14834
922.134	14629
922.244	14754
922.353	14769
922.462	14606
922.571	14549
922.68	14374
922.789	14404
922.898	14301
923.007	14240
923.116	14427
923.224	14233
923.333	14290
923.442	14176
923.55	14077
923.659	14263
923.767	14237
923.876	14077
923.984	14183
924.092	14187
924.201	14050
924.309	14111
924.417	14111
924.525	13959
924.633	13993
924.741	14743
924.849	13723
924.956	13928
925.064	13788
925.172	13624
925.279	13696
925.387	13757
925.494	13704
925.602	13750
925.709	13811
925.816	13636
925.924	13586
926.031	13727
926.138	13624
926.245	13655
926.352	13540
926.459	13689
926.566	13715
926.673	13639
926.779	13514
926.886	13449
926.993	13422
927.099	13308
927.206	13164
927.312	13221
927.419	13293
927.525	13251
927.631	13259
927.737	13084
927.843	13057
927.95	12954
928.056	13031
928.162	13046
928.267	13023
928.373	13753
928.479	13152
928.585	13004
928.69	13046
928.796	12989
928.901	12867
929.007	12700
929.112	12924
929.218	12859
929.323	12810
929.428	12768
929.533	12909
929.638	12757
929.743	12806
929.848	12795
929.953	12703
930.058	12445
930.163	12380
930.267	12486
930.372	12536
930.477	12395
930.581	12650
930.685	12498
930.79	12277
930.894	12353
930.998	12251
931.103	12376
931.207	12038
931.311	11977
931.415	11878
931.519	11623
931.623	11688
