Data from test_V78500241_527.txt Node
Date: Fri Mar 25 15:45:27 CST 2022
User: usil
Spectrometer: V785-0024
Trigger mode: 0
Integration Time (sec): 4.000000E-1
Scans to average: 1
Nonlinearity correction enabled: false
Boxcar width: 0
Storing dark spectrum: false
XAxis mode: Wavelengths
Number of Pixels in Spectrum: 1024
>>>>>Begin Spectral Data<<<<<
801.071	27998
801.214	27918
801.356	27797
801.499	27720
801.641	27568
801.783	27599
801.926	27713
802.068	27610
802.211	27447
802.353	27378
802.496	27260
802.638	27294
802.78	27199
802.923	27173
803.065	27085
803.208	27233
803.35	27237
803.492	27382
803.635	27427
803.777	27272
803.919	27416
804.061	27663
804.204	27416
804.346	27291
804.488	27165
804.63	27317
804.773	27401
804.915	27386
805.057	27542
805.199	27500
805.341	27519
805.483	27435
805.626	27500
805.768	27336
805.91	27553
806.052	27545
806.194	27420
806.336	27641
806.478	27610
806.62	27542
806.762	27545
806.904	27895
807.046	28044
807.188	27956
807.33	27831
807.472	27876
807.614	27831
807.756	28013
807.898	27884
808.04	27823
808.182	27857
808.324	27876
808.465	27762
808.607	27987
808.749	28128
808.891	28207
809.033	28440
809.174	28147
809.316	28265
809.458	28196
809.6	28265
809.741	28272
809.883	28295
810.025	28519
810.166	28409
810.308	28470
810.45	28470
810.591	28409
810.733	28128
810.875	28169
811.016	28135
811.158	28101
811.299	28242
811.441	28329
811.582	28382
811.724	28226
811.865	28112
812.007	28070
812.148	28280
812.29	28238
812.431	28363
812.573	28508
812.714	28645
812.855	28626
812.997	28725
813.138	29079
813.279	28911
813.421	28607
813.562	28672
813.703	28637
813.845	28379
813.986	28051
814.127	27953
814.268	27804
814.41	27949
814.551	27888
814.692	27838
814.833	27751
814.974	27781
815.115	28029
815.256	27789
815.397	27648
815.539	27778
815.68	27591
815.821	27717
815.962	27766
816.103	27557
816.244	27644
816.385	27393
816.526	27359
816.666	27332
816.807	27123
816.948	27260
817.089	27332
817.23	27180
817.371	27127
817.512	27214
817.653	27127
817.793	27199
817.934	27226
818.075	27150
818.216	27123
818.356	27055
818.497	26952
818.638	26845
818.778	26880
818.919	27009
819.06	27001
819.2	27062
819.341	27169
819.481	27165
819.622	27294
819.762	27534
819.903	27530
820.043	27336
820.184	27237
820.324	27249
820.465	27359
820.605	27188
820.746	27272
820.886	27146
821.026	27241
821.167	27230
821.307	27287
821.447	27230
821.588	27161
821.728	26967
821.868	26876
822.008	26636
822.149	26697
822.289	26659
822.429	26248
822.569	26210
822.709	26214
822.849	26161
822.99	26145
823.13	26199
823.27	26134
823.41	25890
823.55	25818
823.69	25986
823.83	25845
823.97	25936
824.11	25769
824.25	25769
824.389	25788
824.529	25921
824.669	25837
824.809	25845
824.949	25921
825.089	25856
825.228	25746
825.368	25670
825.508	25609
825.648	25750
825.787	25765
825.927	25658
826.067	25662
826.206	25582
826.346	25738
826.485	25731
826.625	25704
826.765	25704
826.904	25780
827.044	25453
827.183	25358
827.323	25289
827.462	25358
827.601	25457
827.741	25445
827.88	25476
828.02	25190
828.159	25304
828.298	25441
828.437	25491
828.577	25285
828.716	25419
828.855	25324
828.994	25133
829.134	25042
829.273	25183
829.412	25156
829.551	25015
829.69	25114
829.829	25145
829.968	25122
830.107	25206
830.246	25145
830.385	24932
830.524	24996
830.663	24772
830.802	24776
830.941	24738
831.08	24612
831.219	24745
831.357	24696
831.496	24935
831.635	24669
831.774	24593
831.913	24631
832.051	24467
832.19	24426
832.329	24536
832.467	24289
832.606	24319
832.744	24289
832.883	24357
833.022	24235
833.16	24311
833.299	24464
833.437	24342
833.576	24380
833.714	24395
833.852	24445
833.991	24414
834.129	24486
834.267	24410
834.406	24410
834.544	24384
834.682	24426
834.821	24410
834.959	24547
835.097	24292
835.235	24338
835.373	24251
835.511	24350
835.65	24338
835.788	24319
835.926	24155
836.064	23965
836.202	24091
836.34	24338
836.478	24289
836.615	24117
836.753	24327
836.891	24258
837.029	24178
837.167	24205
837.305	24133
837.443	24030
837.58	24041
837.718	24152
837.856	24087
837.993	24060
838.131	24110
838.269	24018
838.406	23973
838.544	23901
838.681	23642
838.819	23604
838.956	23630
839.094	23448
839.231	23756
839.369	23581
839.506	23828
839.643	23733
839.781	23600
839.918	23356
840.055	23417
840.193	23471
840.33	23490
840.467	23440
840.604	23436
840.742	23748
840.879	23311
841.016	23337
841.153	23273
841.29	23531
841.427	23376
841.564	23509
841.701	23486
841.838	23387
841.975	23246
842.112	23391
842.249	23231
842.385	23212
842.522	23444
842.659	23246
842.796	23132
842.933	23162
843.069	23098
843.206	23189
843.343	23227
843.479	23288
843.616	23140
843.752	22938
843.889	23067
844.025	23083
844.162	22790
844.298	23121
844.435	22938
844.571	22915
844.708	22927
844.844	23071
844.98	23041
845.117	23044
845.253	22828
845.389	22877
845.525	22847
845.661	22710
845.798	22759
845.934	22706
846.07	22679
846.206	22793
846.342	22812
846.478	22603
846.614	22421
846.75	22379
846.886	22333
847.022	22367
847.158	22405
847.294	22470
847.429	22478
847.565	22360
847.701	22820
847.837	22131
847.972	22097
848.108	22299
848.244	22143
848.379	22040
848.515	22036
848.65	22101
848.786	22029
848.921	21994
849.057	22181
849.192	22040
849.328	22166
849.463	21949
849.598	21983
849.734	21899
849.869	21926
850.004	21724
850.14	21869
850.275	21770
850.41	21622
850.545	21698
850.68	21671
850.815	21724
850.95	21705
851.085	22021
851.22	21960
851.355	21739
851.49	21701
851.625	21736
851.76	21728
851.895	21686
852.03	21724
852.165	21762
852.299	21797
852.434	21842
852.569	21797
852.703	21686
852.838	21778
852.973	21983
853.107	21816
853.242	21736
853.376	21614
853.511	21519
853.645	21641
853.78	21667
853.914	21656
854.048	21637
854.183	21568
854.317	21652
854.451	21580
854.585	21519
854.72	21660
854.854	21652
854.988	21595
855.122	21435
855.256	21466
855.39	21568
855.524	21759
855.658	21713
855.792	21564
855.926	21686
856.06	21663
856.194	21804
856.327	21587
856.461	21568
856.595	21515
856.729	21553
856.862	21667
856.996	21530
857.13	21705
857.263	21701
857.397	21656
857.53	21648
857.664	21618
857.797	21622
857.931	21622
858.064	21576
858.197	21717
858.331	21576
858.464	21603
858.597	21576
858.731	21416
858.864	21477
858.997	21606
859.13	21599
859.263	21599
859.396	21682
859.529	21431
859.662	21648
859.795	21652
859.928	21717
860.061	21663
860.194	21793
860.327	21751
860.46	21545
860.592	21755
860.725	21793
860.858	21686
860.99	21542
861.123	21504
861.256	21526
861.388	21633
861.521	22314
861.653	21431
861.786	21401
861.918	21462
862.05	21488
862.183	21583
862.315	21485
862.447	21633
862.58	21496
862.712	21386
862.844	21268
862.976	21412
863.108	21359
863.24	21755
863.372	21268
863.504	21370
863.636	21268
863.768	21393
863.9	21230
864.032	21268
864.164	21310
864.296	21260
864.428	21405
864.559	21363
864.691	21370
864.823	21268
864.954	21188
865.086	21218
865.217	21230
865.349	21112
865.48	21268
865.612	21150
865.743	21439
865.875	21135
866.006	21218
866.137	21192
866.269	21260
866.4	21279
866.531	21203
866.662	21135
866.793	21119
866.924	21112
867.055	21116
867.186	21222
867.317	20960
867.448	21100
867.579	21138
867.71	20979
867.841	21047
867.972	21135
868.103	21123
868.233	21195
868.364	21214
868.495	21237
868.625	21344
868.756	21462
868.886	21252
869.017	21378
869.147	21329
869.278	21481
869.408	21458
869.539	21332
869.669	21492
869.799	21412
869.929	21424
870.06	21481
870.19	21698
870.32	21591
870.45	21663
870.58	21808
870.71	21789
870.84	21934
870.97	21781
871.1	21728
871.23	21895
871.36	21960
871.489	21831
871.619	21766
871.749	21953
871.879	22006
872.008	22101
872.138	21964
872.267	21945
872.397	21793
872.526	21781
872.656	21854
872.785	21918
872.915	21899
873.044	22036
873.173	21930
873.303	21998
873.432	22017
873.561	22032
873.69	21934
873.819	21903
873.948	22101
874.077	21869
874.206	21907
874.335	22002
874.464	22147
874.593	22215
874.722	22249
874.851	22166
874.979	22158
875.108	22291
875.237	22090
875.365	22120
875.494	22166
875.623	22204
875.751	22124
875.88	22162
876.008	22299
876.136	22436
876.265	22634
876.393	22641
876.521	22584
876.65	22698
876.778	22580
876.906	22538
877.034	22531
877.162	22504
877.29	22394
877.418	22592
877.546	22512
877.674	22592
877.802	22561
877.93	22557
878.058	22580
878.185	22478
878.313	22493
878.441	22504
878.568	22462
878.696	22538
878.824	22523
878.951	22774
879.079	22710
879.206	22793
879.333	22771
879.461	22596
879.588	22573
879.715	22698
879.842	22892
879.97	22577
880.097	22382
880.224	22424
880.351	22413
880.478	22390
880.605	22226
880.732	22344
880.859	22645
880.986	22329
881.112	22379
881.239	22230
881.366	22090
881.493	22070
881.619	21903
881.746	21956
881.872	21956
881.999	21861
882.125	21857
882.252	21972
882.378	21857
882.505	21972
882.631	21720
882.757	21648
882.883	21720
883.01	21793
883.136	21572
883.262	21576
883.388	21412
883.514	21576
883.64	21728
883.766	21568
883.892	21355
884.018	21485
884.143	21644
884.269	21603
884.395	21386
884.52	21237
884.646	21260
884.772	21272
884.897	21081
885.023	21363
885.148	21420
885.274	21481
885.399	21382
885.524	21252
885.65	21393
885.775	21317
885.9	21085
886.025	21428
886.15	21424
886.275	21218
886.4	21237
886.525	21203
886.65	21165
886.775	21241
886.9	21485
887.025	21447
887.149	21287
887.274	21135
887.399	21024
887.523	21077
887.648	21066
887.773	21020
887.897	21169
888.021	21081
888.146	20990
888.27	21123
888.395	21180
888.519	21161
888.643	20990
888.767	21116
888.891	20990
889.015	20838
889.139	20842
889.263	21043
889.387	20880
889.511	21062
889.635	20910
889.759	20773
889.883	20906
890.006	20975
890.13	20838
890.254	20724
890.377	20609
890.501	20568
890.624	20514
890.748	20644
890.871	20514
890.995	20309
891.118	20248
891.241	20457
891.364	20454
891.488	20579
891.611	20332
891.734	20423
891.857	20415
891.98	20511
892.103	20461
892.226	20370
892.349	20256
892.471	20225
892.594	20343
892.717	20339
892.839	20218
892.962	20278
893.085	20320
893.207	20301
893.33	20176
893.452	20206
893.575	20317
893.697	20275
893.819	20404
893.941	20507
894.064	20400
894.186	20252
894.308	20202
894.43	20320
894.552	20389
894.674	20389
894.796	20168
894.918	20240
895.04	20374
895.161	20351
895.283	20298
895.405	20313
895.526	20328
895.648	20294
895.769	20385
895.891	20298
896.012	20419
896.134	20362
896.255	20278
896.376	20374
896.498	20305
896.619	20389
896.74	20282
896.861	20275
896.982	20686
897.103	20693
897.224	20629
897.345	20533
897.466	20552
897.587	20476
897.708	20648
897.828	20571
897.949	20419
898.07	20355
898.19	20492
898.311	20511
898.431	20499
898.552	20465
898.672	20492
898.792	20583
898.913	20556
899.033	20385
899.153	20320
899.273	20313
899.393	20347
899.513	20370
899.633	20256
899.753	20180
899.873	20199
899.993	20317
900.113	20122
900.232	20210
900.352	20130
900.472	20073
900.591	19989
900.711	20039
900.83	19997
900.95	20218
901.069	20065
901.189	19917
901.308	19742
901.427	19590
901.546	19696
901.665	19567
901.784	19658
901.904	19491
902.023	19472
902.141	19240
902.26	19118
902.379	19263
902.498	19183
902.617	19133
902.735	19225
902.854	19190
902.973	19042
903.091	18783
903.21	18821
903.328	18814
903.446	18787
903.565	18574
903.683	18661
903.801	18528
903.919	18521
904.038	18563
904.156	18330
904.274	18433
904.392	18418
904.51	18311
904.627	18327
904.745	18342
904.863	18517
904.981	18266
905.098	17958
905.216	18121
905.334	18026
905.451	18091
905.569	18011
905.686	18034
905.803	18076
905.921	17828
906.038	17904
906.155	17901
906.272	17638
906.389	17710
906.506	17642
906.623	17608
906.74	17619
906.857	17478
906.974	17414
907.091	17661
907.208	17714
907.324	17653
907.441	17486
907.557	17246
907.674	17318
907.79	17254
907.907	17254
908.023	17239
908.139	17261
908.256	17288
908.372	17143
908.488	17105
908.604	17109
908.72	16991
908.836	16980
908.952	16991
909.068	17075
909.184	17098
909.3	16908
909.415	17033
909.531	17048
909.647	16736
909.762	16854
909.878	16691
909.993	16721
910.108	16755
910.224	16592
910.339	16622
910.454	16622
910.57	16584
910.685	16535
910.8	16721
910.915	16694
911.03	16489
911.145	16356
911.259	16360
911.374	16287
911.489	16226
911.604	16188
911.718	15998
911.833	15930
911.947	15915
912.062	15903
912.176	16090
912.291	16071
912.405	16051
912.519	16188
912.633	16249
912.748	16078
912.862	15987
912.976	15800
913.09	15865
913.204	15865
913.318	15865
913.431	15987
913.545	15846
913.659	15926
913.772	15804
913.886	15709
914	15614
914.113	15804
914.226	15736
914.34	15759
914.453	15500
914.566	15705
914.68	15534
914.793	15595
914.906	15313
915.019	15340
915.132	15085
915.245	15203
915.358	15233
915.47	15252
915.583	15241
915.696	15294
915.809	15351
915.921	15393
916.034	15188
916.146	15165
916.259	15108
916.371	15173
916.483	15230
916.595	15100
916.708	15100
916.82	15100
916.932	15074
917.044	15112
917.156	15055
917.268	14914
917.38	14933
917.491	14979
917.603	14834
917.715	15001
917.826	15024
917.938	14921
918.049	14602
918.161	14872
918.272	15112
918.384	14952
918.495	14834
918.606	14632
918.717	14636
918.828	14629
918.939	14796
919.05	14613
919.161	14640
919.272	14438
919.383	14408
919.494	14697
919.604	14845
919.715	14701
919.826	14590
919.936	14587
920.047	14663
920.157	14617
920.267	14739
920.378	14632
920.488	14537
920.598	14788
920.708	14918
920.818	14746
920.928	14811
921.038	14834
921.148	14853
921.258	14530
921.368	14412
921.477	14412
921.587	14248
921.697	14142
921.806	14355
921.916	14214
922.025	14126
922.134	14031
922.244	13917
922.353	14073
922.462	13925
922.571	13875
922.68	13784
922.789	13674
922.898	13784
923.007	13666
923.116	13696
923.224	13620
923.333	13628
923.442	13571
923.55	13400
923.659	13544
923.767	13533
923.876	13384
923.984	13453
924.092	13396
924.201	13384
924.309	13358
924.417	13384
924.525	13327
924.633	13270
924.741	14096
924.849	13149
924.956	13244
925.064	13065
925.172	13133
925.279	13065
925.387	13088
925.494	12993
925.602	13141
925.709	13152
925.816	12943
925.924	13088
926.031	13084
926.138	12977
926.245	13050
926.352	12875
926.459	13012
926.566	13050
926.673	12916
926.779	12840
926.886	12806
926.993	12745
927.099	12715
927.206	12525
927.312	12547
927.419	12627
927.525	12570
927.631	12601
927.737	12506
927.843	12445
927.95	12315
928.056	12414
928.162	12433
928.267	12513
928.373	13065
928.479	12498
928.585	12247
928.69	12384
928.796	12418
928.901	12350
929.007	12228
929.112	12289
929.218	12296
929.323	12148
929.428	12034
929.533	12304
929.638	12068
929.743	12167
929.848	12144
929.953	12182
930.058	12076
930.163	11802
930.267	11798
930.372	12026
930.477	11794
930.581	12030
930.685	11931
930.79	11661
930.894	11764
930.998	11710
931.103	11927
931.207	11539
931.311	11402
931.415	11372
931.519	11094
931.623	11083
