Data from test_V78500241_2696.txt Node
Date: Fri Mar 25 16:00:28 CST 2022
User: usil
Spectrometer: V785-0024
Trigger mode: 0
Integration Time (sec): 4.000000E-1
Scans to average: 1
Nonlinearity correction enabled: false
Boxcar width: 0
Storing dark spectrum: false
XAxis mode: Wavelengths
Number of Pixels in Spectrum: 1024
>>>>>Begin Spectral Data<<<<<
801.071	28752
801.214	28596
801.356	28497
801.499	28367
801.641	28337
801.783	28375
801.926	28382
802.068	28234
802.211	28219
802.353	28158
802.496	28040
802.638	28105
802.78	28032
802.923	27949
803.065	27717
803.208	27838
803.35	27808
803.492	28067
803.635	28032
803.777	28105
803.919	28169
804.061	28493
804.204	28124
804.346	28143
804.488	28090
804.63	28143
804.773	28070
804.915	28249
805.057	28303
805.199	28204
805.341	28325
805.483	28394
805.626	28459
805.768	28223
805.91	28310
806.052	28398
806.194	28284
806.336	28550
806.478	28242
806.62	28295
806.762	28607
806.904	28542
807.046	28755
807.188	28984
807.33	28786
807.472	28869
807.614	28763
807.756	28771
807.898	28752
808.04	28675
808.182	28462
808.324	28630
808.465	28881
808.607	29048
808.749	29067
808.891	29113
809.033	29022
809.174	29064
809.316	28938
809.458	29010
809.6	29003
809.741	29159
809.883	29124
810.025	29375
810.166	29364
810.308	29185
810.45	29269
810.591	29216
810.733	29025
810.875	29109
811.016	28934
811.158	28980
811.299	29299
811.441	29185
811.582	29185
811.724	29132
811.865	29140
812.007	29006
812.148	29006
812.29	29151
812.431	29212
812.573	29337
812.714	29535
812.855	29722
812.997	29524
813.138	29733
813.279	29710
813.421	29623
813.562	29463
813.703	29433
813.845	29277
813.986	28995
814.127	28748
814.268	28873
814.41	28733
814.551	28698
814.692	28736
814.833	28675
814.974	28759
815.115	28759
815.256	28580
815.397	28626
815.539	28710
815.68	28462
815.821	28451
815.962	28569
816.103	28630
816.244	28363
816.385	28348
816.526	28306
816.666	28147
816.807	28074
816.948	28169
817.089	28181
817.23	27987
817.371	28044
817.512	28120
817.653	28055
817.793	28002
817.934	28032
818.075	28059
818.216	27975
818.356	27953
818.497	27808
818.638	27876
818.778	27949
818.919	27854
819.06	27884
819.2	27987
819.341	28215
819.481	28040
819.622	28261
819.762	28447
819.903	28523
820.043	28325
820.184	28188
820.324	28382
820.465	28272
820.605	28116
820.746	28230
820.886	28078
821.026	28086
821.167	28101
821.307	28093
821.447	28230
821.588	27987
821.728	27838
821.868	27713
822.008	27755
822.149	27557
822.289	27511
822.429	27260
822.569	27233
822.709	27283
822.849	27165
822.99	27154
823.13	27074
823.27	26944
823.41	26967
823.55	26716
823.69	26815
823.83	26895
823.97	26800
824.11	26655
824.25	26705
824.389	26564
824.529	26674
824.669	26785
824.809	26678
824.949	26716
825.089	26918
825.228	26876
825.368	26552
825.508	26670
825.648	26575
825.787	26587
825.927	26571
826.067	26457
826.206	26583
826.346	26594
826.485	26629
826.625	26686
826.765	26583
826.904	26720
827.044	26343
827.183	26476
827.323	26343
827.462	26415
827.601	26427
827.741	26282
827.88	26351
828.02	26134
828.159	26309
828.298	26446
828.437	26404
828.577	26103
828.716	26400
828.855	26210
828.994	25955
829.134	26054
829.273	26081
829.412	25932
829.551	25989
829.69	25909
829.829	25989
829.968	26031
830.107	26096
830.246	25849
830.385	25932
830.524	26024
830.663	25795
830.802	25765
830.941	25590
831.08	25487
831.219	25693
831.357	25643
831.496	25807
831.635	25624
831.774	25445
831.913	25521
832.051	25460
832.19	25381
832.329	25339
832.467	25251
832.606	25282
832.744	25278
832.883	25289
833.022	25301
833.16	25297
833.299	25358
833.437	25228
833.576	25297
833.714	25308
833.852	25350
833.991	25339
834.129	25514
834.267	25438
834.406	25422
834.544	25415
834.682	25441
834.821	25316
834.959	25533
835.097	25274
835.235	25392
835.373	25422
835.511	25324
835.65	25179
835.788	25168
835.926	25057
836.064	24939
836.202	24996
836.34	25152
836.478	25118
836.615	25080
836.753	25282
836.891	25213
837.029	25225
837.167	25019
837.305	25103
837.443	25129
837.58	25076
837.718	24913
837.856	24844
837.993	24928
838.131	25076
838.269	24783
838.406	24844
838.544	24696
838.681	24635
838.819	24696
838.956	24388
839.094	24509
839.231	24498
839.369	24555
839.506	24837
839.643	24669
839.781	24559
839.918	24418
840.055	24486
840.193	24399
840.33	24330
840.467	24384
840.604	24536
840.742	24566
840.879	24205
841.016	24205
841.153	24273
841.29	24391
841.427	24289
841.564	24330
841.701	24376
841.838	24270
841.975	24319
842.112	24251
842.249	24171
842.385	24091
842.522	24285
842.659	24197
842.796	24129
842.933	24083
843.069	23996
843.206	24076
843.343	24182
843.479	24148
843.616	24171
843.752	23920
843.889	23942
844.025	24022
844.162	23901
844.298	23904
844.435	23764
844.571	23851
844.708	23805
844.844	24110
844.98	23984
845.117	24060
845.253	23802
845.389	23714
845.525	23843
845.661	23790
845.798	23600
845.934	23809
846.07	23699
846.206	23619
846.342	23665
846.478	23589
846.614	23444
846.75	23277
846.886	23360
847.022	23337
847.158	23318
847.294	23341
847.429	23421
847.565	23216
847.701	23524
847.837	23014
847.972	23056
848.108	23105
848.244	23041
848.379	23014
848.515	22869
848.65	22919
848.786	22896
848.921	22972
849.057	22980
849.192	23010
849.328	23033
849.463	22927
849.598	22862
849.734	22797
849.869	22889
850.004	22706
850.14	22755
850.275	22596
850.41	22683
850.545	22637
850.68	22664
850.815	22721
850.95	22774
851.085	22885
851.22	22713
851.355	22763
851.49	22615
851.625	22672
851.76	22675
851.895	22538
852.03	22675
852.165	22641
852.299	22759
852.434	22805
852.569	22660
852.703	22729
852.838	22767
852.973	22767
853.107	22847
853.242	22516
853.376	22485
853.511	22379
853.645	22367
853.78	22569
853.914	22390
854.048	22451
854.183	22497
854.317	22577
854.451	22771
854.585	22455
854.72	22535
854.854	22561
854.988	22535
855.122	22462
855.256	22375
855.39	22474
855.524	22641
855.658	22538
855.792	22580
855.926	22470
856.06	22577
856.194	22569
856.327	22573
856.461	22550
856.595	22455
856.729	22538
856.862	22649
856.996	22569
857.13	22474
857.263	22516
857.397	22588
857.53	22417
857.664	22653
857.797	22538
857.931	22649
858.064	22424
858.197	22588
858.331	22481
858.464	22447
858.597	22367
858.731	22481
858.864	22462
858.997	22519
859.13	22554
859.263	22611
859.396	22565
859.529	22417
859.662	22497
859.795	22512
859.928	22569
860.061	22641
860.194	22694
860.327	22512
860.46	22565
860.592	22546
860.725	22637
860.858	22577
860.99	22531
861.123	22405
861.256	22474
861.388	22516
861.521	23292
861.653	22344
861.786	22238
861.918	22379
862.05	22314
862.183	22519
862.315	22470
862.447	22580
862.58	22367
862.712	22325
862.844	22303
862.976	22162
863.108	22272
863.24	22733
863.372	22204
863.504	22185
863.636	22325
863.768	22246
863.9	22211
864.032	22135
864.164	22204
864.296	22188
864.428	22276
864.559	22253
864.691	22276
864.823	22131
864.954	22139
865.086	22158
865.217	22147
865.349	22006
865.48	22131
865.612	22112
865.743	22272
865.875	22162
866.006	22044
866.137	22029
866.269	21972
866.4	22036
866.531	21926
866.662	21915
866.793	21979
866.924	22044
867.055	22006
867.186	22147
867.317	22013
867.448	21953
867.579	21983
867.71	21865
867.841	21903
867.972	21930
868.103	22040
868.233	22006
868.364	21975
868.495	22101
868.625	22322
868.756	22257
868.886	22215
869.017	22318
869.147	22234
869.278	22379
869.408	22242
869.539	22223
869.669	22356
869.799	22356
869.929	22398
870.06	22375
870.19	22618
870.32	22683
870.45	22519
870.58	22664
870.71	22729
870.84	22831
870.97	22698
871.1	22584
871.23	22820
871.36	22919
871.489	22763
871.619	22869
871.749	22831
871.879	22942
872.008	22953
872.138	22980
872.267	22896
872.397	22778
872.526	22812
872.656	22672
872.785	22554
872.915	22927
873.044	22965
873.173	22900
873.303	22889
873.432	22946
873.561	22972
873.69	22915
873.819	22805
873.948	23056
874.077	22976
874.206	22824
874.335	22767
874.464	22987
874.593	23136
874.722	23018
874.851	23258
874.979	23132
875.108	23242
875.237	22965
875.365	22995
875.494	23033
875.623	23102
875.751	23006
875.88	23181
876.008	23197
876.136	23296
876.265	23520
876.393	23524
876.521	23604
876.65	23551
876.778	23379
876.906	23387
877.034	23383
877.162	23433
877.29	23349
877.418	23429
877.546	23372
877.674	23330
877.802	23497
877.93	23315
878.058	23417
878.185	23284
878.313	23330
878.441	23493
878.568	23250
878.696	23383
878.824	23417
878.951	23509
879.079	23573
879.206	23699
879.333	23554
879.461	23406
879.588	23608
879.715	23646
879.842	23638
879.97	23596
880.097	23284
880.224	23208
880.351	23277
880.478	23261
880.605	23242
880.732	23159
880.859	23490
880.986	23383
881.112	23288
881.239	23041
881.366	23056
881.493	22790
881.619	22820
881.746	22831
881.872	22885
881.999	22729
882.125	22782
882.252	22843
882.378	22752
882.505	22949
882.631	22584
882.757	22470
882.883	22626
883.01	22588
883.136	22497
883.262	22287
883.388	22360
883.514	22531
883.64	22500
883.766	22352
883.892	22116
884.018	22257
884.143	22398
884.269	22508
884.395	22166
884.52	22090
884.646	22158
884.772	21998
884.897	21968
885.023	22124
885.148	22128
885.274	22177
885.399	22291
885.524	22207
885.65	22067
885.775	22090
885.9	21991
886.025	22048
886.15	22207
886.275	22013
886.4	22010
886.525	22036
886.65	22067
886.775	22055
886.9	22192
887.025	22390
887.149	22059
887.274	21922
887.399	21888
887.523	21800
887.648	21854
887.773	21694
887.897	22013
888.021	21842
888.146	21713
888.27	21831
888.395	21911
888.519	21679
888.643	21956
888.767	22059
888.891	21781
889.015	21599
889.139	21759
889.263	21682
889.387	21739
889.511	21915
889.635	21739
889.759	21583
889.883	21671
890.006	21671
890.13	21648
890.254	21675
890.377	21610
890.501	21405
890.624	21397
890.748	21397
890.871	21230
890.995	21192
891.118	21096
891.241	21169
891.364	21169
891.488	21272
891.611	21203
891.734	21260
891.857	21218
891.98	21230
892.103	21321
892.226	21256
892.349	21161
892.471	21100
892.594	21188
892.717	21226
892.839	21028
892.962	21222
893.085	21157
893.207	21093
893.33	21066
893.452	21142
893.575	21104
893.697	21093
893.819	21184
893.941	21291
894.064	21199
894.186	21058
894.308	21036
894.43	21169
894.552	21195
894.674	21085
894.796	20967
894.918	21135
895.04	21051
895.161	21100
895.283	21112
895.405	21020
895.526	21028
895.648	21058
895.769	21131
895.891	21104
896.012	21264
896.134	21195
896.255	21249
896.376	20975
896.498	21127
896.619	21093
896.74	21051
896.861	21055
896.982	21370
897.103	21603
897.224	21294
897.345	21218
897.466	21214
897.587	21283
897.708	21431
897.828	21272
897.949	21275
898.07	21154
898.19	21180
898.311	21401
898.431	21192
898.552	21150
898.672	21195
898.792	21359
898.913	21233
899.033	21150
899.153	21157
899.273	20956
899.393	21013
899.513	21173
899.633	21032
899.753	20967
899.873	20933
899.993	21020
900.113	20853
900.232	21112
900.352	21009
900.472	20853
900.591	20849
900.711	20815
900.83	20727
900.95	20815
901.069	20906
901.189	20541
901.308	20469
901.427	20339
901.546	20199
901.665	20317
901.784	20240
901.904	20233
902.023	20069
902.141	19921
902.26	19875
902.379	19982
902.498	19788
902.617	19761
902.735	19928
902.854	19826
902.973	19761
903.091	19616
903.21	19457
903.328	19388
903.446	19392
903.565	19301
903.683	19289
903.801	19175
903.919	19263
904.038	19320
904.156	19053
904.274	19190
904.392	19023
904.51	18970
904.627	18970
904.745	19034
904.863	19110
904.981	18829
905.098	18650
905.216	18760
905.334	18749
905.451	18772
905.569	18722
905.686	18684
905.803	18730
905.921	18479
906.038	18517
906.155	18502
906.272	18410
906.389	18483
906.506	18224
906.623	18258
906.74	18216
906.857	18015
906.974	18144
907.091	18323
907.208	18323
907.324	18247
907.441	18079
907.557	17927
907.674	17961
907.79	17946
907.907	17878
908.023	17916
908.139	17931
908.256	17912
908.372	17824
908.488	17745
908.604	17741
908.72	17611
908.836	17695
908.952	17634
909.068	17748
909.184	17771
909.3	17581
909.415	17779
909.531	17585
909.647	17490
909.762	17444
909.878	17337
909.993	17421
910.108	17284
910.224	17280
910.339	17376
910.454	17341
910.57	17174
910.685	17113
910.8	17398
910.915	17315
911.03	17124
911.145	17006
911.259	16961
911.374	16927
911.489	16869
911.604	16908
911.718	16675
911.833	16736
911.947	16523
912.062	16565
912.176	16596
912.291	16622
912.405	16713
912.519	16881
912.633	16881
912.748	16801
912.862	16561
912.976	16577
913.09	16478
913.204	16478
913.318	16489
913.431	16603
913.545	16626
913.659	16607
913.772	16451
913.886	16341
914	16265
914.113	16352
914.226	16409
914.34	16386
914.453	16207
914.566	16371
914.68	16272
914.793	16143
914.906	15994
915.019	15873
915.132	15876
915.245	15865
915.358	15987
915.47	15888
915.583	15857
915.696	15899
915.809	16002
915.921	15968
916.034	15800
916.146	15778
916.259	15793
916.371	15850
916.483	15713
916.595	15755
916.708	15759
916.82	15644
916.932	15663
917.044	15644
917.156	15580
917.268	15580
917.38	15401
917.491	15485
917.603	15549
917.715	15648
917.826	15603
917.938	15397
918.049	15351
918.161	15435
918.272	15542
918.384	15526
918.495	15321
918.606	15218
918.717	15233
918.828	15298
918.939	15306
919.05	15325
919.161	15119
919.272	15001
919.383	15127
919.494	15321
919.604	15450
919.715	15230
919.826	15138
919.936	15173
920.047	15218
920.157	15127
920.267	15332
920.378	15203
920.488	15161
920.598	15359
920.708	15428
920.818	15310
920.928	15291
921.038	15439
921.148	15435
921.258	15154
921.368	15017
921.477	14861
921.587	14857
921.697	14777
921.806	14891
921.916	14720
922.025	14560
922.134	14465
922.244	14541
922.353	14610
922.462	14438
922.571	14294
922.68	14263
922.789	14138
922.898	14161
923.007	14081
923.116	14267
923.224	14149
923.333	14145
923.442	14054
923.55	13955
923.659	14081
923.767	14145
923.876	14039
923.984	13993
924.092	13883
924.201	13928
924.309	13864
924.417	13883
924.525	13871
924.633	13913
924.741	14785
924.849	13616
924.956	13807
925.064	13578
925.172	13445
925.279	13518
925.387	13575
925.494	13582
925.602	13742
925.709	13628
925.816	13502
925.924	13502
926.031	13636
926.138	13472
926.245	13499
926.352	13411
926.459	13605
926.566	13548
926.673	13407
926.779	13362
926.886	13247
926.993	13187
927.099	13175
927.206	13034
927.312	13057
927.419	13133
927.525	13065
927.631	13122
927.737	13015
927.843	12989
927.95	12913
928.056	12928
928.162	12935
928.267	12913
928.373	13464
928.479	12932
928.585	12749
928.69	12935
928.796	12943
928.901	12768
929.007	12604
929.112	12779
929.218	12738
929.323	12642
929.428	12635
929.533	12719
929.638	12585
929.743	12620
929.848	12570
929.953	12566
930.058	12456
930.163	12251
930.267	12315
930.372	12456
930.477	12258
930.581	12536
930.685	12365
930.79	12144
930.894	12270
930.998	12091
931.103	12376
931.207	11988
931.311	11821
931.415	11805
931.519	11589
931.623	11554
