Data from test_V78500241_3169.txt Node
Date: Fri Mar 25 16:03:45 CST 2022
User: usil
Spectrometer: V785-0024
Trigger mode: 0
Integration Time (sec): 4.000000E-1
Scans to average: 1
Nonlinearity correction enabled: false
Boxcar width: 0
Storing dark spectrum: false
XAxis mode: Wavelengths
Number of Pixels in Spectrum: 1024
>>>>>Begin Spectral Data<<<<<
801.071	28759
801.214	28706
801.356	28550
801.499	28519
801.641	28314
801.783	28379
801.926	28325
802.068	28356
802.211	28166
802.353	28253
802.496	28044
802.638	28036
802.78	28036
802.923	27869
803.065	27895
803.208	27914
803.35	27987
803.492	28128
803.635	28196
803.777	28131
803.919	28257
804.061	28535
804.204	28265
804.346	28067
804.488	28120
804.63	28257
804.773	28086
804.915	28120
805.057	28314
805.199	28185
805.341	28257
805.483	28413
805.626	28413
805.768	28280
805.91	28466
806.052	28341
806.194	28261
806.336	28615
806.478	28367
806.62	28371
806.762	28523
806.904	28767
807.046	29098
807.188	28816
807.33	28938
807.472	29018
807.614	28713
807.756	28915
807.898	28778
808.04	28466
808.182	28622
808.324	28664
808.465	28885
808.607	28885
808.749	29239
808.891	29136
809.033	29318
809.174	29223
809.316	29006
809.458	28980
809.6	28972
809.741	29121
809.883	29170
810.025	29414
810.166	29337
810.308	29391
810.45	29375
810.591	29239
810.733	29208
810.875	29124
811.016	29109
811.158	29041
811.299	29277
811.441	29395
811.582	29231
811.724	29113
811.865	29132
812.007	29178
812.148	29132
812.29	29185
812.431	29307
812.573	29509
812.714	29554
812.855	29649
812.997	29695
813.138	29786
813.279	29695
813.421	29573
813.562	29531
813.703	29395
813.845	29299
813.986	29071
814.127	28919
814.268	28782
814.41	28812
814.551	28938
814.692	28923
814.833	28831
814.974	28752
815.115	28797
815.256	28790
815.397	28649
815.539	28748
815.68	28615
815.821	28698
815.962	28504
816.103	28656
816.244	28466
816.385	28318
816.526	28322
816.666	28162
816.807	28154
816.948	28230
817.089	28253
817.23	28109
817.371	28181
817.512	28082
817.653	28109
817.793	28051
817.934	28120
818.075	28128
818.216	28219
818.356	28032
818.497	28021
818.638	27857
818.778	27823
818.919	27964
819.06	27960
819.2	28074
819.341	28249
819.481	28120
819.622	28162
819.762	28390
819.903	28382
820.043	28379
820.184	28329
820.324	28143
820.465	28185
820.605	28325
820.746	28341
820.886	28207
821.026	28238
821.167	28219
821.307	28181
821.447	28173
821.588	28093
821.728	27892
821.868	27698
822.008	27774
822.149	27538
822.289	27648
822.429	27481
822.569	27367
822.709	27374
822.849	27192
822.99	27264
823.13	27199
823.27	27013
823.41	26937
823.55	26937
823.69	27070
823.83	26823
823.97	26834
824.11	26716
824.25	26811
824.389	26853
824.529	26842
824.669	26842
824.809	26979
824.949	26773
825.089	26914
825.228	26872
825.368	26568
825.508	26530
825.648	26750
825.787	26678
825.927	26754
826.067	26552
826.206	26549
826.346	26762
826.485	26765
826.625	26701
826.765	26686
826.904	26872
827.044	26415
827.183	26423
827.323	26290
827.462	26644
827.601	26355
827.741	26404
827.88	26514
828.02	26358
828.159	26389
828.298	26355
828.437	26476
828.577	26336
828.716	26473
828.855	26214
828.994	26130
829.134	26088
829.273	26240
829.412	26046
829.551	26001
829.69	26103
829.829	26161
829.968	26237
830.107	26191
830.246	26008
830.385	25970
830.524	26043
830.663	25833
830.802	25708
830.941	25674
831.08	25597
831.219	25704
831.357	25628
831.496	25750
831.635	25780
831.774	25624
831.913	25537
832.051	25510
832.19	25468
832.329	25453
832.467	25403
832.606	25335
832.744	25362
832.883	25346
833.022	25343
833.16	25419
833.299	25449
833.437	25362
833.576	25343
833.714	25411
833.852	25483
833.991	25460
834.129	25502
834.267	25567
834.406	25422
834.544	25400
834.682	25384
834.821	25365
834.959	25479
835.097	25251
835.235	25586
835.373	25381
835.511	25293
835.65	25244
835.788	25369
835.926	25213
836.064	25065
836.202	25065
836.34	25350
836.478	25396
836.615	25194
836.753	25202
836.891	25202
837.029	25251
837.167	25129
837.305	25190
837.443	25099
837.58	25042
837.718	25118
837.856	25148
837.993	24996
838.131	25042
838.269	24935
838.406	24973
838.544	24935
838.681	24677
838.819	24654
838.956	24433
839.094	24570
839.231	24661
839.369	24700
839.506	24905
839.643	24802
839.781	24517
839.918	24441
840.055	24467
840.193	24540
840.33	24426
840.467	24437
840.604	24654
840.742	24661
840.879	24334
841.016	24315
841.153	24357
841.29	24464
841.427	24403
841.564	24441
841.701	24517
841.838	24418
841.975	24254
842.112	24323
842.249	24209
842.385	24144
842.522	24429
842.659	24148
842.796	24182
842.933	24296
843.069	24026
843.206	24125
843.343	24292
843.479	24277
843.616	24159
843.752	24076
843.889	24091
844.025	24114
844.162	23897
844.298	24171
844.435	23999
844.571	24022
844.708	23984
844.844	24133
844.98	24072
845.117	24030
845.253	23923
845.389	23809
845.525	23885
845.661	23859
845.798	23695
845.934	23779
846.07	23634
846.206	23661
846.342	23745
846.478	23589
846.614	23406
846.75	23318
846.886	23524
847.022	23543
847.158	23379
847.294	23474
847.429	23562
847.565	23315
847.701	23512
847.837	23216
847.972	23102
848.108	23136
848.244	23193
848.379	23037
848.515	23090
848.65	22968
848.786	22968
848.921	23048
849.057	23155
849.192	22972
849.328	22980
849.463	23041
849.598	22927
849.734	22889
849.869	22892
850.004	22877
850.14	22782
850.275	22790
850.41	22744
850.545	22626
850.68	22698
850.815	22896
850.95	22752
851.085	22923
851.22	22938
851.355	22889
851.49	22752
851.625	22774
851.76	22850
851.895	22713
852.03	22649
852.165	22812
852.299	22774
852.434	22980
852.569	22729
852.703	22767
852.838	22828
852.973	22790
853.107	22767
853.242	22755
853.376	22679
853.511	22432
853.645	22577
853.78	22729
853.914	22603
854.048	22497
854.183	22493
854.317	22596
854.451	22774
854.585	22660
854.72	22565
854.854	22588
854.988	22417
855.122	22740
855.256	22500
855.39	22565
855.524	22626
855.658	22565
855.792	22519
855.926	22535
856.06	22611
856.194	22618
856.327	22485
856.461	22573
856.595	22523
856.729	22550
856.862	22752
856.996	22592
857.13	22637
857.263	22744
857.397	22710
857.53	22645
857.664	22687
857.797	22630
857.931	22538
858.064	22641
858.197	22664
858.331	22656
858.464	22493
858.597	22550
858.731	22542
858.864	22459
858.997	22618
859.13	22519
859.263	22611
859.396	22698
859.529	22577
859.662	22371
859.795	22622
859.928	22569
860.061	22771
860.194	22706
860.327	22641
860.46	22577
860.592	22675
860.725	22740
860.858	22660
860.99	22588
861.123	22550
861.256	22599
861.388	22546
861.521	23303
861.653	22322
861.786	22405
861.918	22322
862.05	22516
862.183	22470
862.315	22523
862.447	22542
862.58	22424
862.712	22329
862.844	22261
862.976	22344
863.108	22386
863.24	22672
863.372	22226
863.504	22284
863.636	22246
863.768	22352
863.9	22421
864.032	22367
864.164	22196
864.296	22291
864.428	22382
864.559	22363
864.691	22417
864.823	22402
864.954	22230
865.086	22356
865.217	22234
865.349	22124
865.48	22086
865.612	22158
865.743	22158
865.875	22234
866.006	22211
866.137	22219
866.269	22272
866.4	22196
866.531	22093
866.662	22025
866.793	22010
866.924	22082
867.055	22101
867.186	22128
867.317	22150
867.448	22086
867.579	22021
867.71	22059
867.841	22070
867.972	22070
868.103	22120
868.233	22112
868.364	22101
868.495	22181
868.625	22344
868.756	22382
868.886	22246
869.017	22310
869.147	22447
869.278	22386
869.408	22382
869.539	22318
869.669	22443
869.799	22371
869.929	22565
870.06	22402
870.19	22782
870.32	22717
870.45	22713
870.58	22733
870.71	22858
870.84	22786
870.97	22771
871.1	22694
871.23	22915
871.36	22968
871.489	22961
871.619	22930
871.749	23006
871.879	22900
872.008	23067
872.138	22790
872.267	22980
872.397	22850
872.526	22744
872.656	22873
872.785	22847
872.915	22976
873.044	23048
873.173	22889
873.303	23041
873.432	22965
873.561	22980
873.69	23003
873.819	22984
873.948	23014
874.077	22900
874.206	22934
874.335	22820
874.464	22984
874.593	23280
874.722	23109
874.851	23075
874.979	23204
875.108	23265
875.237	23064
875.365	22984
875.494	23193
875.623	23265
875.751	23166
875.88	23231
876.008	23254
876.136	23261
876.265	23478
876.393	23752
876.521	23600
876.65	23710
876.778	23646
876.906	23604
877.034	23585
877.162	23611
877.29	23410
877.418	23516
877.546	23539
877.674	23573
877.802	23539
877.93	23547
878.058	23493
878.185	23387
878.313	23425
878.441	23455
878.568	23345
878.696	23512
878.824	23566
878.951	23444
879.079	23726
879.206	23855
879.333	23638
879.461	23615
879.588	23516
879.715	23581
879.842	23748
879.97	23501
880.097	23448
880.224	23254
880.351	23353
880.478	23398
880.605	23200
880.732	23364
880.859	23547
880.986	23330
881.112	23356
881.239	23212
881.366	23105
881.493	22930
881.619	22885
881.746	22847
881.872	22911
881.999	22900
882.125	22797
882.252	22980
882.378	22885
882.505	22968
882.631	22767
882.757	22668
882.883	22565
883.01	22603
883.136	22554
883.262	22443
883.388	22333
883.514	22531
883.64	22557
883.766	22432
883.892	22363
884.018	22318
884.143	22489
884.269	22440
884.395	22276
884.52	22173
884.646	22112
884.772	22070
884.897	22097
885.023	22268
885.148	22318
885.274	22402
885.399	22322
885.524	22226
885.65	22318
885.775	22120
885.9	22169
886.025	22200
886.15	22166
886.275	22101
886.4	22143
886.525	22078
886.65	22074
886.775	22086
886.9	22238
887.025	22333
887.149	22051
887.274	21922
887.399	21918
887.523	21800
887.648	21854
887.773	21827
887.897	21960
888.021	22006
888.146	21899
888.27	21998
888.395	22135
888.519	21918
888.643	21960
888.767	22070
888.891	21903
889.015	21884
889.139	21789
889.263	21759
889.387	21854
889.511	22010
889.635	21770
889.759	21778
889.883	21724
890.006	21819
890.13	21907
890.254	21667
890.377	21759
890.501	21538
890.624	21462
890.748	21526
890.871	21325
890.995	21237
891.118	21260
891.241	21310
891.364	21291
891.488	21458
891.611	21317
891.734	21173
891.857	21344
891.98	21321
892.103	21214
892.226	21313
892.349	21169
892.471	20998
892.594	21370
892.717	21211
892.839	21173
892.962	21184
893.085	21306
893.207	21161
893.33	21104
893.452	21058
893.575	21237
893.697	21123
893.819	21321
893.941	21287
894.064	21245
894.186	21203
894.308	21070
894.43	21192
894.552	21374
894.674	21245
894.796	21093
894.918	21199
895.04	21131
895.161	21180
895.283	21154
895.405	21047
895.526	21165
895.648	21066
895.769	21081
895.891	21096
896.012	21252
896.134	21199
896.255	21154
896.376	21203
896.498	21184
896.619	21058
896.74	21321
896.861	21176
896.982	21424
897.103	21496
897.224	21485
897.345	21450
897.466	21291
897.587	21313
897.708	21416
897.828	21416
897.949	21131
898.07	21218
898.19	21233
898.311	21443
898.431	21264
898.552	21344
898.672	21450
898.792	21431
898.913	21256
899.033	21374
899.153	21058
899.273	21085
899.393	21074
899.513	20944
899.633	21089
899.753	21142
899.873	21043
899.993	21066
900.113	20937
900.232	20963
900.352	20971
900.472	20899
900.591	20811
900.711	20952
900.83	20781
900.95	20902
901.069	20956
901.189	20693
901.308	20362
901.427	20393
901.546	20431
901.665	20526
901.784	20492
901.904	20294
902.023	20103
902.141	19898
902.26	19871
902.379	20039
902.498	19974
902.617	19963
902.735	19902
902.854	19883
902.973	19845
903.091	19655
903.21	19624
903.328	19510
903.446	19407
903.565	19430
903.683	19441
903.801	19183
903.919	19308
904.038	19293
904.156	19190
904.274	19126
904.392	19148
904.51	19183
904.627	18989
904.745	19187
904.863	19122
904.981	18996
905.098	18810
905.216	18863
905.334	18844
905.451	18814
905.569	18814
905.686	18798
905.803	18795
905.921	18677
906.038	18692
906.155	18585
906.272	18452
906.389	18494
906.506	18369
906.623	18323
906.74	18270
906.857	18152
906.974	18232
907.091	18414
907.208	18532
907.324	18357
907.441	18220
907.557	18106
907.674	17996
907.79	17980
907.907	18030
908.023	18011
908.139	18019
908.256	17988
908.372	17942
908.488	17912
908.604	17798
908.72	17623
908.836	17775
908.952	17657
909.068	17672
909.184	17767
909.3	17760
909.415	17790
909.531	17726
909.647	17478
909.762	17471
909.878	17459
909.993	17429
910.108	17356
910.224	17429
910.339	17406
910.454	17280
910.57	17216
910.685	17250
910.8	17414
910.915	17334
911.03	17269
911.145	16999
911.259	17041
911.374	17117
911.489	16862
911.604	16885
911.718	16786
911.833	16828
911.947	16664
912.062	16698
912.176	16782
912.291	16755
912.405	16774
912.519	16972
912.633	16900
912.748	16782
912.862	16660
912.976	16618
913.09	16561
913.204	16618
913.318	16611
913.431	16653
913.545	16615
913.659	16736
913.772	16497
913.886	16462
914	16325
914.113	16329
914.226	16527
914.34	16322
914.453	16257
914.566	16367
914.68	16276
914.793	16219
914.906	16032
915.019	15953
915.132	15964
915.245	15991
915.358	15964
915.47	15949
915.583	15926
915.696	15945
915.809	16086
915.921	16044
916.034	15854
916.146	15865
916.259	15816
916.371	15873
916.483	15819
916.595	15789
916.708	15789
916.82	15804
916.932	15694
917.044	15747
917.156	15618
917.268	15610
917.38	15572
917.491	15477
917.603	15473
917.715	15618
917.826	15591
917.938	15511
918.049	15473
918.161	15576
918.272	15614
918.384	15629
918.495	15500
918.606	15329
918.717	15275
918.828	15329
918.939	15370
919.05	15112
919.161	15283
919.272	15135
919.383	15180
919.494	15241
919.604	15431
919.715	15291
919.826	15169
919.936	15203
920.047	15386
920.157	15184
920.267	15458
920.378	15272
920.488	15237
920.598	15374
920.708	15557
920.818	15207
920.928	15340
921.038	15553
921.148	15481
921.258	15135
921.368	15024
921.477	15112
921.587	14933
921.697	14861
921.806	15001
921.916	14838
922.025	14651
922.134	14663
922.244	14655
922.353	14629
922.462	14427
922.571	14480
922.68	14294
922.789	14252
922.898	14252
923.007	14027
923.116	14305
923.224	14206
923.333	14130
923.442	14012
923.55	14062
923.659	14191
923.767	14199
923.876	13928
923.984	14115
924.092	13970
924.201	13951
924.309	13951
924.417	14008
924.525	13864
924.633	13830
924.741	14682
924.849	13700
924.956	13799
925.064	13613
925.172	13559
925.279	13537
925.387	13715
925.494	13533
925.602	13689
925.709	13647
925.816	13396
925.924	13495
926.031	13643
926.138	13567
926.245	13628
926.352	13468
926.459	13472
926.566	13525
926.673	13365
926.779	13384
926.886	13384
926.993	13164
927.099	13126
927.206	13038
927.312	13133
927.419	13194
927.525	13266
927.631	13179
927.737	13027
927.843	12859
927.95	12989
928.056	12954
928.162	13004
928.267	13019
928.373	13518
928.479	13042
928.585	12783
928.69	12829
928.796	12962
928.901	12875
929.007	12650
929.112	12924
929.218	12779
929.323	12692
929.428	12631
929.533	12859
929.638	12654
929.743	12620
929.848	12635
929.953	12604
930.058	12502
930.163	12304
930.267	12311
930.372	12509
930.477	12327
930.581	12532
930.685	12350
930.79	12140
930.894	12277
930.998	12144
931.103	12376
931.207	11992
931.311	11939
931.415	11809
931.519	11608
931.623	11653
