Data from test_V78500241_3272.txt Node
Date: Fri Mar 25 16:04:28 CST 2022
User: usil
Spectrometer: V785-0024
Trigger mode: 0
Integration Time (sec): 4.000000E-1
Scans to average: 1
Nonlinearity correction enabled: false
Boxcar width: 0
Storing dark spectrum: false
XAxis mode: Wavelengths
Number of Pixels in Spectrum: 1024
>>>>>Begin Spectral Data<<<<<
801.071	28474
801.214	28451
801.356	28150
801.499	28124
801.641	28097
801.783	28154
801.926	28074
802.068	28017
802.211	27979
802.353	27941
802.496	27865
802.638	27831
802.78	27610
802.923	27679
803.065	27652
803.208	27652
803.35	27709
803.492	27876
803.635	27949
803.777	27873
803.919	27937
804.061	28162
804.204	28006
804.346	27789
804.488	27880
804.63	27953
804.773	27857
804.915	27987
805.057	28101
805.199	27907
805.341	28116
805.483	27892
805.626	28036
805.768	28055
805.91	28070
806.052	28143
806.194	27987
806.336	28253
806.478	28029
806.62	28128
806.762	28154
806.904	28481
807.046	28580
807.188	28580
807.33	28500
807.472	28592
807.614	28455
807.756	28451
807.898	28413
808.04	28287
808.182	28382
808.324	28379
808.465	28413
808.607	28542
808.749	28858
808.891	28896
809.033	28946
809.174	29041
809.316	28755
809.458	28748
809.6	28797
809.741	28877
809.883	28934
810.025	29041
810.166	28942
810.308	29083
810.45	28934
810.591	29022
810.733	28965
810.875	28805
811.016	28702
811.158	28752
811.299	28957
811.441	29006
811.582	29060
811.724	28850
811.865	28828
812.007	28713
812.148	28835
812.29	28843
812.431	29003
812.573	29204
812.714	29178
812.855	29398
812.997	29360
813.138	29486
813.279	29277
813.421	29459
813.562	29250
813.703	29223
813.845	28991
813.986	28588
814.127	28603
814.268	28580
814.41	28588
814.551	28523
814.692	28508
814.833	28428
814.974	28497
815.115	28569
815.256	28497
815.397	28443
815.539	28451
815.68	28325
815.821	28150
815.962	28257
816.103	28348
816.244	28284
816.385	28097
816.526	28139
816.666	27926
816.807	27914
816.948	27793
817.089	27987
817.23	27831
817.371	27838
817.512	27865
817.653	27823
817.793	27797
817.934	27800
818.075	27732
818.216	27800
818.356	27766
818.497	27732
818.638	27656
818.778	27599
818.919	27622
819.06	27675
819.2	27698
819.341	27785
819.481	27770
819.622	27998
819.762	28143
819.903	28158
820.043	27998
820.184	28006
820.324	27930
820.465	28048
820.605	28051
820.746	27903
820.886	27759
821.026	27899
821.167	27945
821.307	27987
821.447	27907
821.588	27804
821.728	27652
821.868	27443
822.008	27211
822.149	27260
822.289	27283
822.429	27085
822.569	26937
822.709	26998
822.849	26838
822.99	26785
823.13	26830
823.27	26689
823.41	26564
823.55	26571
823.69	26598
823.83	26594
823.97	26514
824.11	26503
824.25	26446
824.389	26533
824.529	26522
824.669	26427
824.809	26545
824.949	26389
825.089	26575
825.228	26530
825.368	26278
825.508	26381
825.648	26434
825.787	26339
825.927	26419
826.067	26286
826.206	26408
826.346	26396
826.485	26389
826.625	26305
826.765	26492
826.904	26286
827.044	26149
827.183	26153
827.323	26088
827.462	26111
827.601	26199
827.741	26149
827.88	26054
828.02	26043
828.159	26244
828.298	26058
828.437	26111
828.577	25978
828.716	26195
828.855	25993
828.994	25830
829.134	25765
829.273	25982
829.412	25772
829.551	25616
829.69	25837
829.829	25849
829.968	25913
830.107	25807
830.246	25704
830.385	25864
830.524	25552
830.663	25479
830.802	25365
830.941	25308
831.08	25411
831.219	25419
831.357	25388
831.496	25609
831.635	25384
831.774	25373
831.913	25187
832.051	25080
832.19	25084
832.329	25129
832.467	25076
832.606	25065
832.744	25065
832.883	25107
833.022	25023
833.16	25000
833.299	25202
833.437	25107
833.576	25141
833.714	25118
833.852	25137
833.991	25263
834.129	25244
834.267	25160
834.406	25194
834.544	25179
834.682	25141
834.821	25183
834.959	25327
835.097	25042
835.235	25236
835.373	25221
835.511	25084
835.65	24992
835.788	25031
835.926	24795
836.064	24928
836.202	24829
836.34	24909
836.478	24905
836.615	24863
836.753	24973
836.891	25004
837.029	24890
837.167	24939
837.305	24802
837.443	24776
837.58	24757
837.718	24867
837.856	24684
837.993	24684
838.131	24760
838.269	24574
838.406	24749
838.544	24540
838.681	24395
838.819	24429
838.956	24190
839.094	24273
839.231	24388
839.369	24388
839.506	24639
839.643	24490
839.781	24228
839.918	24148
840.055	24289
840.193	24182
840.33	24174
840.467	24068
840.604	24190
840.742	24380
840.879	24068
841.016	24197
841.153	24003
841.29	24182
841.427	24136
841.564	24117
841.701	24022
841.838	24095
841.975	23999
842.112	24072
842.249	23809
842.385	23973
842.522	24106
842.659	23935
842.796	23870
842.933	24057
843.069	23840
843.206	23920
843.343	23965
843.479	23863
843.616	23961
843.752	23779
843.889	23726
844.025	23874
844.162	23680
844.298	23691
844.435	23760
844.571	23554
844.708	23638
844.844	23874
844.98	23786
845.117	23752
845.253	23745
845.389	23535
845.525	23615
845.661	23509
845.798	23395
845.934	23573
846.07	23425
846.206	23448
846.342	23604
846.478	23395
846.614	23299
846.75	23136
846.886	23033
847.022	23204
847.158	23174
847.294	23098
847.429	23098
847.565	23155
847.701	23273
847.837	22911
847.972	22862
848.108	22889
848.244	23033
848.379	22729
848.515	22805
848.65	22744
848.786	22588
848.921	22725
849.057	22759
849.192	22812
849.328	22824
849.463	22702
849.598	22675
849.734	22710
849.869	22596
850.004	22489
850.14	22440
850.275	22561
850.41	22272
850.545	22379
850.68	22447
850.815	22497
850.95	22542
851.085	22637
851.22	22607
851.355	22637
851.49	22428
851.625	22500
851.76	22363
851.895	22390
852.03	22557
852.165	22451
852.299	22584
852.434	22493
852.569	22459
852.703	22535
852.838	22493
852.973	22542
853.107	22588
853.242	22546
853.376	22303
853.511	22158
853.645	22268
853.78	22508
853.914	22337
854.048	22154
854.183	22329
854.317	22322
854.451	22504
854.585	22268
854.72	22246
854.854	22344
854.988	22242
855.122	22333
855.256	22150
855.39	22325
855.524	22344
855.658	22337
855.792	22341
855.926	22276
856.06	22409
856.194	22367
856.327	22234
856.461	22295
856.595	22299
856.729	22268
856.862	22466
856.996	22375
857.13	22360
857.263	22462
857.397	22375
857.53	22356
857.664	22291
857.797	22386
857.931	22386
858.064	22284
858.197	22447
858.331	22204
858.464	22287
858.597	22105
858.731	22234
858.864	22287
858.997	22265
859.13	22344
859.263	22428
859.396	22421
859.529	22325
859.662	22211
859.795	22249
859.928	22249
860.061	22382
860.194	22538
860.327	22291
860.46	22310
860.592	22371
860.725	22527
860.858	22287
860.99	22230
861.123	22291
861.256	22169
861.388	22169
861.521	22923
861.653	22192
861.786	22109
861.918	22196
862.05	22188
862.183	22177
862.315	22162
862.447	22280
862.58	22131
862.712	21968
862.844	21899
862.976	22010
863.108	22059
863.24	22367
863.372	21972
863.504	22048
863.636	22109
863.768	22048
863.9	22036
864.032	21953
864.164	22051
864.296	21964
864.428	21964
864.559	22059
864.691	22109
864.823	22090
864.954	21998
865.086	21960
865.217	21880
865.349	21785
865.48	21930
865.612	21979
865.743	22040
865.875	21972
866.006	21975
866.137	21930
866.269	21960
866.4	21835
866.531	21831
866.662	21850
866.793	21953
866.924	21838
867.055	21850
867.186	21895
867.317	21808
867.448	21705
867.579	21797
867.71	21690
867.841	21724
867.972	21835
868.103	21762
868.233	21850
868.364	21915
868.495	21918
868.625	22116
868.756	22105
868.886	21994
869.017	21964
869.147	22082
869.278	22166
869.408	22074
869.539	22093
869.669	22139
869.799	22006
869.929	22382
870.06	22025
870.19	22443
870.32	22322
870.45	22402
870.58	22519
870.71	22508
870.84	22512
870.97	22459
871.1	22440
871.23	22645
871.36	22664
871.489	22531
871.619	22554
871.749	22550
871.879	22805
872.008	22733
872.138	22660
872.267	22641
872.397	22550
872.526	22470
872.656	22409
872.785	22531
872.915	22691
873.044	22809
873.173	22656
873.303	22694
873.432	22744
873.561	22862
873.69	22694
873.819	22713
873.948	22869
874.077	22713
874.206	22630
874.335	22641
874.464	22801
874.593	22885
874.722	22797
874.851	22957
874.979	22908
875.108	22972
875.237	22816
875.365	22774
875.494	22946
875.623	22934
875.751	22824
875.88	22839
876.008	23048
876.136	23155
876.265	23265
876.393	23376
876.521	23455
876.65	23315
876.778	23208
876.906	23223
877.034	23250
877.162	23155
877.29	23170
877.418	23181
877.546	23231
877.674	23227
877.802	23227
877.93	23326
878.058	23231
878.185	23098
878.313	23109
878.441	23227
878.568	23033
878.696	23193
878.824	23303
878.951	23391
879.079	23379
879.206	23589
879.333	23440
879.461	23246
879.588	23387
879.715	23360
879.842	23512
879.97	23311
880.097	23117
880.224	23136
880.351	23022
880.478	23151
880.605	22942
880.732	22919
880.859	23288
880.986	22953
881.112	23178
881.239	22877
881.366	22752
881.493	22774
881.619	22710
881.746	22577
881.872	22679
881.999	22615
882.125	22443
882.252	22603
882.378	22584
882.505	22622
882.631	22417
882.757	22398
882.883	22363
883.01	22356
883.136	22318
883.262	22238
883.388	22154
883.514	22337
883.64	22402
883.766	22196
883.892	22063
884.018	22082
884.143	22185
884.269	22394
884.395	22074
884.52	21953
884.646	21888
884.772	21937
884.897	21831
885.023	21987
885.148	22010
885.274	22025
885.399	22036
885.524	22010
885.65	22013
885.775	21975
885.9	21991
886.025	22109
886.15	21930
886.275	21892
886.4	21846
886.525	21850
886.65	21797
886.775	21934
886.9	21949
887.025	22067
887.149	21857
887.274	21808
887.399	21610
887.523	21614
887.648	21652
887.773	21648
887.897	21717
888.021	21641
888.146	21625
888.27	21751
888.395	21888
888.519	21720
888.643	21663
888.767	21576
888.891	21610
889.015	21382
889.139	21644
889.263	21515
889.387	21701
889.511	21671
889.635	21629
889.759	21363
889.883	21500
890.006	21447
890.13	21500
890.254	21351
890.377	21435
890.501	21245
890.624	21157
890.748	21275
890.871	21192
890.995	21074
891.118	21077
891.241	20998
891.364	20986
891.488	21260
891.611	21047
891.734	21108
891.857	20967
891.98	21089
892.103	21180
892.226	20975
892.349	21024
892.471	20811
892.594	21005
892.717	20864
892.839	20914
892.962	21013
893.085	20883
893.207	20956
893.33	20811
893.452	20815
893.575	20937
893.697	20811
893.819	21096
893.941	21085
894.064	20967
894.186	20880
894.308	20861
894.43	21001
894.552	21077
894.674	21001
894.796	20788
894.918	20918
895.04	20929
895.161	20967
895.283	20842
895.405	20887
895.526	20998
895.648	20986
895.769	20971
895.891	20963
896.012	20918
896.134	20918
896.255	20929
896.376	20857
896.498	20910
896.619	20918
896.74	20944
896.861	21028
896.982	21317
897.103	21313
897.224	21233
897.345	21108
897.466	21028
897.587	21127
897.708	21431
897.828	21176
897.949	21039
898.07	21024
898.19	21089
898.311	21127
898.431	21123
898.552	21039
898.672	21123
898.792	21195
898.913	21138
899.033	20921
899.153	21036
899.273	20891
899.393	20963
899.513	20952
899.633	20925
899.753	20899
899.873	20880
899.993	20895
900.113	20842
900.232	20861
900.352	20838
900.472	20705
900.591	20621
900.711	20594
900.83	20492
900.95	20663
901.069	20609
901.189	20434
901.308	20317
901.427	20096
901.546	20130
901.665	20145
901.784	20176
901.904	20035
902.023	19963
902.141	19837
902.26	19776
902.379	19738
902.498	19670
902.617	19639
902.735	19655
902.854	19635
902.973	19525
903.091	19343
903.21	19426
903.328	19346
903.446	19194
903.565	19126
903.683	19114
903.801	19031
903.919	19156
904.038	19084
904.156	18916
904.274	19015
904.392	18913
904.51	18852
904.627	18958
904.745	18837
904.863	18970
904.981	18620
905.098	18540
905.216	18620
905.334	18551
905.451	18498
905.569	18589
905.686	18582
905.803	18559
905.921	18300
906.038	18410
906.155	18323
906.272	18277
906.389	18235
906.506	18205
906.623	18133
906.74	18041
906.857	18060
906.974	17950
907.091	18216
907.208	18140
907.324	18064
907.441	18083
907.557	17923
907.674	17847
907.79	17794
907.907	17775
908.023	17866
908.139	17855
908.256	17699
908.372	17684
908.488	17642
908.604	17661
908.72	17532
908.836	17577
908.952	17600
909.068	17600
909.184	17589
909.3	17551
909.415	17623
909.531	17627
909.647	17261
909.762	17265
909.878	17197
909.993	17273
910.108	17197
910.224	17231
910.339	17208
910.454	17094
910.57	17094
910.685	16957
910.8	17246
910.915	17109
911.03	17079
911.145	16881
911.259	16771
911.374	16866
911.489	16691
911.604	16717
911.718	16554
911.833	16611
911.947	16405
912.062	16421
912.176	16558
912.291	16546
912.405	16546
912.519	16740
912.633	16740
912.748	16485
912.862	16550
912.976	16413
913.09	16291
913.204	16314
913.318	16402
913.431	16436
913.545	16386
913.659	16478
913.772	16257
913.886	16265
914	16188
914.113	16124
914.226	16337
914.34	16253
914.453	15998
914.566	16169
914.68	16032
914.793	15899
914.906	15804
915.019	15831
915.132	15732
915.245	15797
915.358	15720
915.47	15759
915.583	15724
915.696	15743
915.809	15854
915.921	15835
916.034	15667
916.146	15701
916.259	15599
916.371	15709
916.483	15694
916.595	15591
916.708	15606
916.82	15584
916.932	15599
917.044	15538
917.156	15386
917.268	15416
917.38	15424
917.491	15431
917.603	15363
917.715	15428
917.826	15450
917.938	15268
918.049	15291
918.161	15370
918.272	15462
918.384	15408
918.495	15245
918.606	15104
918.717	15161
918.828	15138
918.939	15142
919.05	15070
919.161	15017
919.272	14902
919.383	15001
919.494	15180
919.604	15386
919.715	15055
919.826	14925
919.936	15077
920.047	15055
920.157	15017
920.267	15260
920.378	15039
920.488	15058
920.598	15230
920.708	15401
920.818	15272
920.928	15184
921.038	15344
921.148	15294
921.258	15085
921.368	14902
921.477	14701
921.587	14853
921.697	14564
921.806	14750
921.916	14602
922.025	14556
922.134	14358
922.244	14385
922.353	14438
922.462	14339
922.571	14396
922.68	14092
922.789	14065
922.898	14065
923.007	14046
923.116	14024
923.224	14016
923.333	14020
923.442	13887
923.55	13970
923.659	13970
923.767	14081
923.876	13822
923.984	13936
924.092	13830
924.201	13875
924.309	13841
924.417	13753
924.525	13715
924.633	13734
924.741	14556
924.849	13643
924.956	13666
925.064	13457
925.172	13400
925.279	13449
925.387	13563
925.494	13438
925.602	13609
925.709	13472
925.816	13384
925.924	13354
926.031	13487
926.138	13358
926.245	13396
926.352	13343
926.459	13499
926.566	13453
926.673	13285
926.779	13263
926.886	13183
926.993	13084
927.099	12966
927.206	13038
927.312	12928
927.419	13012
927.525	12951
927.631	12970
927.737	12806
927.843	12852
927.95	12757
928.056	12757
928.162	12764
928.267	12871
928.373	13308
928.479	12909
928.585	12544
928.69	12734
928.796	12741
928.901	12688
929.007	12498
929.112	12677
929.218	12658
929.323	12551
929.428	12475
929.533	12631
929.638	12517
929.743	12433
929.848	12612
929.953	12445
930.058	12380
930.163	12197
930.267	12247
930.372	12460
930.477	12277
930.581	12342
930.685	12209
930.79	12038
930.894	12140
930.998	12026
931.103	12235
931.207	11843
931.311	11798
931.415	11592
931.519	11478
931.623	11471
