Data from test_V78500241_1292.txt Node
Date: Fri Mar 25 15:50:45 CST 2022
User: usil
Spectrometer: V785-0024
Trigger mode: 0
Integration Time (sec): 4.000000E-1
Scans to average: 1
Nonlinearity correction enabled: false
Boxcar width: 0
Storing dark spectrum: false
XAxis mode: Wavelengths
Number of Pixels in Spectrum: 1024
>>>>>Begin Spectral Data<<<<<
801.071	28337
801.214	28249
801.356	28082
801.499	27987
801.641	27918
801.783	27857
801.926	27831
802.068	27873
802.211	27660
802.353	27774
802.496	27724
802.638	27481
802.78	27462
802.923	27393
803.065	27431
803.208	27416
803.35	27454
803.492	27694
803.635	27583
803.777	27610
803.919	27774
804.061	28082
804.204	27831
804.346	27709
804.488	27682
804.63	27781
804.773	27629
804.915	27789
805.057	27861
805.199	27701
805.341	27930
805.483	27854
805.626	28048
805.768	27629
805.91	28021
806.052	27953
806.194	27880
806.336	27998
806.478	27934
806.62	27972
806.762	27975
806.904	28207
807.046	28470
807.188	28306
807.33	28310
807.472	28314
807.614	28154
807.756	28280
807.898	28261
808.04	28226
808.182	28128
808.324	28090
808.465	28257
808.607	28516
808.749	28626
808.891	28691
809.033	28744
809.174	28672
809.316	28607
809.458	28481
809.6	28546
809.741	28607
809.883	28774
810.025	28995
810.166	28839
810.308	28782
810.45	28759
810.591	28675
810.733	28664
810.875	28405
811.016	28409
811.158	28379
811.299	28573
811.441	28687
811.582	28850
811.724	28588
811.865	28474
812.007	28523
812.148	28588
812.29	28497
812.431	28664
812.573	28869
812.714	28999
812.855	28980
812.997	29151
813.138	29303
813.279	29239
813.421	29109
813.562	28972
813.703	28900
813.845	28790
813.986	28580
814.127	28310
814.268	28143
814.41	28249
814.551	28333
814.692	28329
814.833	28280
814.974	28181
815.115	28470
815.256	28253
815.397	28207
815.539	28124
815.68	28025
815.821	27850
815.962	28006
816.103	28166
816.244	28059
816.385	27903
816.526	27797
816.666	27743
816.807	27629
816.948	27728
817.089	27663
817.23	27690
817.371	27561
817.512	27439
817.653	27656
817.793	27416
817.934	27507
818.075	27553
818.216	27629
818.356	27416
818.497	27450
818.638	27454
818.778	27393
818.919	27260
819.06	27378
819.2	27492
819.341	27641
819.481	27652
819.622	27679
819.762	27865
819.903	27831
820.043	27743
820.184	27774
820.324	27534
820.465	27812
820.605	27633
820.746	27671
820.886	27561
821.026	27713
821.167	27698
821.307	27922
821.447	27633
821.588	27625
821.728	27447
821.868	27165
822.008	27085
822.149	27135
822.289	27104
822.429	26674
822.569	26667
822.709	26792
822.849	26583
822.99	26560
823.13	26351
823.27	26549
823.41	26514
823.55	26347
823.69	26522
823.83	26355
823.97	26469
824.11	26263
824.25	26168
824.389	26210
824.529	26366
824.669	26096
824.809	26282
824.949	26237
825.089	26320
825.228	26225
825.368	26039
825.508	26058
825.648	26172
825.787	25993
825.927	26187
826.067	26043
826.206	25966
826.346	26142
826.485	26320
826.625	26016
826.765	26252
826.904	26153
827.044	25879
827.183	25795
827.323	25651
827.462	25814
827.601	25868
827.741	25803
827.88	25890
828.02	25677
828.159	25757
828.298	25769
828.437	25871
828.577	25689
828.716	25837
828.855	25613
828.994	25499
829.134	25453
829.273	25468
829.412	25525
829.551	25388
829.69	25468
829.829	25479
829.968	25521
830.107	25445
830.246	25479
830.385	25354
830.524	25392
830.663	25343
830.802	25168
830.941	25137
831.08	24985
831.219	25183
831.357	25217
831.496	25285
831.635	25091
831.774	25088
831.913	24985
832.051	24871
832.19	24852
832.329	24928
832.467	24707
832.606	24837
832.744	24760
832.883	24787
833.022	24791
833.16	24749
833.299	24772
833.437	24795
833.576	24791
833.714	24791
833.852	24802
833.991	24859
834.129	24897
834.267	24992
834.406	24829
834.544	24981
834.682	24814
834.821	24745
834.959	24890
835.097	24802
835.235	24825
835.373	24783
835.511	24791
835.65	24700
835.788	24669
835.926	24612
836.064	24528
836.202	24471
836.34	24612
836.478	24673
836.615	24544
836.753	24677
836.891	24608
837.029	24829
837.167	24570
837.305	24566
837.443	24559
837.58	24372
837.718	24505
837.856	24460
837.993	24388
838.131	24566
838.269	24365
838.406	24311
838.544	24266
838.681	24144
838.819	24087
838.956	23897
839.094	23927
839.231	24064
839.369	24209
839.506	24353
839.643	24209
839.781	23855
839.918	23927
840.055	23942
840.193	23893
840.33	23840
840.467	23805
840.604	23866
840.742	24110
840.879	23745
841.016	23619
841.153	23832
841.29	23942
841.427	23775
841.564	23878
841.701	23817
841.838	23817
841.975	23695
842.112	23817
842.249	23733
842.385	23661
842.522	23836
842.659	23672
842.796	23653
842.933	23661
843.069	23600
843.206	23497
843.343	23661
843.479	23623
843.616	23581
843.752	23486
843.889	23436
844.025	23520
844.162	23440
844.298	23520
844.435	23452
844.571	23337
844.708	23337
844.844	23543
844.98	23444
845.117	23493
845.253	23273
845.389	23277
845.525	23303
845.661	23261
845.798	23098
845.934	23136
846.07	23178
846.206	23254
846.342	23216
846.478	23060
846.614	22896
846.75	22828
846.886	22820
847.022	22896
847.158	22934
847.294	22790
847.429	22919
847.565	22774
847.701	23090
847.837	22618
847.972	22512
848.108	22596
848.244	22698
848.379	22459
848.515	22481
848.65	22306
848.786	22417
848.921	22455
849.057	22481
849.192	22538
849.328	22527
849.463	22462
849.598	22440
849.734	22409
849.869	22375
850.004	22215
850.14	22150
850.275	22116
850.41	22109
850.545	22131
850.68	22169
850.815	22272
850.95	22200
851.085	22291
851.22	22261
851.355	22215
851.49	22177
851.625	22234
851.76	22188
851.895	22105
852.03	22105
852.165	22219
852.299	22166
852.434	22185
852.569	22204
852.703	22185
852.838	22238
852.973	22325
853.107	22417
853.242	22101
853.376	21998
853.511	21960
853.645	21956
853.78	22120
853.914	22013
854.048	21926
854.183	21945
854.317	22090
854.451	22070
854.585	22086
854.72	22029
854.854	22013
854.988	21972
855.122	22074
855.256	21880
855.39	22116
855.524	22044
855.658	22070
855.792	21895
855.926	21979
856.06	21979
856.194	22070
856.327	21994
856.461	21812
856.595	21945
856.729	22006
856.862	22147
856.996	22120
857.13	22181
857.263	22173
857.397	22162
857.53	22032
857.664	22082
857.797	22188
857.931	22147
858.064	22112
858.197	21983
858.331	21960
858.464	22029
858.597	21998
858.731	22021
858.864	21937
858.997	21842
859.13	22002
859.263	21949
859.396	22124
859.529	21827
859.662	21983
859.795	21899
859.928	22017
860.061	22173
860.194	22238
860.327	22002
860.46	22021
860.592	22120
860.725	22139
860.858	22131
860.99	22070
861.123	21922
861.256	22074
861.388	22090
861.521	22698
861.653	21857
861.786	21728
861.918	21770
862.05	21930
862.183	21899
862.315	21846
862.447	22021
862.58	21930
862.712	21835
862.844	21751
862.976	21770
863.108	21781
863.24	22196
863.372	21743
863.504	21709
863.636	21724
863.768	21690
863.9	21736
864.032	21557
864.164	21660
864.296	21774
864.428	21816
864.559	21793
864.691	21743
864.823	21831
864.954	21774
865.086	21698
865.217	21675
865.349	21595
865.48	21557
865.612	21606
865.743	21739
865.875	21682
866.006	21530
866.137	21762
866.269	21599
866.4	21610
866.531	21507
866.662	21644
866.793	21439
866.924	21633
867.055	21656
867.186	21538
867.317	21538
867.448	21511
867.579	21523
867.71	21526
867.841	21511
867.972	21622
868.103	21519
868.233	21553
868.364	21618
868.495	21701
868.625	21774
868.756	21823
868.886	21759
869.017	21808
869.147	21880
869.278	21880
869.408	21903
869.539	21785
869.669	21918
869.799	21941
869.929	21956
870.06	21915
870.19	22025
870.32	22090
870.45	22051
870.58	22070
870.71	22253
870.84	22310
870.97	22143
871.1	22211
871.23	22382
871.36	22375
871.489	22341
871.619	22314
871.749	22333
871.879	22421
872.008	22394
872.138	22413
872.267	22310
872.397	22207
872.526	22261
872.656	22333
872.785	22162
872.915	22333
873.044	22462
873.173	22405
873.303	22436
873.432	22459
873.561	22535
873.69	22360
873.819	22310
873.948	22402
874.077	22390
874.206	22341
874.335	22527
874.464	22398
874.593	22588
874.722	22607
874.851	22603
874.979	22755
875.108	22656
875.237	22577
875.365	22519
875.494	22523
875.623	22618
875.751	22637
875.88	22611
876.008	22771
876.136	22881
876.265	22980
876.393	23025
876.521	23083
876.65	23197
876.778	23025
876.906	22980
877.034	22923
877.162	22957
877.29	22938
877.418	22953
877.546	22957
877.674	22972
877.802	23033
877.93	22991
878.058	23029
878.185	22858
878.313	22854
878.441	23025
878.568	22744
878.696	22938
878.824	22942
878.951	23113
879.079	23098
879.206	23132
879.333	23113
879.461	23037
879.588	22980
879.715	23090
879.842	23105
879.97	23037
880.097	22786
880.224	22580
880.351	22713
880.478	22691
880.605	22725
880.732	22729
880.859	23022
880.986	22740
881.112	22687
881.239	22588
881.366	22504
881.493	22356
881.619	22485
881.746	22341
881.872	22299
881.999	22344
882.125	22356
882.252	22306
882.378	22211
882.505	22386
882.631	22177
882.757	21987
882.883	21979
883.01	21991
883.136	21907
883.262	21892
883.388	21846
883.514	22139
883.64	21968
883.766	22013
883.892	21892
884.018	21819
884.143	21941
884.269	22135
884.395	21812
884.52	21682
884.646	21743
884.772	21663
884.897	21587
885.023	21485
885.148	21819
885.274	21690
885.399	21816
885.524	21580
885.65	21587
885.775	21625
885.9	21618
886.025	21827
886.15	21793
886.275	21534
886.4	21583
886.525	21511
886.65	21610
886.775	21625
886.9	21717
887.025	21941
887.149	21545
887.274	21504
887.399	21466
887.523	21454
887.648	21431
887.773	21279
887.897	21530
888.021	21538
888.146	21249
888.27	21443
888.395	21618
888.519	21428
888.643	21526
888.767	21496
888.891	21359
889.015	21211
889.139	21401
889.263	21176
889.387	21382
889.511	21374
889.635	21355
889.759	21176
889.883	21241
890.006	21230
890.13	21359
890.254	21192
890.377	21180
890.501	20906
890.624	20861
890.748	20902
890.871	20785
890.995	20788
891.118	20769
891.241	20667
891.364	20796
891.488	20785
891.611	20838
891.734	20906
891.857	20834
891.98	20678
892.103	20792
892.226	20765
892.349	20682
892.471	20590
892.594	20686
892.717	20648
892.839	20765
892.962	20667
893.085	20682
893.207	20727
893.33	20636
893.452	20613
893.575	20655
893.697	20590
893.819	20891
893.941	20830
894.064	20838
894.186	20613
894.308	20674
894.43	20716
894.552	20830
894.674	20754
894.796	20587
894.918	20609
895.04	20594
895.161	20686
895.283	20701
895.405	20617
895.526	20590
895.648	20640
895.769	20648
895.891	20788
896.012	20727
896.134	20701
896.255	20693
896.376	20678
896.498	20590
896.619	20697
896.74	20670
896.861	20743
896.982	20956
897.103	21085
897.224	21001
897.345	20895
897.466	20838
897.587	20914
897.708	21005
897.828	20838
897.949	20743
898.07	20724
898.19	20929
898.311	21005
898.431	20819
898.552	20990
898.672	21005
898.792	20887
898.913	20823
899.033	20743
899.153	20739
899.273	20526
899.393	20617
899.513	20670
899.633	20648
899.753	20682
899.873	20549
899.993	20773
900.113	20594
900.232	20492
900.352	20454
900.472	20347
900.591	20336
900.711	20355
900.83	20377
900.95	20400
901.069	20465
901.189	20301
901.308	20073
901.427	19894
901.546	19989
901.665	19932
901.784	20005
901.904	19856
902.023	19902
902.141	19540
902.26	19544
902.379	19502
902.498	19540
902.617	19438
902.735	19384
902.854	19586
902.973	19282
903.091	19050
903.21	19198
903.328	19095
903.446	19065
903.565	19023
903.683	18894
903.801	18947
903.919	18837
904.038	18943
904.156	18665
904.274	18806
904.392	18566
904.51	18585
904.627	18681
904.745	18658
904.863	18627
904.981	18540
905.098	18266
905.216	18407
905.334	18330
905.451	18433
905.569	18399
905.686	18509
905.803	18372
905.921	18144
906.038	18205
906.155	18121
906.272	18049
906.389	18038
906.506	17969
906.623	17889
906.74	17836
906.857	17832
906.974	17866
907.091	17882
907.208	17980
907.324	17901
907.441	17733
907.557	17581
907.674	17634
907.79	17604
907.907	17653
908.023	17573
908.139	17634
908.256	17509
908.372	17539
908.488	17493
908.604	17269
908.72	17265
908.836	17322
908.952	17250
909.068	17360
909.184	17330
909.3	17303
909.415	17345
909.531	17425
909.647	17140
909.762	17029
909.878	17033
909.993	17018
910.108	16980
910.224	16953
910.339	16911
910.454	16885
910.57	16748
910.685	16805
910.8	16942
910.915	16919
911.03	16839
911.145	16649
911.259	16637
911.374	16504
911.489	16573
911.604	16512
911.718	16318
911.833	16367
911.947	16196
912.062	16166
912.176	16272
912.291	16341
912.405	16341
912.519	16512
912.633	16596
912.748	16455
912.862	16306
912.976	16276
913.09	16112
913.204	16044
913.318	16105
913.431	16295
913.545	16261
913.659	16204
913.772	16051
913.886	15994
914	15983
914.113	15994
914.226	16067
914.34	16029
914.453	15789
914.566	15895
914.68	15797
914.793	15774
914.906	15584
915.019	15584
915.132	15561
915.245	15538
915.358	15572
915.47	15519
915.583	15648
915.696	15606
915.809	15641
915.921	15652
916.034	15408
916.146	15351
916.259	15412
916.371	15477
916.483	15526
916.595	15340
916.708	15291
916.82	15382
916.932	15306
917.044	15256
917.156	15279
917.268	15230
917.38	15195
917.491	15089
917.603	15146
917.715	15283
917.826	15199
917.938	15104
918.049	15036
918.161	15009
918.272	15298
918.384	15279
918.495	15138
918.606	15001
918.717	14754
918.828	14948
918.939	14910
919.05	14853
919.161	14819
919.272	14708
919.383	14800
919.494	15009
919.604	15077
919.715	14891
919.826	14807
919.936	14815
920.047	14956
920.157	14910
920.267	15051
920.378	14864
920.488	14853
920.598	15081
920.708	15135
920.818	14990
920.928	14982
921.038	15161
921.148	15173
921.258	14781
921.368	14724
921.477	14594
921.587	14541
921.697	14450
921.806	14629
921.916	14431
922.025	14377
922.134	14214
922.244	14206
922.353	14313
922.462	14180
922.571	14035
922.68	13902
922.789	13837
922.898	13898
923.007	13887
923.116	13959
923.224	13898
923.333	13879
923.442	13746
923.55	13700
923.659	13708
923.767	13734
923.876	13704
923.984	13677
924.092	13597
924.201	13601
924.309	13639
924.417	13624
924.525	13521
924.633	13533
924.741	14526
924.849	13312
924.956	13586
925.064	13331
925.172	13251
925.279	13289
925.387	13369
925.494	13274
925.602	13388
925.709	13331
925.816	13099
925.924	13236
926.031	13365
926.138	13198
926.245	13255
926.352	13225
926.459	13228
926.566	13244
926.673	13088
926.779	13046
926.886	13023
926.993	12954
927.099	12833
927.206	12779
927.312	12779
927.419	12920
927.525	12840
927.631	12852
927.737	12700
927.843	12669
927.95	12601
928.056	12604
928.162	12711
928.267	12810
928.373	13282
928.479	12639
928.585	12608
928.69	12730
928.796	12707
928.901	12585
929.007	12410
929.112	12570
929.218	12433
929.323	12445
929.428	12452
929.533	12498
929.638	12342
929.743	12365
929.848	12346
929.953	12247
930.058	12239
930.163	12072
930.267	12026
930.372	12232
930.477	12003
930.581	12216
930.685	12152
930.79	11958
930.894	11897
930.998	11942
931.103	12053
931.207	11623
931.311	11551
931.415	11585
931.519	11364
931.623	11296
