Data from test_V78500241_3670.txt Node
Date: Fri Mar 25 16:07:13 CST 2022
User: usil
Spectrometer: V785-0024
Trigger mode: 0
Integration Time (sec): 4.000000E-1
Scans to average: 1
Nonlinearity correction enabled: false
Boxcar width: 0
Storing dark spectrum: false
XAxis mode: Wavelengths
Number of Pixels in Spectrum: 1024
>>>>>Begin Spectral Data<<<<<
801.071	28409
801.214	28348
801.356	28074
801.499	27987
801.641	27812
801.783	27892
801.926	27987
802.068	27880
802.211	27979
802.353	27800
802.496	27831
802.638	27564
802.78	27534
802.923	27545
803.065	27564
803.208	27538
803.35	27447
803.492	27876
803.635	27857
803.777	27656
803.919	27800
804.061	28150
804.204	27949
804.346	27797
804.488	27739
804.63	27778
804.773	27766
804.915	27842
805.057	28013
805.199	27842
805.341	27994
805.483	28040
805.626	27960
805.768	27937
805.91	27987
806.052	27934
806.194	27895
806.336	28154
806.478	28017
806.62	27975
806.762	28055
806.904	28200
807.046	28516
807.188	28242
807.33	28405
807.472	28512
807.614	28341
807.756	28451
807.898	28314
808.04	28188
808.182	28234
808.324	28341
808.465	28219
808.607	28424
808.749	28656
808.891	28717
809.033	28782
809.174	28653
809.316	28478
809.458	28824
809.6	28717
809.741	28774
809.883	28824
810.025	28908
810.166	29064
810.308	28953
810.45	28885
810.591	28782
810.733	28721
810.875	28672
811.016	28679
811.158	28565
811.299	28729
811.441	28706
811.582	28797
811.724	28702
811.865	28546
812.007	28797
812.148	28546
812.29	28721
812.431	28930
812.573	28995
812.714	29079
812.855	29273
812.997	29318
813.138	29433
813.279	29170
813.421	29387
813.562	29193
813.703	28911
813.845	28752
813.986	28634
814.127	28436
814.268	28390
814.41	28363
814.551	28371
814.692	28474
814.833	28303
814.974	28344
815.115	28325
815.256	28234
815.397	28306
815.539	28405
815.68	28158
815.821	28116
815.962	28185
816.103	28204
816.244	28010
816.385	27926
816.526	27911
816.666	27660
816.807	27610
816.948	27701
817.089	27945
817.23	27679
817.371	27770
817.512	27485
817.653	27652
817.793	27542
817.934	27667
818.075	27572
818.216	27728
818.356	27644
818.497	27530
818.638	27488
818.778	27534
818.919	27481
819.06	27447
819.2	27564
819.341	27610
819.481	27629
819.622	27785
819.762	28036
819.903	27972
820.043	27884
820.184	27797
820.324	27785
820.465	27884
820.605	27926
820.746	27694
820.886	27675
821.026	27892
821.167	27857
821.307	27857
821.447	27648
821.588	27564
821.728	27420
821.868	27165
822.008	27066
822.149	27237
822.289	27127
822.429	26823
822.569	26781
822.709	26979
822.849	26708
822.99	26689
823.13	26708
823.27	26667
823.41	26488
823.55	26476
823.69	26522
823.83	26457
823.97	26541
824.11	26351
824.25	26305
824.389	26267
824.529	26492
824.669	26256
824.809	26495
824.949	26480
825.089	26240
825.228	26358
825.368	26138
825.508	26024
825.648	26210
825.787	26263
825.927	26111
826.067	26191
826.206	26020
826.346	26187
826.485	26278
826.625	26180
826.765	26225
826.904	26149
827.044	26138
827.183	25940
827.323	25974
827.462	25928
827.601	25947
827.741	25845
827.88	25982
828.02	25757
828.159	25909
828.298	25902
828.437	25966
828.577	25906
828.716	25921
828.855	25685
828.994	25483
829.134	25510
829.273	25571
829.412	25559
829.551	25479
829.69	25578
829.829	25674
829.968	25681
830.107	25651
830.246	25635
830.385	25605
830.524	25518
830.663	25339
830.802	25335
830.941	25133
831.08	25046
831.219	25331
831.357	25407
831.496	25491
831.635	25202
831.774	25137
831.913	24962
832.051	24989
832.19	25057
832.329	24951
832.467	24886
832.606	24863
832.744	24738
832.883	24734
833.022	24821
833.16	24787
833.299	24920
833.437	24897
833.576	24947
833.714	24867
833.852	24909
833.991	25152
834.129	24970
834.267	25034
834.406	24791
834.544	24890
834.682	24867
834.821	24992
834.959	25046
835.097	24791
835.235	24954
835.373	24932
835.511	25000
835.65	24719
835.788	24768
835.926	24559
836.064	24578
836.202	24623
836.34	24757
836.478	24802
836.615	24791
836.753	24642
836.891	24772
837.029	24802
837.167	24578
837.305	24623
837.443	24604
837.58	24635
837.718	24749
837.856	24620
837.993	24452
838.131	24669
838.269	24498
838.406	24445
838.544	24334
838.681	24285
838.819	24281
838.956	23984
839.094	23958
839.231	24079
839.369	24346
839.506	24441
839.643	24426
839.781	24201
839.918	23996
840.055	24083
840.193	23874
840.33	23878
840.467	23954
840.604	23988
840.742	24155
840.879	23843
841.016	23885
841.153	23931
841.29	23920
841.427	24064
841.564	23980
841.701	24030
841.838	23889
841.975	23935
842.112	23958
842.249	23726
842.385	23775
842.522	23992
842.659	23737
842.796	23653
842.933	23832
843.069	23707
843.206	23714
843.343	23794
843.479	23767
843.616	23714
843.752	23615
843.889	23551
844.025	23638
844.162	23577
844.298	23577
844.435	23471
844.571	23478
844.708	23627
844.844	23714
844.98	23649
845.117	23630
845.253	23585
845.389	23387
845.525	23326
845.661	23402
845.798	23136
845.934	23296
846.07	23326
846.206	23334
846.342	23337
846.478	23280
846.614	23117
846.75	22904
846.886	23155
847.022	23014
847.158	23098
847.294	22957
847.429	23079
847.565	23033
847.701	23159
847.837	22683
847.972	22694
848.108	22835
848.244	22904
848.379	22694
848.515	22622
848.65	22550
848.786	22588
848.921	22584
849.057	22702
849.192	22656
849.328	22653
849.463	22542
849.598	22500
849.734	22455
849.869	22386
850.004	22375
850.14	22462
850.275	22318
850.41	22158
850.545	22382
850.68	22284
850.815	22360
850.95	22428
851.085	22500
851.22	22409
851.355	22386
851.49	22226
851.625	22352
851.76	22322
851.895	22158
852.03	22299
852.165	22375
852.299	22348
852.434	22474
852.569	22382
852.703	22299
852.838	22314
852.973	22440
853.107	22478
853.242	22272
853.376	22207
853.511	22017
853.645	22101
853.78	22257
853.914	22147
854.048	22200
854.183	22169
854.317	22139
854.451	22409
854.585	22128
854.72	22154
854.854	22204
854.988	22150
855.122	22249
855.256	21987
855.39	22200
855.524	22226
855.658	22257
855.792	22082
855.926	22166
856.06	22112
856.194	22337
856.327	22109
856.461	22029
856.595	22078
856.729	22025
856.862	22261
856.996	22223
857.13	22295
857.263	22337
857.397	22318
857.53	22287
857.664	22310
857.797	22276
857.931	22234
858.064	22226
858.197	22272
858.331	22150
858.464	22093
858.597	22116
858.731	22086
858.864	22150
858.997	22082
859.13	21968
859.263	22139
859.396	22158
859.529	22230
859.662	22097
859.795	22192
859.928	22109
860.061	22409
860.194	22481
860.327	22223
860.46	22280
860.592	22246
860.725	22272
860.858	22253
860.99	22090
861.123	22048
861.256	22006
861.388	22173
861.521	22892
861.653	22090
861.786	21911
861.918	21949
862.05	22124
862.183	22025
862.315	22010
862.447	22306
862.58	22185
862.712	21911
862.844	21838
862.976	22112
863.108	22059
863.24	22352
863.372	21835
863.504	21884
863.636	21930
863.768	21960
863.9	21983
864.032	21739
864.164	21964
864.296	21926
864.428	22116
864.559	21915
864.691	22032
864.823	21797
864.954	21842
865.086	21816
865.217	21804
865.349	21644
865.48	21690
865.612	21736
865.743	21926
865.875	21797
866.006	21759
866.137	21732
866.269	21739
866.4	21854
866.531	21656
866.662	21709
866.793	21644
866.924	21557
867.055	21679
867.186	21743
867.317	21660
867.448	21679
867.579	21625
867.71	21599
867.841	21576
867.972	21728
868.103	21705
868.233	21774
868.364	21679
868.495	21762
868.625	21964
868.756	21941
868.886	21873
869.017	21895
869.147	21987
869.278	21968
869.408	22036
869.539	21865
869.669	21972
869.799	21987
869.929	21975
870.06	22188
870.19	22147
870.32	22158
870.45	22276
870.58	22443
870.71	22413
870.84	22481
870.97	22344
871.1	22356
871.23	22436
871.36	22485
871.489	22409
871.619	22455
871.749	22527
871.879	22470
872.008	22683
872.138	22599
872.267	22611
872.397	22413
872.526	22230
872.656	22291
872.785	22402
872.915	22542
873.044	22622
873.173	22626
873.303	22683
873.432	22793
873.561	22645
873.69	22603
873.819	22565
873.948	22687
874.077	22546
874.206	22508
874.335	22637
874.464	22683
874.593	22759
874.722	22706
874.851	22900
874.979	22843
875.108	22812
875.237	22736
875.365	22767
875.494	22668
875.623	22809
875.751	22755
875.88	22729
876.008	22889
876.136	23048
876.265	23064
876.393	23231
876.521	23273
876.65	23159
876.778	23220
876.906	23083
877.034	23136
877.162	23143
877.29	23105
877.418	23029
877.546	23071
877.674	23151
877.802	22976
877.93	23178
878.058	23006
878.185	22892
878.313	23273
878.441	23181
878.568	23029
878.696	23029
878.824	23193
878.951	23235
879.079	23280
879.206	23455
879.333	23334
879.461	23140
879.588	23227
879.715	23254
879.842	23425
879.97	23250
880.097	22885
880.224	22923
880.351	23044
880.478	22862
880.605	23014
880.732	22953
880.859	23162
880.986	23060
881.112	22965
881.239	22778
881.366	22634
881.493	22653
881.619	22512
881.746	22470
881.872	22489
881.999	22447
882.125	22443
882.252	22565
882.378	22523
882.505	22645
882.631	22344
882.757	22223
882.883	22215
883.01	22112
883.136	22097
883.262	22078
883.388	22021
883.514	22139
883.64	22162
883.766	22150
883.892	21907
884.018	21953
884.143	22147
884.269	22090
884.395	21983
884.52	21762
884.646	21857
884.772	21743
884.897	21622
885.023	21831
885.148	21876
885.274	22055
885.399	21960
885.524	21888
885.65	21747
885.775	21850
885.9	21667
886.025	21857
886.15	21960
886.275	21705
886.4	21793
886.525	21800
886.65	21606
886.775	21755
886.9	21831
887.025	21884
887.149	21789
887.274	21580
887.399	21644
887.523	21568
887.648	21633
887.773	21504
887.897	21542
888.021	21561
888.146	21553
888.27	21629
888.395	21629
888.519	21583
888.643	21515
888.767	21690
888.891	21549
889.015	21336
889.139	21283
889.263	21310
889.387	21519
889.511	21705
889.635	21625
889.759	21408
889.883	21329
890.006	21370
890.13	21389
890.254	21393
890.377	21317
890.501	21146
890.624	21146
890.748	21131
890.871	20902
890.995	20861
891.118	20826
891.241	20876
891.364	20842
891.488	21047
891.611	21005
891.734	20990
891.857	20948
891.98	20918
892.103	20864
892.226	20929
892.349	20895
892.471	20701
892.594	20800
892.717	20876
892.839	20811
892.962	20883
893.085	20929
893.207	20826
893.33	20693
893.452	20716
893.575	20686
893.697	20857
893.819	20929
893.941	20872
894.064	20834
894.186	20651
894.308	20769
894.43	20838
894.552	20998
894.674	20845
894.796	20697
894.918	20842
895.04	20659
895.161	20823
895.283	20895
895.405	20735
895.526	20861
895.648	20689
895.769	20819
895.891	20792
896.012	20762
896.134	20838
896.255	20705
896.376	20762
896.498	20800
896.619	20800
896.74	20792
896.861	20861
896.982	21058
897.103	21321
897.224	20944
897.345	21013
897.466	20960
897.587	20994
897.708	21047
897.828	20998
897.949	20982
898.07	20902
898.19	20971
898.311	21085
898.431	20941
898.552	21005
898.672	21036
898.792	20982
898.913	20918
899.033	20819
899.153	20853
899.273	20640
899.393	20796
899.513	20785
899.633	20868
899.753	20762
899.873	20674
899.993	20549
900.113	20682
900.232	20682
900.352	20785
900.472	20594
900.591	20552
900.711	20579
900.83	20545
900.95	20602
901.069	20579
901.189	20336
901.308	20001
901.427	20027
901.546	19997
901.665	20115
901.784	20107
901.904	19978
902.023	19814
902.141	19514
902.26	19677
902.379	19601
902.498	19624
902.617	19590
902.735	19753
902.854	19575
902.973	19567
903.091	19225
903.21	19202
903.328	19221
903.446	19088
903.565	19000
903.683	19072
903.801	18871
903.919	18989
904.038	19061
904.156	18909
904.274	18890
904.392	18791
904.51	18741
904.627	18844
904.745	18897
904.863	18913
904.981	18627
905.098	18456
905.216	18471
905.334	18437
905.451	18471
905.569	18475
905.686	18574
905.803	18452
905.921	18330
906.038	18330
906.155	18334
906.272	18182
906.389	18201
906.506	18015
906.623	18030
906.74	17935
906.857	17901
906.974	17893
907.091	18121
907.208	18102
907.324	18041
907.441	17889
907.557	17710
907.674	17809
907.79	17638
907.907	17668
908.023	17764
908.139	17729
908.256	17657
908.372	17710
908.488	17543
908.604	17474
908.72	17372
908.836	17364
908.952	17406
909.068	17512
909.184	17402
909.3	17414
909.415	17478
909.531	17356
909.647	17151
909.762	17124
909.878	17071
909.993	17102
910.108	17109
910.224	17003
910.339	17185
910.454	16980
910.57	16984
910.685	16896
910.8	17029
910.915	17018
911.03	16900
911.145	16866
911.259	16843
911.374	16653
911.489	16736
911.604	16558
911.718	16462
911.833	16489
911.947	16329
912.062	16367
912.176	16504
912.291	16531
912.405	16417
912.519	16672
912.633	16561
912.748	16405
912.862	16459
912.976	16344
913.09	16158
913.204	16242
913.318	16371
913.431	16363
913.545	16363
913.659	16394
913.772	16169
913.886	16120
914	15972
914.113	16238
914.226	16154
914.34	16082
914.453	15941
914.566	16071
914.68	15964
914.793	15865
914.906	15804
915.019	15701
915.132	15644
915.245	15694
915.358	15747
915.47	15656
915.583	15648
915.696	15762
915.809	15774
915.921	15827
916.034	15629
916.146	15606
916.259	15496
916.371	15580
916.483	15682
916.595	15526
916.708	15477
916.82	15511
916.932	15492
917.044	15420
917.156	15389
917.268	15317
917.38	15439
917.491	15237
917.603	15245
917.715	15374
917.826	15351
917.938	15230
918.049	15165
918.161	15329
918.272	15420
918.384	15336
918.495	15226
918.606	15119
918.717	15013
918.828	15058
918.939	15085
919.05	15066
919.161	15154
919.272	14876
919.383	14861
919.494	15112
919.604	15245
919.715	14967
919.826	15009
919.936	15077
920.047	15176
920.157	14929
920.267	15256
920.378	15074
920.488	14963
920.598	15123
920.708	15298
920.818	15146
920.928	15302
921.038	15287
921.148	15260
921.258	14967
921.368	14880
921.477	14823
921.587	14701
921.697	14629
921.806	14731
921.916	14526
922.025	14389
922.134	14454
922.244	14351
922.353	14476
922.462	14252
922.571	14202
922.68	14020
922.789	14073
922.898	14027
923.007	13852
923.116	14077
923.224	14016
923.333	13856
923.442	13860
923.55	13883
923.659	13902
923.767	13944
923.876	13818
923.984	13818
924.092	13696
924.201	13723
924.309	13708
924.417	13746
924.525	13689
924.633	13689
924.741	14629
924.849	13540
924.956	13693
925.064	13480
925.172	13369
925.279	13392
925.387	13400
925.494	13377
925.602	13544
925.709	13449
925.816	13293
925.924	13308
926.031	13392
926.138	13407
926.245	13381
926.352	13221
926.459	13453
926.566	13381
926.673	13289
926.779	13069
926.886	13145
926.993	12962
927.099	12977
927.206	12859
927.312	12924
927.419	12966
927.525	12878
927.631	12947
927.737	12791
927.843	12814
927.95	12688
928.056	12700
928.162	12749
928.267	12878
928.373	13327
928.479	12821
928.585	12566
928.69	12669
928.796	12684
928.901	12620
929.007	12509
929.112	12635
929.218	12585
929.323	12582
929.428	12483
929.533	12593
929.638	12433
929.743	12369
929.848	12509
929.953	12346
930.058	12292
930.163	12197
930.267	12235
930.372	12323
930.477	12045
930.581	12391
930.685	12213
930.79	12026
930.894	12072
930.998	12011
931.103	12194
931.207	11866
931.311	11802
931.415	11627
931.519	11551
931.623	11512
