Data from test_V78500241_303.txt Node
Date: Fri Mar 25 15:43:54 CST 2022
User: usil
Spectrometer: V785-0024
Trigger mode: 0
Integration Time (sec): 4.000000E-1
Scans to average: 1
Nonlinearity correction enabled: false
Boxcar width: 0
Storing dark spectrum: false
XAxis mode: Wavelengths
Number of Pixels in Spectrum: 1024
>>>>>Begin Spectral Data<<<<<
801.071	28999
801.214	29003
801.356	28915
801.499	28850
801.641	28573
801.783	28580
801.926	28611
802.068	28622
802.211	28470
802.353	28432
802.496	28253
802.638	28211
802.78	28173
802.923	28204
803.065	28150
803.208	28169
803.35	28204
803.492	28367
803.635	28466
803.777	28333
803.919	28577
804.061	28721
804.204	28421
804.346	28329
804.488	28192
804.63	28318
804.773	28322
804.915	28299
805.057	28451
805.199	28409
805.341	28318
805.483	28363
805.626	28459
805.768	28409
805.91	28516
806.052	28542
806.194	28348
806.336	28736
806.478	28588
806.62	28557
806.762	28645
806.904	28847
807.046	29014
807.188	28987
807.33	28843
807.472	28938
807.614	28771
807.756	28729
807.898	28721
808.04	28668
808.182	28725
808.324	28687
808.465	28816
808.607	28759
808.749	29029
808.891	29086
809.033	29174
809.174	29086
809.316	29098
809.458	29170
809.6	29010
809.741	29159
809.883	29105
810.025	29455
810.166	29277
810.308	29360
810.45	29398
810.591	29212
810.733	29113
810.875	28839
811.016	29060
811.158	28896
811.299	29140
811.441	29303
811.582	29178
811.724	29044
811.865	28904
812.007	28957
812.148	29056
812.29	29075
812.431	29109
812.573	29269
812.714	29551
812.855	29570
812.997	29642
813.138	29710
813.279	29600
813.421	29497
813.562	29486
813.703	29318
813.845	29318
813.986	28869
814.127	28736
814.268	28820
814.41	28641
814.551	28664
814.692	28656
814.833	28538
814.974	28584
815.115	28588
815.256	28546
815.397	28466
815.539	28504
815.68	28485
815.821	28390
815.962	28474
816.103	28291
816.244	28265
816.385	28200
816.526	28143
816.666	28074
816.807	27892
816.948	27922
817.089	27983
817.23	27827
817.371	27968
817.512	27907
817.653	27736
817.793	27869
817.934	28029
818.075	27869
818.216	27899
818.356	27800
818.497	27698
818.638	27690
818.778	27583
818.919	27595
819.06	27622
819.2	27720
819.341	27819
819.481	27831
819.622	28021
819.762	28173
819.903	28154
820.043	27968
820.184	27991
820.324	27884
820.465	27975
820.605	27953
820.746	27972
820.886	27892
821.026	27918
821.167	27709
821.307	27945
821.447	27934
821.588	27709
821.728	27625
821.868	27412
822.008	27302
822.149	27279
822.289	27233
822.429	27001
822.569	27123
822.709	27043
822.849	26716
822.99	26815
823.13	26807
823.27	26678
823.41	26499
823.55	26446
823.69	26503
823.83	26663
823.97	26640
824.11	26442
824.25	26457
824.389	26347
824.529	26457
824.669	26427
824.809	26469
824.949	26469
825.089	26450
825.228	26431
825.368	26115
825.508	26267
825.648	26138
825.787	26256
825.927	26301
826.067	26240
826.206	26248
826.346	26138
826.485	26282
826.625	26164
826.765	26263
826.904	26161
827.044	25932
827.183	26020
827.323	25879
827.462	25887
827.601	25871
827.741	25993
827.88	25822
828.02	25674
828.159	25868
828.298	25890
828.437	25871
828.577	25791
828.716	25928
828.855	25784
828.994	25681
829.134	25559
829.273	25613
829.412	25533
829.551	25521
829.69	25563
829.829	25506
829.968	25712
830.107	25567
830.246	25632
830.385	25514
830.524	25293
830.663	25282
830.802	25259
830.941	25278
831.08	25126
831.219	25221
831.357	25194
831.496	25316
831.635	25072
831.774	25015
831.913	25004
832.051	25050
832.19	24802
832.329	24741
832.467	24730
832.606	24768
832.744	24764
832.883	24817
833.022	24779
833.16	24681
833.299	24909
833.437	24696
833.576	24840
833.714	24848
833.852	24783
833.991	24875
834.129	24947
834.267	25015
834.406	24924
834.544	24821
834.682	24837
834.821	24753
834.959	25012
835.097	24719
835.235	24745
835.373	24753
835.511	24821
835.65	24574
835.788	24521
835.926	24612
836.064	24448
836.202	24418
836.34	24570
836.478	24631
836.615	24536
836.753	24650
836.891	24859
837.029	24711
837.167	24498
837.305	24563
837.443	24505
837.58	24372
837.718	24642
837.856	24410
837.993	24369
838.131	24502
838.269	24262
838.406	24380
838.544	24235
838.681	24079
838.819	23961
838.956	23927
839.094	23756
839.231	23954
839.369	24049
839.506	24171
839.643	24232
839.781	23893
839.918	23767
840.055	23771
840.193	23866
840.33	23794
840.467	23783
840.604	23790
840.742	23988
840.879	23798
841.016	23680
841.153	23627
841.29	23954
841.427	23737
841.564	23897
841.701	23783
841.838	23638
841.975	23619
842.112	23809
842.249	23623
842.385	23497
842.522	23737
842.659	23554
842.796	23410
842.933	23520
843.069	23410
843.206	23360
843.343	23535
843.479	23463
843.616	23356
843.752	23273
843.889	23170
844.025	23509
844.162	23124
844.298	23322
844.435	23181
844.571	23231
844.708	23250
844.844	23330
844.98	23235
845.117	23235
845.253	23197
845.389	23086
845.525	23071
845.661	23052
845.798	23022
845.934	22965
846.07	22923
846.206	23075
846.342	23048
846.478	23029
846.614	22763
846.75	22611
846.886	22611
847.022	22630
847.158	22683
847.294	22580
847.429	22717
847.565	22622
847.701	22812
847.837	22253
847.972	22443
848.108	22428
848.244	22417
848.379	22333
848.515	22329
848.65	22306
848.786	22200
848.921	22238
849.057	22295
849.192	22360
849.328	22325
849.463	22276
849.598	22162
849.734	22204
849.869	22116
850.004	21926
850.14	22010
850.275	22036
850.41	21968
850.545	21991
850.68	21888
850.815	22086
850.95	21941
851.085	22143
851.22	22029
851.355	22021
851.49	21911
851.625	21854
851.76	22025
851.895	21789
852.03	21987
852.165	21850
852.299	22097
852.434	22078
852.569	22025
852.703	22021
852.838	21979
852.973	21991
853.107	22105
853.242	21956
853.376	21759
853.511	21701
853.645	21690
853.78	21831
853.914	21762
854.048	21797
854.183	21625
854.317	21797
854.451	21960
854.585	21660
854.72	21641
854.854	21751
854.988	21701
855.122	21713
855.256	21682
855.39	21766
855.524	21850
855.658	21747
855.792	21835
855.926	21717
856.06	21724
856.194	21793
856.327	21827
856.461	21667
856.595	21701
856.729	21709
856.862	21983
856.996	21789
857.13	21751
857.263	21865
857.397	21736
857.53	21667
857.664	21789
857.797	21804
857.931	21903
858.064	21781
858.197	21766
858.331	21660
858.464	21656
858.597	21488
858.731	21682
858.864	21660
858.997	21625
859.13	21770
859.263	21671
859.396	21941
859.529	21728
859.662	21682
859.795	21698
859.928	21701
860.061	21774
860.194	21838
860.327	21747
860.46	21720
860.592	21831
860.725	21907
860.858	21842
860.99	21736
861.123	21614
861.256	21530
861.388	21736
861.521	22386
861.653	21523
861.786	21564
861.918	21606
862.05	21679
862.183	21652
862.315	21770
862.447	21713
862.58	21667
862.712	21466
862.844	21370
862.976	21553
863.108	21431
863.24	21831
863.372	21195
863.504	21291
863.636	21332
863.768	21408
863.9	21420
864.032	21454
864.164	21359
864.296	21367
864.428	21511
864.559	21428
864.691	21515
864.823	21408
864.954	21458
865.086	21408
865.217	21393
865.349	21226
865.48	21214
865.612	21287
865.743	21405
865.875	21302
866.006	21207
866.137	21279
866.269	21321
866.4	21192
866.531	21211
866.662	21279
866.793	21184
866.924	21214
867.055	21287
867.186	21329
867.317	21218
867.448	21066
867.579	21169
867.71	21093
867.841	21142
867.972	21169
868.103	21218
868.233	21241
868.364	21252
868.495	21294
868.625	21401
868.756	21454
868.886	21439
869.017	21447
869.147	21622
869.278	21614
869.408	21393
869.539	21443
869.669	21523
869.799	21504
869.929	21641
870.06	21477
870.19	21720
870.32	21751
870.45	21751
870.58	21778
870.71	21964
870.84	21835
870.97	21766
871.1	21774
871.23	21953
871.36	22055
871.489	21846
871.619	22002
871.749	21953
871.879	21930
872.008	22196
872.138	22185
872.267	22044
872.397	21983
872.526	21865
872.656	21915
872.785	21816
872.915	22070
873.044	22128
873.173	22048
873.303	22067
873.432	22086
873.561	22097
873.69	22059
873.819	22082
873.948	22078
874.077	22063
874.206	22139
874.335	22070
874.464	22246
874.593	22276
874.722	22234
874.851	22200
874.979	22402
875.108	22394
875.237	22207
875.365	22143
875.494	22280
875.623	22325
875.751	22261
875.88	22322
876.008	22447
876.136	22481
876.265	22481
876.393	22767
876.521	22797
876.65	22782
876.778	22744
876.906	22634
877.034	22561
877.162	22691
877.29	22592
877.418	22675
877.546	22694
877.674	22599
877.802	22538
877.93	22679
878.058	22546
878.185	22531
878.313	22611
878.441	22683
878.568	22402
878.696	22706
878.824	22618
878.951	22763
879.079	22790
879.206	22946
879.333	22702
879.461	22710
879.588	22774
879.715	22755
879.842	22991
879.97	22649
880.097	22580
880.224	22481
880.351	22459
880.478	22440
880.605	22428
880.732	22481
880.859	22664
880.986	22519
881.112	22497
881.239	22219
881.366	22280
881.493	22128
881.619	22112
881.746	22055
881.872	21994
881.999	21972
882.125	21899
882.252	22051
882.378	22029
882.505	22070
882.631	21979
882.757	21854
882.883	21873
883.01	21823
883.136	21816
883.262	21667
883.388	21523
883.514	21717
883.64	21770
883.766	21614
883.892	21469
884.018	21549
884.143	21603
884.269	21701
884.395	21530
884.52	21348
884.646	21279
884.772	21332
884.897	21192
885.023	21355
885.148	21500
885.274	21576
885.399	21469
885.524	21272
885.65	21378
885.775	21256
885.9	21355
886.025	21545
886.15	21473
886.275	21306
886.4	21321
886.525	21382
886.65	21287
886.775	21428
886.9	21564
887.025	21462
887.149	21222
887.274	21192
887.399	21077
887.523	21077
887.648	21066
887.773	21150
887.897	21279
888.021	21176
888.146	21081
888.27	21157
888.395	21332
888.519	21085
888.643	21085
888.767	21157
888.891	21112
889.015	20899
889.139	21005
889.263	20925
889.387	20929
889.511	21184
889.635	21100
889.759	20815
889.883	20880
890.006	20868
890.13	21005
890.254	20674
890.377	20773
890.501	20807
890.624	20739
890.748	20792
890.871	20575
890.995	20476
891.118	20438
891.241	20514
891.364	20446
891.488	20590
891.611	20549
891.734	20571
891.857	20488
891.98	20530
892.103	20503
892.226	20400
892.349	20434
892.471	20336
892.594	20454
892.717	20446
892.839	20400
892.962	20396
893.085	20442
893.207	20412
893.33	20374
893.452	20263
893.575	20488
893.697	20400
893.819	20568
893.941	20678
894.064	20556
894.186	20320
894.308	20305
894.43	20495
894.552	20590
894.674	20533
894.796	20362
894.918	20347
895.04	20355
895.161	20446
895.283	20457
895.405	20419
895.526	20343
895.648	20374
895.769	20545
895.891	20473
896.012	20503
896.134	20370
896.255	20454
896.376	20450
896.498	20480
896.619	20560
896.74	20442
896.861	20530
896.982	20708
897.103	20785
897.224	20731
897.345	20678
897.466	20708
897.587	20678
897.708	20743
897.828	20697
897.949	20579
898.07	20374
898.19	20552
898.311	20670
898.431	20537
898.552	20648
898.672	20693
898.792	20602
898.913	20629
899.033	20530
899.153	20377
899.273	20271
899.393	20298
899.513	20381
899.633	20351
899.753	20317
899.873	20244
899.993	20309
900.113	20214
900.232	20271
900.352	20275
900.472	20111
900.591	20062
900.711	20149
900.83	19932
900.95	20278
901.069	20176
901.189	19932
901.308	19769
901.427	19738
901.546	19609
901.665	19799
901.784	19628
901.904	19491
902.023	19491
902.141	19346
902.26	19266
902.379	19270
902.498	19225
902.617	19263
902.735	19171
902.854	19187
902.973	19095
903.091	18848
903.21	18844
903.328	18791
903.446	18661
903.565	18798
903.683	18715
903.801	18544
903.919	18498
904.038	18612
904.156	18330
904.274	18479
904.392	18467
904.51	18399
904.627	18460
904.745	18502
904.863	18521
904.981	18216
905.098	18087
905.216	18102
905.334	18136
905.451	18117
905.569	18003
905.686	18095
905.803	18117
905.921	17920
906.038	17843
906.155	17863
906.272	17741
906.389	17737
906.506	17570
906.623	17687
906.74	17528
906.857	17592
906.974	17486
907.091	17653
907.208	17767
907.324	17710
907.441	17414
907.557	17345
907.674	17303
907.79	17204
907.907	17208
908.023	17307
908.139	17356
908.256	17326
908.372	17246
908.488	17185
908.604	17052
908.72	17014
908.836	16946
908.952	16991
909.068	17033
909.184	17045
909.3	17067
909.415	16946
909.531	17003
909.647	16710
909.762	16835
909.878	16683
909.993	16729
910.108	16645
910.224	16687
910.339	16683
910.454	16550
910.57	16497
910.685	16451
910.8	16694
910.915	16573
911.03	16470
911.145	16371
911.259	16318
911.374	16402
911.489	16272
911.604	16192
911.718	15960
911.833	16071
911.947	16002
912.062	15934
912.176	16063
912.291	16063
912.405	15918
912.519	16363
912.633	16162
912.748	16101
912.862	15956
912.976	15899
913.09	15599
913.204	15789
913.318	15774
913.431	15888
913.545	15793
913.659	15941
913.772	15743
913.886	15641
914	15641
914.113	15717
914.226	15724
914.34	15667
914.453	15507
914.566	15675
914.68	15519
914.793	15477
914.906	15310
915.019	15211
915.132	15237
915.245	15218
915.358	15317
915.47	15165
915.583	15260
915.696	15279
915.809	15397
915.921	15317
916.034	15074
916.146	15195
916.259	15024
916.371	15252
916.483	15104
916.595	15001
916.708	15081
916.82	14910
916.932	15100
917.044	14944
917.156	14891
917.268	14975
917.38	14941
917.491	14823
917.603	14872
917.715	14925
917.826	15032
917.938	14746
918.049	14686
918.161	14834
918.272	14952
918.384	14842
918.495	14716
918.606	14644
918.717	14545
918.828	14556
918.939	14606
919.05	14537
919.161	14560
919.272	14415
919.383	14499
919.494	14655
919.604	14842
919.715	14629
919.826	14564
919.936	14446
920.047	14716
920.157	14602
920.267	14735
920.378	14606
920.488	14473
920.598	14720
920.708	14769
920.818	14754
920.928	14708
921.038	14849
921.148	14819
921.258	14610
921.368	14412
921.477	14343
921.587	14309
921.697	14065
921.806	14278
921.916	14172
922.025	13974
922.134	13909
922.244	13925
922.353	13947
922.462	13845
922.571	13700
922.68	13590
922.789	13582
922.898	13620
923.007	13487
923.116	13578
923.224	13601
923.333	13556
923.442	13335
923.55	13457
923.659	13308
923.767	13365
923.876	13320
923.984	13384
924.092	13289
924.201	13396
924.309	13232
924.417	13301
924.525	13232
924.633	13152
924.741	14130
924.849	13053
924.956	13217
925.064	13038
925.172	12890
925.279	12985
925.387	13023
925.494	12958
925.602	13034
925.709	12928
925.816	12939
925.924	12962
926.031	13080
926.138	12939
926.245	13023
926.352	12798
926.459	12928
926.566	13061
926.673	12795
926.779	12684
926.886	12791
926.993	12593
927.099	12578
927.206	12460
927.312	12483
927.419	12566
927.525	12582
927.631	12589
927.737	12410
927.843	12391
927.95	12289
928.056	12304
928.162	12471
928.267	12448
928.373	13034
928.479	12445
928.585	12235
928.69	12281
928.796	12311
928.901	12194
929.007	12060
929.112	12254
929.218	12190
929.323	12144
929.428	12117
929.533	12186
929.638	12030
929.743	12076
929.848	12038
929.953	12045
930.058	11950
930.163	11836
930.267	11859
930.372	11927
930.477	11710
930.581	11973
930.685	11859
930.79	11665
930.894	11737
930.998	11653
931.103	11714
931.207	11341
931.311	11326
931.415	11166
931.519	11018
931.623	11071
