Data from test_V78500241_3256.txt Node
Date: Fri Mar 25 16:04:21 CST 2022
User: usil
Spectrometer: V785-0024
Trigger mode: 0
Integration Time (sec): 4.000000E-1
Scans to average: 1
Nonlinearity correction enabled: false
Boxcar width: 0
Storing dark spectrum: false
XAxis mode: Wavelengths
Number of Pixels in Spectrum: 1024
>>>>>Begin Spectral Data<<<<<
801.071	28850
801.214	28736
801.356	28535
801.499	28577
801.641	28371
801.783	28455
801.926	28466
802.068	28371
802.211	28398
802.353	28341
802.496	28150
802.638	28150
802.78	28090
802.923	28044
803.065	27907
803.208	28029
803.35	28097
803.492	28295
803.635	28329
803.777	28242
803.919	28451
804.061	28656
804.204	28375
804.346	28287
804.488	28348
804.63	28401
804.773	28265
804.915	28299
805.057	28565
805.199	28344
805.341	28428
805.483	28500
805.626	28565
805.768	28440
805.91	28504
806.052	28538
806.194	28481
806.336	28710
806.478	28577
806.62	28535
806.762	28740
806.904	28694
807.046	29098
807.188	28984
807.33	28877
807.472	29006
807.614	28850
807.756	28999
807.898	28888
808.04	28831
808.182	28694
808.324	28774
808.465	28892
808.607	29044
808.749	29254
808.891	29269
809.033	29334
809.174	29353
809.316	29181
809.458	29292
809.6	29242
809.741	29269
809.883	29349
810.025	29417
810.166	29592
810.308	29448
810.45	29425
810.591	29455
810.733	29349
810.875	29258
811.016	29227
811.158	29269
811.299	29444
811.441	29391
811.582	29429
811.724	29280
811.865	29197
812.007	29227
812.148	29212
812.29	29337
812.431	29360
812.573	29604
812.714	29718
812.855	29805
812.997	29923
813.138	29977
813.279	29885
813.421	29672
813.562	29684
813.703	29600
813.845	29493
813.986	29204
814.127	29067
814.268	29010
814.41	28858
814.551	28881
814.692	29071
814.833	28862
814.974	28934
815.115	28938
815.256	28748
815.397	28877
815.539	28854
815.68	28717
815.821	28702
815.962	28824
816.103	28839
816.244	28546
816.385	28603
816.526	28546
816.666	28318
816.807	28246
816.948	28280
817.089	28565
817.23	28303
817.371	28207
817.512	28276
817.653	28284
817.793	28185
817.934	28265
818.075	28325
818.216	28360
818.356	28211
818.497	28086
818.638	27903
818.778	28078
818.919	28040
819.06	28139
819.2	28109
819.341	28253
819.481	28253
819.622	28436
819.762	28653
819.903	28603
820.043	28306
820.184	28390
820.324	28428
820.465	28474
820.605	28462
820.746	28348
820.886	28253
821.026	28443
821.167	28356
821.307	28428
821.447	28306
821.588	28226
821.728	28105
821.868	27865
822.008	27808
822.149	27705
822.289	27808
822.429	27466
822.569	27393
822.709	27523
822.849	27332
822.99	27367
823.13	27199
823.27	27355
823.41	27154
823.55	26982
823.69	27112
823.83	27123
823.97	27119
824.11	26982
824.25	26849
824.389	26834
824.529	27013
824.669	26754
824.809	27081
824.949	27009
825.089	27070
825.228	27001
825.368	26705
825.508	26781
825.648	26716
825.787	26891
825.927	26823
826.067	26788
826.206	26819
826.346	26819
826.485	26887
826.625	26861
826.765	26960
826.904	26895
827.044	26629
827.183	26632
827.323	26530
827.462	26583
827.601	26602
827.741	26571
827.88	26606
828.02	26434
828.159	26568
828.298	26625
828.437	26686
828.577	26450
828.716	26552
828.855	26442
828.994	26172
829.134	26256
829.273	26206
829.412	26202
829.551	26126
829.69	26157
829.829	26191
829.968	26362
830.107	26267
830.246	26183
830.385	26195
830.524	26195
830.663	26172
830.802	26077
830.941	25906
831.08	25970
831.219	25795
831.357	25966
831.496	26092
831.635	25913
831.774	25544
831.913	25757
832.051	25670
832.19	25506
832.329	25537
832.467	25521
832.606	25495
832.744	25392
832.883	25502
833.022	25479
833.16	25537
833.299	25586
833.437	25635
833.576	25605
833.714	25479
833.852	25639
833.991	25681
834.129	25639
834.267	25628
834.406	25499
834.544	25597
834.682	25483
834.821	25449
834.959	25700
835.097	25578
835.235	25552
835.373	25597
835.511	25529
835.65	25384
835.788	25586
835.926	25255
836.064	25069
836.202	25114
836.34	25472
836.478	25556
836.615	25308
836.753	25506
836.891	25476
837.029	25282
837.167	25274
837.305	25274
837.443	25358
837.58	25156
837.718	25168
837.856	25263
837.993	25160
838.131	25065
838.269	25183
838.406	25042
838.544	25069
838.681	24848
838.819	24772
838.956	24722
839.094	24631
839.231	24719
839.369	24833
839.506	24943
839.643	24924
839.781	24707
839.918	24730
840.055	24612
840.193	24688
840.33	24601
840.467	24582
840.604	24681
840.742	24817
840.879	24395
841.016	24631
841.153	24559
841.29	24688
841.427	24563
841.564	24642
841.701	24578
841.838	24532
841.975	24433
842.112	24505
842.249	24327
842.385	24338
842.522	24498
842.659	24505
842.796	24361
842.933	24148
843.069	24353
843.206	24292
843.343	24448
843.479	24270
843.616	24285
843.752	24144
843.889	24125
844.025	24285
844.162	24060
844.298	24171
844.435	24076
844.571	24186
844.708	24053
844.844	24220
844.98	24239
845.117	24213
845.253	23996
845.389	23931
845.525	23863
845.661	23935
845.798	23912
845.934	23889
846.07	23752
846.206	23863
846.342	24003
846.478	23843
846.614	23558
846.75	23577
846.886	23505
847.022	23512
847.158	23611
847.294	23379
847.429	23687
847.565	23531
847.701	23676
847.837	23254
847.972	23261
848.108	23440
848.244	23387
848.379	23220
848.515	23246
848.65	23037
848.786	23212
848.921	23292
849.057	23231
849.192	23383
849.328	23318
849.463	23170
849.598	23155
849.734	22976
849.869	23014
850.004	22835
850.14	22949
850.275	22793
850.41	22790
850.545	22835
850.68	22748
850.815	23003
850.95	22797
851.085	22987
851.22	23037
851.355	22938
851.49	23003
851.625	22839
851.76	22869
851.895	22816
852.03	22858
852.165	22889
852.299	22915
852.434	22957
852.569	22862
852.703	22946
852.838	22877
852.973	22961
853.107	23212
853.242	22919
853.376	22733
853.511	22615
853.645	22702
853.78	22854
853.914	22771
854.048	22713
854.183	22656
854.317	22767
854.451	22923
854.585	22611
854.72	22733
854.854	22725
854.988	22592
855.122	22717
855.256	22801
855.39	22660
855.524	22820
855.658	22759
855.792	22687
855.926	22805
856.06	22767
856.194	22778
856.327	22596
856.461	22653
856.595	22656
856.729	22740
856.862	22748
856.996	22683
857.13	22755
857.263	22885
857.397	22729
857.53	22645
857.664	22820
857.797	22797
857.931	22771
858.064	22828
858.197	22771
858.331	22729
858.464	22645
858.597	22649
858.731	22736
858.864	22687
858.997	22637
859.13	22702
859.263	22702
859.396	22869
859.529	22660
859.662	22744
859.795	22698
859.928	22630
860.061	22740
860.194	22885
860.327	22763
860.46	22748
860.592	22919
860.725	22908
860.858	22873
860.99	22774
861.123	22622
861.256	22592
861.388	22725
861.521	23364
861.653	22531
861.786	22436
861.918	22569
862.05	22577
862.183	22672
862.315	22664
862.447	22831
862.58	22660
862.712	22478
862.844	22405
862.976	22459
863.108	22554
863.24	22911
863.372	22402
863.504	22363
863.636	22394
863.768	22459
863.9	22382
864.032	22470
864.164	22398
864.296	22447
864.428	22561
864.559	22607
864.691	22485
864.823	22542
864.954	22310
865.086	22356
865.217	22398
865.349	22090
865.48	22207
865.612	22318
865.743	22371
865.875	22204
866.006	22318
866.137	22303
866.269	22382
866.4	22333
866.531	22242
866.662	22154
866.793	22185
866.924	22215
867.055	22173
867.186	22356
867.317	22230
867.448	22135
867.579	22226
867.71	22188
867.841	22135
867.972	22207
868.103	22120
868.233	22265
868.364	22303
868.495	22329
868.625	22394
868.756	22485
868.886	22440
869.017	22455
869.147	22550
869.278	22504
869.408	22519
869.539	22424
869.669	22588
869.799	22489
869.929	22580
870.06	22584
870.19	22733
870.32	22816
870.45	22725
870.58	22984
870.71	22946
870.84	22972
870.97	22850
871.1	22885
871.23	23143
871.36	23128
871.489	23018
871.619	23033
871.749	23033
871.879	23029
872.008	23143
872.138	23220
872.267	23174
872.397	22919
872.526	22938
872.656	23052
872.785	22934
872.915	23113
873.044	22995
873.173	23098
873.303	23113
873.432	23060
873.561	23269
873.69	23235
873.819	23071
873.948	23121
874.077	23025
874.206	23071
874.335	23105
874.464	23128
874.593	23261
874.722	23307
874.851	23185
874.979	23402
875.108	23303
875.237	23227
875.365	23254
875.494	23296
875.623	23372
875.751	23311
875.88	23345
876.008	23474
876.136	23501
876.265	23729
876.393	23859
876.521	23863
876.65	23805
876.778	23665
876.906	23646
877.034	23707
877.162	23729
877.29	23615
877.418	23710
877.546	23710
877.674	23585
877.802	23642
877.93	23699
878.058	23653
878.185	23482
878.313	23570
878.441	23474
878.568	23410
878.696	23661
878.824	23737
878.951	23668
879.079	23950
879.206	23923
879.333	23779
879.461	23619
879.588	23783
879.715	23961
879.842	23828
879.97	23726
880.097	23604
880.224	23501
880.351	23467
880.478	23433
880.605	23398
880.732	23512
880.859	23615
880.986	23448
881.112	23490
881.239	23334
881.366	23311
881.493	23200
881.619	22957
881.746	23090
881.872	23113
881.999	22904
882.125	22953
882.252	23006
882.378	22896
882.505	23086
882.631	22793
882.757	22615
882.883	22767
883.01	22763
883.136	22653
883.262	22569
883.388	22447
883.514	22767
883.64	22702
883.766	22500
883.892	22516
884.018	22481
884.143	22649
884.269	22721
884.395	22375
884.52	22268
884.646	22363
884.772	22333
884.897	22166
885.023	22497
885.148	22398
885.274	22455
885.399	22466
885.524	22436
885.65	22344
885.775	22341
885.9	22379
886.025	22504
886.15	22421
886.275	22200
886.4	22192
886.525	22333
886.65	22265
886.775	22207
886.9	22390
887.025	22466
887.149	22344
887.274	22063
887.399	22219
887.523	22051
887.648	22029
887.773	22070
887.897	22067
888.021	22101
888.146	22116
888.27	22139
888.395	22188
888.519	22032
888.643	22143
888.767	22105
888.891	21968
889.015	21873
889.139	21991
889.263	21907
889.387	21987
889.511	22150
889.635	21991
889.759	21808
889.883	21751
890.006	21907
890.13	21983
890.254	21831
890.377	21751
890.501	21610
890.624	21542
890.748	21728
890.871	21344
890.995	21386
891.118	21439
891.241	21424
891.364	21511
891.488	21542
891.611	21408
891.734	21447
891.857	21401
891.98	21374
892.103	21462
892.226	21397
892.349	21283
892.471	21203
892.594	21367
892.717	21386
892.839	21336
892.962	21310
893.085	21340
893.207	21431
893.33	21188
893.452	21283
893.575	21416
893.697	21283
893.819	21443
893.941	21443
894.064	21450
894.186	21233
894.308	21150
894.43	21462
894.552	21405
894.674	21287
894.796	21154
894.918	21283
895.04	21203
895.161	21370
895.283	21329
895.405	21165
895.526	21192
895.648	21272
895.769	21249
895.891	21355
896.012	21302
896.134	21397
896.255	21306
896.376	21268
896.498	21237
896.619	21382
896.74	21405
896.861	21416
896.982	21793
897.103	21720
897.224	21564
897.345	21504
897.466	21405
897.587	21450
897.708	21526
897.828	21542
897.949	21412
898.07	21344
898.19	21386
898.311	21561
898.431	21485
898.552	21412
898.672	21466
898.792	21469
898.913	21374
899.033	21378
899.153	21199
899.273	21165
899.393	21214
899.513	21188
899.633	21184
899.753	21157
899.873	21085
899.993	21195
900.113	21070
900.232	21169
900.352	21074
900.472	21001
900.591	20929
900.711	20979
900.83	21009
900.95	21043
901.069	21070
901.189	20777
901.308	20564
901.427	20560
901.546	20598
901.665	20564
901.784	20526
901.904	20305
902.023	20389
902.141	20005
902.26	20062
902.379	20138
902.498	19982
902.617	19978
902.735	20073
902.854	19928
902.973	19909
903.091	19696
903.21	19670
903.328	19670
903.446	19571
903.565	19559
903.683	19468
903.801	19301
903.919	19297
904.038	19400
904.156	19266
904.274	19263
904.392	19282
904.51	19274
904.627	19122
904.745	19213
904.863	19240
904.981	19107
905.098	18970
905.216	18787
905.334	18981
905.451	18996
905.569	18962
905.686	18993
905.803	18833
905.921	18646
906.038	18757
906.155	18734
906.272	18604
906.389	18631
906.506	18369
906.623	18509
906.74	18384
906.857	18319
906.974	18395
907.091	18574
907.208	18422
907.324	18391
907.441	18311
907.557	18232
907.674	18182
907.79	18022
907.907	18133
908.023	17988
908.139	18114
908.256	18098
908.372	18022
908.488	17973
908.604	17942
908.72	17863
908.836	17885
908.952	17870
909.068	17931
909.184	17973
909.3	17863
909.415	17901
909.531	17912
909.647	17638
909.762	17627
909.878	17528
909.993	17528
910.108	17448
910.224	17535
910.339	17467
910.454	17429
910.57	17337
910.685	17143
910.8	17463
910.915	17551
911.03	17322
911.145	17124
911.259	17159
911.374	17155
911.489	17056
911.604	16927
911.718	16778
911.833	16908
911.947	16782
912.062	16649
912.176	16858
912.291	16873
912.405	16763
912.519	17071
912.633	17006
912.748	16866
912.862	16835
912.976	16725
913.09	16554
913.204	16675
913.318	16729
913.431	16771
913.545	16752
913.659	16816
913.772	16645
913.886	16447
914	16421
914.113	16637
914.226	16516
914.34	16421
914.453	16303
914.566	16577
914.68	16417
914.793	16284
914.906	16204
915.019	16032
915.132	15907
915.245	15873
915.358	16006
915.47	16029
915.583	15991
915.696	16051
915.809	16116
915.921	16223
916.034	15934
916.146	15991
916.259	15945
916.371	15964
916.483	15956
916.595	15842
916.708	15892
916.82	15736
916.932	15819
917.044	15736
917.156	15728
917.268	15519
917.38	15705
917.491	15629
917.603	15660
917.715	15709
917.826	15717
917.938	15622
918.049	15469
918.161	15561
918.272	15762
918.384	15625
918.495	15618
918.606	15462
918.717	15310
918.828	15325
918.939	15420
919.05	15256
919.161	15367
919.272	15199
919.383	15283
919.494	15336
919.604	15603
919.715	15386
919.826	15317
919.936	15241
920.047	15405
920.157	15233
920.267	15435
920.378	15272
920.488	15192
920.598	15557
920.708	15656
920.818	15466
920.928	15389
921.038	15614
921.148	15511
921.258	15363
921.368	15180
921.477	15036
921.587	15047
921.697	14937
921.806	15077
921.916	14838
922.025	14705
922.134	14674
922.244	14708
922.353	14773
922.462	14518
922.571	14575
922.68	14389
922.789	14320
922.898	14393
923.007	14278
923.116	14324
923.224	14263
923.333	14294
923.442	14210
923.55	14096
923.659	14096
923.767	14259
923.876	14031
923.984	14149
924.092	14050
924.201	14058
924.309	14035
924.417	14035
924.525	13955
924.633	13925
924.741	14678
924.849	13750
924.956	13811
925.064	13738
925.172	13632
925.279	13704
925.387	13677
925.494	13674
925.602	13784
925.709	13696
925.816	13548
925.924	13575
926.031	13719
926.138	13685
926.245	13636
926.352	13544
926.459	13624
926.566	13674
926.673	13563
926.779	13396
926.886	13369
926.993	13202
927.099	13274
927.206	13240
927.312	13133
927.419	13118
927.525	13225
927.631	13190
927.737	13149
927.843	13023
927.95	12996
928.056	12958
928.162	13088
928.267	13145
928.373	13571
928.479	13107
928.585	12863
928.69	12863
928.796	12958
928.901	12875
929.007	12738
929.112	12886
929.218	12894
929.323	12779
929.428	12776
929.533	12856
929.638	12696
929.743	12669
929.848	12696
929.953	12650
930.058	12570
930.163	12445
930.267	12410
930.372	12525
930.477	12323
930.581	12582
930.685	12433
930.79	12277
930.894	12292
930.998	12247
931.103	12346
931.207	12030
931.311	11855
931.415	11927
931.519	11627
931.623	11699
