Data from test_V78500241_3744.txt Node
Date: Fri Mar 25 16:07:44 CST 2022
User: usil
Spectrometer: V785-0024
Trigger mode: 0
Integration Time (sec): 4.000000E-1
Scans to average: 1
Nonlinearity correction enabled: false
Boxcar width: 0
Storing dark spectrum: false
XAxis mode: Wavelengths
Number of Pixels in Spectrum: 1024
>>>>>Begin Spectral Data<<<<<
801.071	28242
801.214	28158
801.356	27785
801.499	27945
801.641	27610
801.783	27770
801.926	27831
802.068	27747
802.211	27781
802.353	27671
802.496	27587
802.638	27519
802.78	27336
802.923	27317
803.065	27321
803.208	27336
803.35	27568
803.492	27454
803.635	27675
803.777	27580
803.919	27652
804.061	28059
804.204	27644
804.346	27477
804.488	27572
804.63	27599
804.773	27485
804.915	27736
805.057	27778
805.199	27720
805.341	27709
805.483	27911
805.626	27762
805.768	27622
805.91	27903
806.052	27914
806.194	27705
806.336	27941
806.478	27781
806.62	27774
806.762	27972
806.904	28158
807.046	28299
807.188	28287
807.33	28219
807.472	28238
807.614	28173
807.756	28276
807.898	28021
808.04	28021
808.182	28013
808.324	28025
808.465	28211
808.607	28352
808.749	28565
808.891	28607
809.033	28645
809.174	28440
809.316	28390
809.458	28535
809.6	28417
809.741	28546
809.883	28569
810.025	28687
810.166	28862
810.308	28698
810.45	28694
810.591	28557
810.733	28474
810.875	28394
811.016	28348
811.158	28516
811.299	28550
811.441	28561
811.582	28588
811.724	28497
811.865	28455
812.007	28447
812.148	28428
812.29	28474
812.431	28489
812.573	28771
812.714	28896
812.855	28995
812.997	28995
813.138	29147
813.279	29056
813.421	29003
813.562	28873
813.703	28733
813.845	28668
813.986	28500
814.127	28272
814.268	28120
814.41	28173
814.551	28116
814.692	28128
814.833	28082
814.974	28074
815.115	28246
815.256	28109
815.397	28006
815.539	27914
815.68	27998
815.821	27861
815.962	27937
816.103	28029
816.244	27823
816.385	27751
816.526	27774
816.666	27397
816.807	27469
816.948	27564
817.089	27526
817.23	27401
817.371	27393
817.512	27405
817.653	27439
817.793	27378
817.934	27386
818.075	27492
818.216	27454
818.356	27386
818.497	27241
818.638	27211
818.778	27249
818.919	27173
819.06	27165
819.2	27389
819.341	27386
819.481	27367
819.622	27469
819.762	27930
819.903	27789
820.043	27675
820.184	27568
820.324	27515
820.465	27671
820.605	27462
820.746	27675
820.886	27397
821.026	27488
821.167	27447
821.307	27496
821.447	27488
821.588	27367
821.728	27180
821.868	27036
822.008	26948
822.149	26910
822.289	26891
822.429	26655
822.569	26708
822.709	26686
822.849	26526
822.99	26366
823.13	26431
823.27	26267
823.41	26225
823.55	26290
823.69	26377
823.83	26187
823.97	26199
824.11	26088
824.25	26122
824.389	26008
824.529	26218
824.669	26126
824.809	26073
824.949	26111
825.089	26145
825.228	26115
825.368	25955
825.508	25921
825.648	26043
825.787	25860
825.927	26035
826.067	25852
826.206	25917
826.346	25966
826.485	26020
826.625	25940
826.765	26012
826.904	26122
827.044	25727
827.183	25685
827.323	25643
827.462	25746
827.601	25613
827.741	25571
827.88	25712
828.02	25563
828.159	25635
828.298	25677
828.437	25609
828.577	25464
828.716	25769
828.855	25605
828.994	25274
829.134	25377
829.273	25426
829.412	25365
829.551	25270
829.69	25350
829.829	25343
829.968	25343
830.107	25449
830.246	25263
830.385	25263
830.524	25183
830.663	25206
830.802	25137
830.941	24916
831.08	24795
831.219	24966
831.357	25019
831.496	25179
831.635	25034
831.774	24897
831.913	24920
832.051	24757
832.19	24749
832.329	24677
832.467	24700
832.606	24505
832.744	24521
832.883	24452
833.022	24426
833.16	24654
833.299	24719
833.437	24601
833.576	24795
833.714	24703
833.852	24802
833.991	24757
834.129	24700
834.267	24772
834.406	24779
834.544	24722
834.682	24650
834.821	24734
834.959	24825
835.097	24597
835.235	24593
835.373	24608
835.511	24673
835.65	24540
835.788	24578
835.926	24452
836.064	24414
836.202	24395
836.34	24627
836.478	24555
836.615	24395
836.753	24467
836.891	24521
837.029	24521
837.167	24502
837.305	24433
837.443	24452
837.58	24300
837.718	24311
837.856	24338
837.993	24350
838.131	24289
838.269	24357
838.406	24235
838.544	24258
838.681	24064
838.819	23939
838.956	23809
839.094	23885
839.231	23866
839.369	24068
839.506	24190
839.643	24102
839.781	23866
839.918	23653
840.055	23840
840.193	23729
840.33	23707
840.467	23794
840.604	23733
840.742	24041
840.879	23604
841.016	23752
841.153	23604
841.29	23843
841.427	23756
841.564	23767
841.701	23813
841.838	23661
841.975	23672
842.112	23676
842.249	23421
842.385	23474
842.522	23851
842.659	23585
842.796	23478
842.933	23505
843.069	23497
843.206	23509
843.343	23592
843.479	23630
843.616	23512
843.752	23140
843.889	23311
844.025	23478
844.162	23265
844.298	23315
844.435	23288
844.571	23246
844.708	23433
844.844	23459
844.98	23379
845.117	23482
845.253	23189
845.389	23212
845.525	23220
845.661	23235
845.798	22972
845.934	23052
846.07	23003
846.206	23178
846.342	23166
846.478	23121
846.614	22980
846.75	22702
846.886	22702
847.022	22961
847.158	22831
847.294	22691
847.429	22816
847.565	22710
847.701	22987
847.837	22569
847.972	22447
848.108	22577
848.244	22462
848.379	22398
848.515	22367
848.65	22356
848.786	22325
848.921	22421
849.057	22474
849.192	22424
849.328	22375
849.463	22306
849.598	22352
849.734	22200
849.869	22207
850.004	22128
850.14	22185
850.275	22185
850.41	22177
850.545	22078
850.68	22128
850.815	22048
850.95	22032
851.085	22192
851.22	22295
851.355	22078
851.49	22128
851.625	22093
851.76	22078
851.895	22173
852.03	22048
852.165	22112
852.299	22211
852.434	22124
852.569	22257
852.703	22116
852.838	22268
852.973	22261
853.107	22147
853.242	21983
853.376	21979
853.511	21724
853.645	21922
853.78	22063
853.914	21964
854.048	21793
854.183	21934
854.317	21945
854.451	22059
854.585	21937
854.72	22017
854.854	22078
854.988	21812
855.122	21918
855.256	21876
855.39	21937
855.524	22055
855.658	21903
855.792	21953
855.926	21865
856.06	22029
856.194	21941
856.327	21895
856.461	21968
856.595	21774
856.729	21968
856.862	22124
856.996	21892
857.13	22097
857.263	21994
857.397	22055
857.53	21949
857.664	22036
857.797	22021
857.931	22169
858.064	21941
858.197	22101
858.331	21941
858.464	21888
858.597	21884
858.731	21972
858.864	21972
858.997	21892
859.13	21987
859.263	21880
859.396	22063
859.529	21793
859.662	21915
859.795	21682
859.928	22059
860.061	22063
860.194	22124
860.327	21956
860.46	21983
860.592	21937
860.725	22055
860.858	22067
860.99	21994
861.123	21869
861.256	21899
861.388	21888
861.521	22599
861.653	21717
861.786	21717
861.918	21846
862.05	21724
862.183	21892
862.315	21869
862.447	21911
862.58	21884
862.712	21610
862.844	21660
862.976	21789
863.108	21793
863.24	22234
863.372	21568
863.504	21679
863.636	21614
863.768	21724
863.9	21576
864.032	21580
864.164	21519
864.296	21701
864.428	21755
864.559	21774
864.691	21781
864.823	21610
864.954	21652
865.086	21477
865.217	21637
865.349	21469
865.48	21564
865.612	21625
865.743	21633
865.875	21591
866.006	21397
866.137	21561
866.269	21431
866.4	21462
866.531	21420
866.662	21428
866.793	21523
866.924	21431
867.055	21545
867.186	21492
867.317	21515
867.448	21298
867.579	21542
867.71	21363
867.841	21401
867.972	21481
868.103	21526
868.233	21439
868.364	21526
868.495	21526
868.625	21625
868.756	21781
868.886	21542
869.017	21743
869.147	21774
869.278	21835
869.408	21743
869.539	21679
869.669	21774
869.799	21804
869.929	21934
870.06	21835
870.19	21960
870.32	21983
870.45	22166
870.58	22116
870.71	22116
870.84	22169
870.97	22090
871.1	22147
871.23	22185
871.36	22344
871.489	22265
871.619	22394
871.749	22322
871.879	22352
872.008	22344
872.138	22363
872.267	22291
872.397	22287
872.526	22078
872.656	22211
872.785	22032
872.915	22322
873.044	22348
873.173	22303
873.303	22306
873.432	22360
873.561	22409
873.69	22356
873.819	22344
873.948	22504
874.077	22394
874.206	22242
874.335	22344
874.464	22443
874.593	22550
874.722	22588
874.851	22554
874.979	22527
875.108	22615
875.237	22580
875.365	22386
875.494	22443
875.623	22546
875.751	22538
875.88	22618
876.008	22634
876.136	22748
876.265	22896
876.393	23079
876.521	22999
876.65	22900
876.778	22919
876.906	22915
877.034	22816
877.162	22961
877.29	22790
877.418	22885
877.546	22980
877.674	22968
877.802	22873
877.93	22866
878.058	22828
878.185	22790
878.313	22892
878.441	22850
878.568	22763
878.696	22949
878.824	22991
878.951	23018
879.079	23067
879.206	23227
879.333	23128
879.461	22812
879.588	22991
879.715	23109
879.842	23170
879.97	22877
880.097	22824
880.224	22771
880.351	22748
880.478	22771
880.605	22656
880.732	22816
880.859	22942
880.986	22664
881.112	22778
881.239	22527
881.366	22356
881.493	22424
881.619	22295
881.746	22363
881.872	22215
881.999	22272
882.125	22333
882.252	22352
882.378	22226
882.505	22402
882.631	22051
882.757	21888
882.883	22093
883.01	21983
883.136	21854
883.262	21968
883.388	21888
883.514	22025
883.64	22040
883.766	21949
883.892	21835
884.018	21895
884.143	21960
884.269	21972
884.395	21743
884.52	21542
884.646	21633
884.772	21572
884.897	21583
885.023	21591
885.148	21690
885.274	21785
885.399	21698
885.524	21663
885.65	21728
885.775	21610
885.9	21454
886.025	21652
886.15	21557
886.275	21610
886.4	21515
886.525	21595
886.65	21530
886.775	21462
886.9	21553
887.025	21838
887.149	21606
887.274	21378
887.399	21294
887.523	21496
887.648	21313
887.773	21199
887.897	21469
888.021	21378
888.146	21218
888.27	21397
888.395	21466
888.519	21450
888.643	21492
888.767	21306
888.891	21272
889.015	21211
889.139	21214
889.263	21112
889.387	21268
889.511	21367
889.635	21230
889.759	21302
889.883	21195
890.006	21032
890.13	21214
890.254	21043
890.377	21028
890.501	21055
890.624	20876
890.748	20952
890.871	20788
890.995	20727
891.118	20712
891.241	20689
891.364	20602
891.488	20849
891.611	20785
891.734	20750
891.857	20849
891.98	20758
892.103	20861
892.226	20663
892.349	20541
892.471	20457
892.594	20621
892.717	20636
892.839	20606
892.962	20686
893.085	20568
893.207	20530
893.33	20541
893.452	20598
893.575	20689
893.697	20495
893.819	20861
893.941	20750
894.064	20686
894.186	20552
894.308	20579
894.43	20651
894.552	20712
894.674	20590
894.796	20537
894.918	20568
895.04	20587
895.161	20720
895.283	20632
895.405	20537
895.526	20541
895.648	20606
895.769	20765
895.891	20651
896.012	20602
896.134	20739
896.255	20537
896.376	20545
896.498	20590
896.619	20651
896.74	20571
896.861	20640
896.982	20902
897.103	21081
897.224	20853
897.345	20739
897.466	20667
897.587	20872
897.708	20880
897.828	20800
897.949	20876
898.07	20617
898.19	20804
898.311	21009
898.431	20872
898.552	20804
898.672	20963
898.792	20899
898.913	20838
899.033	20659
899.153	20762
899.273	20495
899.393	20609
899.513	20537
899.633	20629
899.753	20724
899.873	20541
899.993	20503
900.113	20522
900.232	20518
900.352	20434
900.472	20332
900.591	20457
900.711	20396
900.83	20149
900.95	20362
901.069	20419
901.189	20275
901.308	20081
901.427	19753
901.546	19894
901.665	19894
901.784	19940
901.904	19769
902.023	19666
902.141	19487
902.26	19529
902.379	19563
902.498	19415
902.617	19487
902.735	19453
902.854	19403
902.973	19293
903.091	19145
903.21	19114
903.328	19084
903.446	18943
903.565	18951
903.683	18943
903.801	18707
903.919	18821
904.038	18779
904.156	18623
904.274	18768
904.392	18665
904.51	18673
904.627	18650
904.745	18544
904.863	18722
904.981	18464
905.098	18194
905.216	18342
905.334	18338
905.451	18380
905.569	18178
905.686	18292
905.803	18410
905.921	18095
906.038	18136
906.155	18129
906.272	18041
906.389	18060
906.506	17843
906.623	17859
906.74	17840
906.857	17665
906.974	17824
907.091	17988
907.208	17973
907.324	17901
907.441	17691
907.557	17566
907.674	17543
907.79	17402
907.907	17516
908.023	17493
908.139	17570
908.256	17535
908.372	17471
908.488	17421
908.604	17421
908.72	17303
908.836	17254
908.952	17246
909.068	17212
909.184	17421
909.3	17231
909.415	17326
909.531	17326
909.647	17075
909.762	17018
909.878	16995
909.993	17025
910.108	17003
910.224	16980
910.339	17006
910.454	16828
910.57	16759
910.685	16649
910.8	17029
910.915	16843
911.03	16698
911.145	16573
911.259	16497
911.374	16569
911.489	16512
911.604	16474
911.718	16314
911.833	16265
911.947	16128
912.062	16200
912.176	16295
912.291	16310
912.405	16337
912.519	16432
912.633	16531
912.748	16310
912.862	16280
912.976	16158
913.09	16040
913.204	16086
913.318	16074
913.431	16158
913.545	16112
913.659	16093
913.772	15960
913.886	15941
914	15937
914.113	16055
914.226	15926
914.34	15926
914.453	15720
914.566	15911
914.68	15804
914.793	15770
914.906	15564
915.019	15511
915.132	15416
915.245	15523
915.358	15477
915.47	15542
915.583	15515
915.696	15545
915.809	15557
915.921	15728
916.034	15530
916.146	15397
916.259	15431
916.371	15488
916.483	15435
916.595	15332
916.708	15378
916.82	15355
916.932	15279
917.044	15306
917.156	15264
917.268	15165
917.38	15146
917.491	15150
917.603	15123
917.715	15195
917.826	15154
917.938	15081
918.049	14944
918.161	14979
918.272	15203
918.384	15188
918.495	15116
918.606	14956
918.717	14849
918.828	14956
918.939	14891
919.05	14811
919.161	14849
919.272	14743
919.383	14678
919.494	14937
919.604	15188
919.715	14929
919.826	14765
919.936	14762
920.047	14845
920.157	14895
920.267	15047
920.378	14830
920.488	14868
920.598	15017
920.708	15173
920.818	15001
920.928	14933
921.038	15097
921.148	15039
921.258	14746
921.368	14708
921.477	14651
921.587	14503
921.697	14461
921.806	14667
921.916	14351
922.025	14305
922.134	14248
922.244	14214
922.353	14267
922.462	14100
922.571	14054
922.68	13841
922.789	13788
922.898	13917
923.007	13807
923.116	13803
923.224	13742
923.333	13875
923.442	13590
923.55	13605
923.659	13700
923.767	13696
923.876	13712
923.984	13704
924.092	13655
924.201	13559
924.309	13655
924.417	13567
924.525	13514
924.633	13552
924.741	14431
924.849	13297
924.956	13460
925.064	13312
925.172	13213
925.279	13274
925.387	13247
925.494	13304
925.602	13331
925.709	13285
925.816	13198
925.924	13266
926.031	13327
926.138	13251
926.245	13202
926.352	13099
926.459	13141
926.566	13312
926.673	13088
926.779	12973
926.886	12932
926.993	12817
927.099	12833
927.206	12783
927.312	12764
927.419	12821
927.525	12738
927.631	12878
927.737	12681
927.843	12669
927.95	12574
928.056	12696
928.162	12681
928.267	12654
928.373	13266
928.479	12703
928.585	12414
928.69	12578
928.796	12604
928.901	12445
929.007	12346
929.112	12547
929.218	12433
929.323	12456
929.428	12266
929.533	12380
929.638	12266
929.743	12304
929.848	12407
929.953	12357
930.058	12254
930.163	12053
930.267	12026
930.372	12155
930.477	11969
930.581	12273
930.685	12019
930.79	11863
930.894	11897
930.998	11859
931.103	11969
931.207	11642
931.311	11623
931.415	11539
931.519	11269
931.623	11273
