Data from test_V78500241_3637.txt Node
Date: Fri Mar 25 16:06:59 CST 2022
User: usil
Spectrometer: V785-0024
Trigger mode: 0
Integration Time (sec): 4.000000E-1
Scans to average: 1
Nonlinearity correction enabled: false
Boxcar width: 0
Storing dark spectrum: false
XAxis mode: Wavelengths
Number of Pixels in Spectrum: 1024
>>>>>Begin Spectral Data<<<<<
801.071	27564
801.214	27610
801.356	27336
801.499	27184
801.641	27142
801.783	27142
801.926	27226
802.068	27123
802.211	27173
802.353	26986
802.496	26826
802.638	26815
802.78	26716
802.923	26708
803.065	26712
803.208	26754
803.35	26819
803.492	26982
803.635	26982
803.777	26880
803.919	27036
804.061	27359
804.204	26967
804.346	26918
804.488	26994
804.63	26948
804.773	26906
804.915	27150
805.057	27116
805.199	27043
805.341	27020
805.483	27154
805.626	27203
805.768	26990
805.91	27096
806.052	27039
806.194	26956
806.336	27386
806.478	27047
806.62	27108
806.762	27192
806.904	27447
807.046	27511
807.188	27538
807.33	27447
807.472	27439
807.614	27504
807.756	27408
807.898	27431
808.04	27256
808.182	27256
808.324	27336
808.465	27329
808.607	27538
808.749	27778
808.891	27876
809.033	27876
809.174	27800
809.316	27800
809.458	27804
809.6	27595
809.741	27762
809.883	27743
810.025	27972
810.166	27865
810.308	28112
810.45	27804
810.591	27823
810.733	27876
810.875	27869
811.016	27656
811.158	27564
811.299	27770
811.441	27854
811.582	27823
811.724	27591
811.865	27717
812.007	27743
812.148	27774
812.29	27705
812.431	27884
812.573	28128
812.714	28093
812.855	28268
812.997	28314
813.138	28409
813.279	28325
813.421	28314
813.562	27937
813.703	27922
813.845	27945
813.986	27663
814.127	27439
814.268	27397
814.41	27351
814.551	27424
814.692	27477
814.833	27298
814.974	27397
815.115	27439
815.256	27096
815.397	27184
815.539	27264
815.68	27230
815.821	27180
815.962	27287
816.103	27165
816.244	27058
816.385	26952
816.526	26952
816.666	26731
816.807	26663
816.948	26705
817.089	26727
817.23	26686
817.371	26648
817.512	26644
817.653	26594
817.793	26670
817.934	26636
818.075	26663
818.216	26777
818.356	26636
818.497	26571
818.638	26351
818.778	26362
818.919	26507
819.06	26552
819.2	26583
819.341	26636
819.481	26556
819.622	26697
819.762	27043
819.903	26880
820.043	26724
820.184	26819
820.324	26792
820.465	26792
820.605	26785
820.746	26796
820.886	26731
821.026	26667
821.167	26788
821.307	26708
821.447	26651
821.588	26613
821.728	26533
821.868	26343
822.008	26229
822.149	26081
822.289	26092
822.429	25841
822.569	25753
822.709	25750
822.849	25544
822.99	25571
823.13	25563
823.27	25521
823.41	25457
823.55	25396
823.69	25358
823.83	25556
823.97	25365
824.11	25228
824.25	25198
824.389	25206
824.529	25301
824.669	25362
824.809	25464
824.949	25331
825.089	25316
825.228	25301
825.368	25091
825.508	25050
825.648	25099
825.787	25129
825.927	25236
826.067	25050
826.206	25137
826.346	25164
826.485	25175
826.625	25088
826.765	25228
826.904	25156
827.044	24932
827.183	25034
827.323	24825
827.462	24753
827.601	24951
827.741	24924
827.88	24814
828.02	24696
828.159	24928
828.298	24802
828.437	25031
828.577	24894
828.716	24935
828.855	24802
828.994	24593
829.134	24616
829.273	24604
829.412	24505
829.551	24505
829.69	24517
829.829	24646
829.968	24681
830.107	24677
830.246	24467
830.385	24593
830.524	24384
830.663	24365
830.802	24266
830.941	24273
831.08	24026
831.219	24338
831.357	24369
831.496	24429
831.635	24076
831.774	24026
831.913	23897
832.051	24030
832.19	23923
832.329	23977
832.467	23847
832.606	23714
832.744	23855
832.883	23863
833.022	23760
833.16	23832
833.299	23783
833.437	23973
833.576	23912
833.714	23756
833.852	23935
833.991	23821
834.129	23912
834.267	23912
834.406	23897
834.544	23908
834.682	23851
834.821	23988
834.959	23927
835.097	23901
835.235	23817
835.373	23741
835.511	23863
835.65	23687
835.788	23733
835.926	23611
836.064	23520
836.202	23661
836.34	23676
836.478	23813
836.615	23703
836.753	23619
836.891	23680
837.029	23756
837.167	23687
837.305	23592
837.443	23687
837.58	23573
837.718	23596
837.856	23653
837.993	23592
838.131	23512
838.269	23497
838.406	23444
838.544	23391
838.681	23178
838.819	22991
838.956	22968
839.094	23048
839.231	23037
839.369	23159
839.506	23455
839.643	23318
839.781	23048
839.918	22873
840.055	22999
840.193	22987
840.33	22919
840.467	22953
840.604	22968
840.742	23216
840.879	22782
841.016	22869
841.153	22774
841.29	23044
841.427	22961
841.564	22881
841.701	22980
841.838	22850
841.975	22805
842.112	22892
842.249	22744
842.385	22668
842.522	22927
842.659	22660
842.796	22725
842.933	22656
843.069	22645
843.206	22679
843.343	22869
843.479	22812
843.616	22828
843.752	22531
843.889	22516
844.025	22630
844.162	22432
844.298	22489
844.435	22474
844.571	22481
844.708	22531
844.844	22580
844.98	22546
845.117	22622
845.253	22459
845.389	22424
845.525	22417
845.661	22371
845.798	22154
845.934	22291
846.07	22204
846.206	22280
846.342	22329
846.478	22249
846.614	22010
846.75	21865
846.886	21968
847.022	21968
847.158	21907
847.294	21918
847.429	21899
847.565	21903
847.701	22211
847.837	21671
847.972	21614
848.108	21759
848.244	21778
848.379	21549
848.515	21481
848.65	21591
848.786	21595
848.921	21595
849.057	21603
849.192	21568
849.328	21644
849.463	21580
849.598	21485
849.734	21416
849.869	21496
850.004	21298
850.14	21374
850.275	21287
850.41	21325
850.545	21256
850.68	21188
850.815	21279
850.95	21336
851.085	21439
851.22	21481
851.355	21252
851.49	21218
851.625	21211
851.76	21287
851.895	21119
852.03	21230
852.165	21287
852.299	21298
852.434	21287
852.569	21332
852.703	21397
852.838	21313
852.973	21401
853.107	21439
853.242	21252
853.376	21005
853.511	21104
853.645	21074
853.78	21359
853.914	21127
854.048	21119
854.183	21104
854.317	21237
854.451	21325
854.585	21173
854.72	21146
854.854	21283
854.988	21089
855.122	21176
855.256	21020
855.39	21142
855.524	21085
855.658	21138
855.792	21146
855.926	21211
856.06	21237
856.194	21222
856.327	21028
856.461	21089
856.595	21043
856.729	21055
856.862	21154
856.996	21207
857.13	21077
857.263	21138
857.397	21207
857.53	21142
857.664	21104
857.797	21154
857.931	21233
858.064	21108
858.197	21291
858.331	21119
858.464	21157
858.597	21036
858.731	20994
858.864	21093
858.997	21131
859.13	21020
859.263	21146
859.396	21218
859.529	21070
859.662	21036
859.795	21009
859.928	21256
860.061	21310
860.194	21329
860.327	21211
860.46	21100
860.592	21249
860.725	21264
860.858	21367
860.99	21211
861.123	21070
861.256	21112
861.388	21169
861.521	21945
861.653	21013
861.786	20952
861.918	21081
862.05	21062
862.183	21070
862.315	21260
862.447	21150
862.58	21058
862.712	20849
862.844	20823
862.976	20914
863.108	21020
863.24	21348
863.372	20735
863.504	20849
863.636	20921
863.768	20842
863.9	20876
864.032	20838
864.164	20731
864.296	20796
864.428	20929
864.559	20963
864.691	20830
864.823	20933
864.954	20891
865.086	20811
865.217	20727
865.349	20541
865.48	20689
865.612	20765
865.743	20876
865.875	20842
866.006	20739
866.137	20743
866.269	20693
866.4	20735
866.531	20777
866.662	20750
866.793	20807
866.924	20590
867.055	20834
867.186	20621
867.317	20674
867.448	20686
867.579	20640
867.71	20564
867.841	20659
867.972	20762
868.103	20678
868.233	20590
868.364	20590
868.495	20731
868.625	20891
868.756	21005
868.886	20967
869.017	20914
869.147	21047
869.278	20883
869.408	20914
869.539	20906
869.669	20998
869.799	20937
869.929	21085
870.06	20921
870.19	21245
870.32	21264
870.45	21359
870.58	21268
870.71	21351
870.84	21500
870.97	21256
871.1	21298
871.23	21599
871.36	21603
871.489	21439
871.619	21530
871.749	21405
871.879	21519
872.008	21694
872.138	21603
872.267	21477
872.397	21329
872.526	21420
872.656	21393
872.785	21310
872.915	21462
873.044	21614
873.173	21587
873.303	21538
873.432	21622
873.561	21751
873.69	21637
873.819	21606
873.948	21629
874.077	21690
874.206	21534
874.335	21682
874.464	21724
874.593	21823
874.722	21778
874.851	21816
874.979	21835
875.108	21812
875.237	21800
875.365	21717
875.494	21766
875.623	21953
875.751	21755
875.88	21934
876.008	21854
876.136	21960
876.265	22280
876.393	22280
876.521	22204
876.65	22287
876.778	22230
876.906	22246
877.034	22230
877.162	22166
877.29	22246
877.418	22226
877.546	22131
877.674	22169
877.802	22112
877.93	22185
878.058	22276
878.185	21949
878.313	22124
878.441	22162
878.568	21979
878.696	22048
878.824	22223
878.951	22325
879.079	22394
879.206	22500
879.333	22299
879.461	22287
879.588	22356
879.715	22451
879.842	22599
879.97	22329
880.097	21945
880.224	21907
880.351	22070
880.478	22177
880.605	21994
880.732	21972
880.859	22242
880.986	22017
881.112	21964
881.239	21854
881.366	21797
881.493	21656
881.619	21447
881.746	21755
881.872	21618
881.999	21595
882.125	21511
882.252	21534
882.378	21568
882.505	21641
882.631	21496
882.757	21348
882.883	21317
883.01	21294
883.136	21138
883.262	21165
883.388	21173
883.514	21272
883.64	21370
883.766	21268
883.892	21112
884.018	21108
884.143	21298
884.269	21340
884.395	21161
884.52	20887
884.646	20906
884.772	20887
884.897	20887
885.023	20838
885.148	20967
885.274	20979
885.399	21013
885.524	21005
885.65	21089
885.775	20929
885.9	20925
886.025	21043
886.15	21039
886.275	21032
886.4	20925
886.525	20857
886.65	20845
886.775	20746
886.9	21104
887.025	21017
887.149	20902
887.274	20788
887.399	20731
887.523	20735
887.648	20560
887.773	20556
887.897	20739
888.021	20701
888.146	20644
888.27	20834
888.395	20788
888.519	20667
888.643	20762
888.767	20667
888.891	20613
889.015	20495
889.139	20598
889.263	20415
889.387	20644
889.511	20705
889.635	20587
889.759	20400
889.883	20541
890.006	20545
890.13	20613
890.254	20412
890.377	20473
890.501	20328
890.624	20206
890.748	20328
890.871	20214
890.995	20081
891.118	19967
891.241	20134
891.364	20065
891.488	20081
891.611	20126
891.734	20016
891.857	20092
891.98	20142
892.103	20142
892.226	20081
892.349	20020
892.471	19811
892.594	20024
892.717	20008
892.839	19936
892.962	20031
893.085	20005
893.207	20069
893.33	19951
893.452	19967
893.575	20130
893.697	19906
893.819	20138
893.941	20092
894.064	20130
894.186	19963
894.308	19902
894.43	20138
894.552	20168
894.674	20073
894.796	19959
894.918	19955
895.04	19826
895.161	20221
895.283	20027
895.405	19852
895.526	19959
895.648	19913
895.769	20031
895.891	19894
896.012	20122
896.134	20069
896.255	20043
896.376	19917
896.498	19894
896.619	20050
896.74	20008
896.861	20092
896.982	20263
897.103	20415
897.224	20313
897.345	20313
897.466	20248
897.587	20229
897.708	20328
897.828	20317
897.949	20221
898.07	20005
898.19	20172
898.311	20259
898.431	20271
898.552	20282
898.672	20153
898.792	20164
898.913	20206
899.033	20210
899.153	20111
899.273	19841
899.393	20058
899.513	20012
899.633	20031
899.753	20027
899.873	19909
899.993	19860
900.113	19925
900.232	19936
900.352	19871
900.472	19871
900.591	19753
900.711	19791
900.83	19757
900.95	19898
901.069	19761
901.189	19674
901.308	19396
901.427	19266
901.546	19392
901.665	19255
901.784	19377
901.904	19225
902.023	19053
902.141	18894
902.26	18882
902.379	18939
902.498	18897
902.617	18703
902.735	18833
902.854	18875
902.973	18783
903.091	18521
903.21	18540
903.328	18513
903.446	18429
903.565	18369
903.683	18380
903.801	18220
903.919	18281
904.038	18254
904.156	18110
904.274	18076
904.392	18098
904.51	18087
904.627	18098
904.745	18140
904.863	18129
904.981	17954
905.098	17752
905.216	17790
905.334	17889
905.451	17729
905.569	17805
905.686	17783
905.803	17695
905.921	17562
906.038	17547
906.155	17608
906.272	17558
906.389	17414
906.506	17273
906.623	17322
906.74	17258
906.857	17162
906.974	17223
907.091	17448
907.208	17421
907.324	17372
907.441	17231
907.557	16976
907.674	16927
907.79	16953
907.907	16911
908.023	16991
908.139	17045
908.256	17006
908.372	16957
908.488	16881
908.604	16782
908.72	16744
908.836	16683
908.952	16733
909.068	16713
909.184	16729
909.3	16653
909.415	16809
909.531	16713
909.647	16470
909.762	16485
909.878	16310
909.993	16478
910.108	16443
910.224	16325
910.339	16428
910.454	16322
910.57	16253
910.685	16211
910.8	16398
910.915	16440
911.03	16291
911.145	16017
911.259	16025
911.374	15979
911.489	15949
911.604	15884
911.718	15915
911.833	15819
911.947	15629
912.062	15580
912.176	15797
912.291	15766
912.405	15762
912.519	15960
912.633	15994
912.748	15709
912.862	15785
912.976	15686
913.09	15473
913.204	15572
913.318	15701
913.431	15599
913.545	15679
913.659	15743
913.772	15481
913.886	15469
914	15428
914.113	15485
914.226	15553
914.34	15469
914.453	15359
914.566	15462
914.68	15230
914.793	15272
914.906	15116
915.019	15009
915.132	15039
915.245	15062
915.358	15055
915.47	14941
915.583	15097
915.696	14998
915.809	15195
915.921	15051
916.034	14929
916.146	14941
916.259	14826
916.371	15028
916.483	14857
916.595	14868
916.708	14883
916.82	14918
916.932	14781
917.044	14834
917.156	14686
917.268	14708
917.38	14777
917.491	14571
917.603	14705
917.715	14712
917.826	14708
917.938	14610
918.049	14568
918.161	14606
918.272	14697
918.384	14682
918.495	14632
918.606	14415
918.717	14343
918.828	14393
918.939	14484
919.05	14320
919.161	14454
919.272	14256
919.383	14278
919.494	14457
919.604	14625
919.715	14522
919.826	14393
919.936	14358
920.047	14503
920.157	14389
920.267	14579
920.378	14347
920.488	14381
920.598	14526
920.708	14769
920.818	14556
920.928	14518
921.038	14724
921.148	14602
921.258	14355
921.368	14259
921.477	14187
921.587	14164
921.697	14050
921.806	14202
921.916	13967
922.025	13814
922.134	13795
922.244	13795
922.353	13833
922.462	13636
922.571	13658
922.68	13407
922.789	13419
922.898	13510
923.007	13388
923.116	13453
923.224	13343
923.333	13457
923.442	13175
923.55	13221
923.659	13289
923.767	13369
923.876	13232
923.984	13297
924.092	13099
924.201	13187
924.309	13175
924.417	13141
924.525	13122
924.633	13137
924.741	14039
924.849	12875
924.956	13057
925.064	12935
925.172	12776
925.279	12810
925.387	12802
925.494	12783
925.602	12935
925.709	12852
925.816	12776
925.924	12719
926.031	12928
926.138	12817
926.245	12852
926.352	12627
926.459	12856
926.566	12875
926.673	12700
926.779	12639
926.886	12582
926.993	12452
927.099	12452
927.206	12315
927.312	12300
927.419	12494
927.525	12342
927.631	12517
927.737	12350
927.843	12327
927.95	12228
928.056	12254
928.162	12239
928.267	12251
928.373	12966
928.479	12315
928.585	12053
928.69	12148
928.796	12235
928.901	12079
929.007	11999
929.112	12095
929.218	12087
929.323	12030
929.428	11980
929.533	12110
929.638	11904
929.743	12003
929.848	11923
929.953	11942
930.058	11843
930.163	11764
930.267	11741
930.372	11859
930.477	11611
930.581	11847
930.685	11722
930.79	11520
930.894	11535
930.998	11497
931.103	11684
931.207	11303
931.311	11231
931.415	11018
931.519	11018
931.623	10858
