Data from test_V78500241_189.txt Node
Date: Fri Mar 25 15:43:06 CST 2022
User: usil
Spectrometer: V785-0024
Trigger mode: 0
Integration Time (sec): 4.000000E-1
Scans to average: 1
Nonlinearity correction enabled: false
Boxcar width: 0
Storing dark spectrum: false
XAxis mode: Wavelengths
Number of Pixels in Spectrum: 1024
>>>>>Begin Spectral Data<<<<<
801.071	29649
801.214	29406
801.356	29463
801.499	29299
801.641	29296
801.783	29220
801.926	29200
802.068	29200
802.211	29136
802.353	29003
802.496	28858
802.638	28820
802.78	28801
802.923	28892
803.065	28759
803.208	28710
803.35	28812
803.492	28888
803.635	29041
803.777	28965
803.919	28919
804.061	29322
804.204	28930
804.346	28763
804.488	28850
804.63	28869
804.773	28786
804.915	28942
805.057	28881
805.199	28934
805.341	28923
805.483	29003
805.626	28946
805.768	28873
805.91	29132
806.052	29086
806.194	28892
806.336	29189
806.478	29029
806.62	28995
806.762	28995
806.904	29258
807.046	29452
807.188	29497
807.33	29482
807.472	29497
807.614	29368
807.756	29292
807.898	29311
808.04	29375
808.182	29341
808.324	29387
808.465	29212
808.607	29467
808.749	29387
808.891	29665
809.033	29802
809.174	29737
809.316	29604
809.458	29573
809.6	29657
809.741	29592
809.883	29623
810.025	29870
810.166	29817
810.308	29920
810.45	29794
810.591	29764
810.733	29608
810.875	29619
811.016	29360
811.158	29493
811.299	29665
811.441	29802
811.582	29691
811.724	29539
811.865	29493
812.007	29543
812.148	29562
812.29	29600
812.431	29771
812.573	29836
812.714	30045
812.855	30110
812.997	30045
813.138	30327
813.279	30213
813.421	30194
813.562	30079
813.703	29927
813.845	29767
813.986	29421
814.127	29254
814.268	29174
814.41	29322
814.551	29265
814.692	29421
814.833	29056
814.974	29193
815.115	29128
815.256	29006
815.397	29064
815.539	28995
815.68	28976
815.821	28904
815.962	28949
816.103	29083
816.244	28702
816.385	28653
816.526	28542
816.666	28516
816.807	28478
816.948	28310
817.089	28451
817.23	28565
817.371	28413
817.512	28333
817.653	28371
817.793	28219
817.934	28493
818.075	28421
818.216	28257
818.356	28367
818.497	28352
818.638	28013
818.778	28078
818.919	28101
819.06	28219
819.2	28105
819.341	28253
819.481	28143
819.622	28451
819.762	28603
819.903	28478
820.043	28523
820.184	28325
820.324	28424
820.465	28493
820.605	28352
820.746	28306
820.886	28166
821.026	28299
821.167	28432
821.307	28432
821.447	28101
821.588	28101
821.728	27972
821.868	27808
822.008	27728
822.149	27800
822.289	27797
822.429	27439
822.569	27420
822.709	27321
822.849	27340
822.99	27074
823.13	27173
823.27	27051
823.41	26990
823.55	26956
823.69	26906
823.83	27093
823.97	26925
824.11	26754
824.25	26689
824.389	26773
824.529	26724
824.669	26727
824.809	26792
824.949	26758
825.089	26902
825.228	26769
825.368	26765
825.508	26552
825.648	26705
825.787	26807
825.927	26674
826.067	26480
826.206	26488
826.346	26648
826.485	26640
826.625	26549
826.765	26663
826.904	26644
827.044	26377
827.183	26233
827.323	26233
827.462	26252
827.601	26240
827.741	26275
827.88	26301
828.02	26092
828.159	26256
828.298	26218
828.437	26221
828.577	26130
828.716	26358
828.855	26347
828.994	26008
829.134	25955
829.273	25989
829.412	25822
829.551	25799
829.69	26012
829.829	26046
829.968	25864
830.107	25913
830.246	25803
830.385	25868
830.524	25753
830.663	25639
830.802	25719
830.941	25392
831.08	25400
831.219	25491
831.357	25533
831.496	25689
831.635	25491
831.774	25316
831.913	25335
832.051	25244
832.19	25145
832.329	25312
832.467	25110
832.606	24992
832.744	25023
832.883	24943
833.022	25110
833.16	25034
833.299	25065
833.437	25145
833.576	25103
833.714	25137
833.852	25103
833.991	25156
834.129	25031
834.267	25156
834.406	25171
834.544	25114
834.682	25114
834.821	25122
834.959	25217
835.097	24928
835.235	25164
835.373	25099
835.511	25023
835.65	24867
835.788	24951
835.926	24696
836.064	24700
836.202	24654
836.34	25004
836.478	25050
836.615	24935
836.753	24817
836.891	25038
837.029	24867
837.167	24924
837.305	24753
837.443	24840
837.58	24882
837.718	24795
837.856	24844
837.993	24642
838.131	24719
838.269	24578
838.406	24551
838.544	24578
838.681	24334
838.819	24232
838.956	24129
839.094	24148
839.231	24235
839.369	24308
839.506	24555
839.643	24437
839.781	24205
839.918	24095
840.055	24220
840.193	24041
840.33	23999
840.467	24057
840.604	24018
840.742	24388
840.879	23984
841.016	23961
841.153	23817
841.29	24030
841.427	24114
841.564	24087
841.701	23958
841.838	24079
841.975	23874
842.112	23843
842.249	23840
842.385	23798
842.522	23954
842.659	23771
842.796	23615
842.933	23771
843.069	23710
843.206	23604
843.343	23668
843.479	23707
843.616	23718
843.752	23448
843.889	23471
844.025	23630
844.162	23474
844.298	23657
844.435	23509
844.571	23455
844.708	23372
844.844	23551
844.98	23429
845.117	23596
845.253	23452
845.389	23334
845.525	23261
845.661	23212
845.798	23079
845.934	23216
846.07	23044
846.206	23162
846.342	23185
846.478	23071
846.614	22980
846.75	22790
846.886	22919
847.022	23003
847.158	22995
847.294	22713
847.429	22755
847.565	22843
847.701	23086
847.837	22615
847.972	22504
848.108	22706
848.244	22607
848.379	22451
848.515	22451
848.65	22375
848.786	22462
848.921	22424
849.057	22481
849.192	22516
849.328	22413
849.463	22409
849.598	22344
849.734	22356
849.869	22234
850.004	22143
850.14	22078
850.275	22192
850.41	22082
850.545	22067
850.68	22128
850.815	22200
850.95	22128
851.085	22265
851.22	22135
851.355	22215
851.49	22044
851.625	22029
851.76	22055
851.895	22162
852.03	21934
852.165	22242
852.299	22253
852.434	22242
852.569	22169
852.703	22207
852.838	22158
852.973	22344
853.107	22246
853.242	22055
853.376	21956
853.511	21816
853.645	21930
853.78	22154
853.914	21915
854.048	21854
854.183	21918
854.317	21964
854.451	22135
854.585	21926
854.72	21915
854.854	22124
854.988	21880
855.122	21934
855.256	21827
855.39	21823
855.524	21907
855.658	21953
855.792	21975
855.926	21953
856.06	22044
856.194	21979
856.327	21861
856.461	21842
856.595	21880
856.729	21941
856.862	21991
856.996	21934
857.13	21888
857.263	21994
857.397	22078
857.53	21838
857.664	21941
857.797	21964
857.931	22025
858.064	21884
858.197	21945
858.331	21915
858.464	21789
858.597	21899
858.731	21873
858.864	21865
858.997	21873
859.13	21911
859.263	21873
859.396	21972
859.529	21816
859.662	21751
859.795	21743
859.928	21831
860.061	22029
860.194	22051
860.327	21857
860.46	21739
860.592	21899
860.725	22173
860.858	21956
860.99	21724
861.123	21751
861.256	21842
861.388	21846
861.521	22569
861.653	21739
861.786	21789
861.918	21755
862.05	21838
862.183	21888
862.315	21892
862.447	21998
862.58	21972
862.712	21686
862.844	21549
862.976	21614
863.108	21538
863.24	21956
863.372	21481
863.504	21408
863.636	21367
863.768	21591
863.9	21591
864.032	21481
864.164	21443
864.296	21545
864.428	21663
864.559	21633
864.691	21603
864.823	21462
864.954	21454
865.086	21557
865.217	21359
865.349	21302
865.48	21492
865.612	21466
865.743	21637
865.875	21488
866.006	21389
866.137	21408
866.269	21393
866.4	21355
866.531	21386
866.662	21348
866.793	21496
866.924	21363
867.055	21306
867.186	21435
867.317	21245
867.448	21237
867.579	21382
867.71	21180
867.841	21283
867.972	21393
868.103	21348
868.233	21313
868.364	21359
868.495	21408
868.625	21526
868.756	21694
868.886	21428
869.017	21511
869.147	21686
869.278	21663
869.408	21633
869.539	21523
869.669	21686
869.799	21663
869.929	21724
870.06	21720
870.19	21857
870.32	21888
870.45	21865
870.58	21991
870.71	22101
870.84	22120
870.97	21880
871.1	21907
871.23	22120
871.36	22120
871.489	22188
871.619	22135
871.749	22150
871.879	22135
872.008	22200
872.138	22200
872.267	22139
872.397	22162
872.526	22040
872.656	21972
872.785	21968
872.915	22211
873.044	22246
873.173	22261
873.303	22188
873.432	22280
873.561	22211
873.69	22249
873.819	22204
873.948	22169
874.077	22177
874.206	22253
874.335	22158
874.464	22375
874.593	22466
874.722	22451
874.851	22466
874.979	22523
875.108	22546
875.237	22341
875.365	22265
875.494	22390
875.623	22500
875.751	22337
875.88	22443
876.008	22538
876.136	22588
876.265	22702
876.393	22839
876.521	22961
876.65	22885
876.778	22862
876.906	22805
877.034	22774
877.162	22820
877.29	22733
877.418	22793
877.546	22717
877.674	22755
877.802	22805
877.93	22713
878.058	22725
878.185	22569
878.313	22744
878.441	22706
878.568	22660
878.696	22763
878.824	22698
878.951	22725
879.079	22930
879.206	23136
879.333	23071
879.461	22854
879.588	22778
879.715	22824
879.842	22995
879.97	22645
880.097	22630
880.224	22550
880.351	22592
880.478	22516
880.605	22565
880.732	22675
880.859	22828
880.986	22618
881.112	22668
881.239	22375
881.366	22386
881.493	22238
881.619	22147
881.746	22246
881.872	22261
881.999	22109
882.125	22166
882.252	22120
882.378	22112
882.505	22242
882.631	22090
882.757	21869
882.883	22048
883.01	21846
883.136	21762
883.262	21709
883.388	21675
883.514	21869
883.64	21918
883.766	21720
883.892	21641
884.018	21648
884.143	21755
884.269	22013
884.395	21523
884.52	21488
884.646	21542
884.772	21447
884.897	21370
885.023	21469
885.148	21492
885.274	21553
885.399	21656
885.524	21462
885.65	21469
885.775	21466
885.9	21523
886.025	21561
886.15	21549
886.275	21393
886.4	21256
886.525	21534
886.65	21405
886.775	21447
886.9	21549
887.025	21641
887.149	21439
887.274	21367
887.399	21325
887.523	21291
887.648	21165
887.773	21157
887.897	21355
888.021	21325
888.146	21093
888.27	21359
888.395	21226
888.519	21241
888.643	21298
888.767	21233
888.891	21119
889.015	21055
889.139	21062
889.263	21005
889.387	21096
889.511	21150
889.635	21142
889.759	21066
889.883	20967
890.006	20998
890.13	21131
890.254	20910
890.377	20941
890.501	20735
890.624	20750
890.748	20716
890.871	20514
890.995	20560
891.118	20526
891.241	20609
891.364	20552
891.488	20857
891.611	20590
891.734	20511
891.857	20800
891.98	20606
892.103	20621
892.226	20484
892.349	20476
892.471	20358
892.594	20541
892.717	20518
892.839	20351
892.962	20564
893.085	20511
893.207	20579
893.33	20427
893.452	20355
893.575	20495
893.697	20442
893.819	20621
893.941	20674
894.064	20495
894.186	20503
894.308	20400
894.43	20686
894.552	20678
894.674	20476
894.796	20347
894.918	20434
895.04	20362
895.161	20564
895.283	20621
895.405	20358
895.526	20434
895.648	20507
895.769	20541
895.891	20541
896.012	20522
896.134	20651
896.255	20522
896.376	20469
896.498	20537
896.619	20621
896.74	20564
896.861	20602
896.982	20902
897.103	20887
897.224	20769
897.345	20651
897.466	20537
897.587	20655
897.708	20872
897.828	20731
897.949	20594
898.07	20670
898.19	20712
898.311	20720
898.431	20560
898.552	20594
898.672	20651
898.792	20845
898.913	20590
899.033	20594
899.153	20560
899.273	20358
899.393	20473
899.513	20374
899.633	20434
899.753	20366
899.873	20248
899.993	20332
900.113	20282
900.232	20309
900.352	20336
900.472	20294
900.591	20248
900.711	20301
900.83	20119
900.95	20263
901.069	20313
901.189	20130
901.308	19890
901.427	19761
901.546	19731
901.665	19826
901.784	19890
901.904	19605
902.023	19468
902.141	19403
902.26	19171
902.379	19377
902.498	19407
902.617	19236
902.735	19304
902.854	19221
902.973	19213
903.091	18962
903.21	18802
903.328	18894
903.446	18745
903.565	18810
903.683	18757
903.801	18490
903.919	18722
904.038	18612
904.156	18540
904.274	18585
904.392	18486
904.51	18521
904.627	18509
904.745	18506
904.863	18483
904.981	18270
905.098	18277
905.216	18110
905.334	18216
905.451	18114
905.569	18133
905.686	18155
905.803	18194
905.921	18003
906.038	18038
906.155	17939
906.272	17794
906.389	17832
906.506	17699
906.623	17752
906.74	17729
906.857	17539
906.974	17592
907.091	17668
907.208	17885
907.324	17589
907.441	17585
907.557	17490
907.674	17474
907.79	17360
907.907	17311
908.023	17421
908.139	17356
908.256	17349
908.372	17273
908.488	17121
908.604	17071
908.72	17052
908.836	17033
908.952	16999
909.068	17128
909.184	17162
909.3	17025
909.415	16984
909.531	16995
909.647	16801
909.762	16877
909.878	16797
909.993	16653
910.108	16637
910.224	16668
910.339	16755
910.454	16626
910.57	16527
910.685	16470
910.8	16774
910.915	16748
911.03	16584
911.145	16314
911.259	16329
911.374	16211
911.489	16242
911.604	16105
911.718	15964
911.833	16051
911.947	15903
912.062	15945
912.176	16112
912.291	16166
912.405	16211
912.519	16272
912.633	16219
912.748	16090
912.862	15975
912.976	15865
913.09	15816
913.204	15785
913.318	15774
913.431	16006
913.545	15918
913.659	16048
913.772	15774
913.886	15675
914	15576
914.113	15743
914.226	15827
914.34	15637
914.453	15545
914.566	15694
914.68	15568
914.793	15500
914.906	15287
915.019	15272
915.132	15211
915.245	15245
915.358	15401
915.47	15317
915.583	15241
915.696	15199
915.809	15302
915.921	15431
916.034	15180
916.146	15161
916.259	15150
916.371	15203
916.483	15233
916.595	15131
916.708	15100
916.82	15077
916.932	15081
917.044	15077
917.156	15013
917.268	14891
917.38	14960
917.491	14796
917.603	14883
917.715	14963
917.826	15020
917.938	14819
918.049	14746
918.161	14758
918.272	14990
918.384	14853
918.495	14834
918.606	14792
918.717	14571
918.828	14708
918.939	14644
919.05	14556
919.161	14655
919.272	14389
919.383	14480
919.494	14674
919.604	14769
919.715	14594
919.826	14415
919.936	14621
920.047	14667
920.157	14651
920.267	14788
920.378	14625
920.488	14533
920.598	14796
920.708	14845
920.818	14693
920.928	14693
921.038	14975
921.148	14861
921.258	14518
921.368	14377
921.477	14225
921.587	14294
921.697	14073
921.806	14328
921.916	14138
922.025	13982
922.134	13944
922.244	13868
922.353	13944
922.462	13795
922.571	13761
922.68	13628
922.789	13514
922.898	13537
923.007	13529
923.116	13620
923.224	13575
923.333	13495
923.442	13388
923.55	13316
923.659	13396
923.767	13430
923.876	13354
923.984	13282
924.092	13419
924.201	13301
924.309	13301
924.417	13301
924.525	13160
924.633	13156
924.741	13986
924.849	13050
924.956	13179
925.064	13019
925.172	12901
925.279	12916
925.387	13038
925.494	12954
925.602	13122
925.709	13008
925.816	12897
925.924	12973
926.031	13061
926.138	12901
926.245	12901
926.352	12840
926.459	12951
926.566	12981
926.673	12798
926.779	12654
926.886	12779
926.993	12642
927.099	12551
927.206	12521
927.312	12502
927.419	12578
927.525	12578
927.631	12585
927.737	12372
927.843	12414
927.95	12258
928.056	12353
928.162	12372
928.267	12399
928.373	12981
928.479	12490
928.585	12136
928.69	12311
928.796	12395
928.901	12251
929.007	12072
929.112	12224
929.218	12194
929.323	12072
929.428	12049
929.533	12224
929.638	11958
929.743	12049
929.848	12072
929.953	11961
930.058	11874
930.163	11794
930.267	11863
930.372	11843
930.477	11653
930.581	11920
930.685	11752
930.79	11665
930.894	11623
930.998	11604
931.103	11764
931.207	11383
931.311	11345
931.415	11231
931.519	10923
931.623	10938
