Data from test_V78500241_204.txt Node
Date: Fri Mar 25 15:43:12 CST 2022
User: usil
Spectrometer: V785-0024
Trigger mode: 0
Integration Time (sec): 4.000000E-1
Scans to average: 1
Nonlinearity correction enabled: false
Boxcar width: 0
Storing dark spectrum: false
XAxis mode: Wavelengths
Number of Pixels in Spectrum: 1024
>>>>>Begin Spectral Data<<<<<
801.071	29478
801.214	29341
801.356	29121
801.499	29117
801.641	28812
801.783	28942
801.926	29083
802.068	28976
802.211	29075
802.353	28733
802.496	28672
802.638	28577
802.78	28451
802.923	28474
803.065	28557
803.208	28512
803.35	28588
803.492	28828
803.635	28706
803.777	28656
803.919	28835
804.061	29003
804.204	28816
804.346	28740
804.488	28660
804.63	28748
804.773	28538
804.915	28710
805.057	28790
805.199	28561
805.341	28763
805.483	28786
805.626	28881
805.768	28641
805.91	28900
806.052	28881
806.194	28736
806.336	29098
806.478	28740
806.62	28793
806.762	28866
806.904	29102
807.046	29208
807.188	29284
807.33	29083
807.472	29235
807.614	29159
807.756	29159
807.898	28927
808.04	28900
808.182	28919
808.324	28991
808.465	28888
808.607	29246
808.749	29436
808.891	29490
809.033	29463
809.174	29490
809.316	29459
809.458	29402
809.6	29379
809.741	29448
809.883	29337
810.025	29634
810.166	29649
810.308	29600
810.45	29474
810.591	29665
810.733	29421
810.875	29326
811.016	29216
811.158	29277
811.299	29501
811.441	29623
811.582	29551
811.724	29322
811.865	29311
812.007	29197
812.148	29204
812.29	29375
812.431	29444
812.573	29596
812.714	29649
812.855	29779
812.997	30007
813.138	30053
813.279	30007
813.421	29958
813.562	29786
813.703	29657
813.845	29649
813.986	29356
814.127	29048
814.268	28927
814.41	29044
814.551	28938
814.692	29006
814.833	28835
814.974	28980
815.115	28923
815.256	28797
815.397	28771
815.539	28820
815.68	28759
815.821	28523
815.962	28744
816.103	28717
816.244	28557
816.385	28508
816.526	28424
816.666	28306
816.807	28143
816.948	28242
817.089	28295
817.23	28207
817.371	28192
817.512	28230
817.653	28109
817.793	28200
817.934	28135
818.075	28181
818.216	28078
818.356	28086
818.497	27884
818.638	27835
818.778	27876
818.919	27945
819.06	27778
819.2	27918
819.341	28082
819.481	28002
819.622	28226
819.762	28390
819.903	28295
820.043	28093
820.184	28318
820.324	28268
820.465	28223
820.605	28093
820.746	28158
820.886	27880
821.026	28063
821.167	28078
821.307	28143
821.447	27998
821.588	27880
821.728	27739
821.868	27641
822.008	27466
822.149	27458
822.289	27408
822.429	27093
822.569	27230
822.709	27241
822.849	27005
822.99	26933
823.13	26921
823.27	26937
823.41	26697
823.55	26648
823.69	26796
823.83	26686
823.97	26708
824.11	26609
824.25	26446
824.389	26507
824.529	26640
824.669	26480
824.809	26765
824.949	26735
825.089	26541
825.228	26438
825.368	26370
825.508	26366
825.648	26415
825.787	26324
825.927	26412
826.067	26377
826.206	26427
826.346	26457
826.485	26313
826.625	26336
826.765	26442
826.904	26362
827.044	26267
827.183	26016
827.323	26043
827.462	26024
827.601	25921
827.741	26039
827.88	26126
828.02	25887
828.159	25845
828.298	25936
828.437	26027
828.577	25909
828.716	26122
828.855	25845
828.994	25742
829.134	25780
829.273	25761
829.412	25605
829.551	25624
829.69	25734
829.829	25845
829.968	25742
830.107	25693
830.246	25643
830.385	25681
830.524	25620
830.663	25430
830.802	25350
830.941	25217
831.08	25301
831.219	25373
831.357	25453
831.496	25422
831.635	25198
831.774	25141
831.913	24905
832.051	25012
832.19	24954
832.329	25008
832.467	25046
832.606	24791
832.744	24768
832.883	24829
833.022	24863
833.16	25012
833.299	24928
833.437	24989
833.576	24920
833.714	24810
833.852	25012
833.991	24859
834.129	25000
834.267	24954
834.406	24909
834.544	24970
834.682	24848
834.821	24821
834.959	24985
835.097	24719
835.235	24928
835.373	24878
835.511	24738
835.65	24692
835.788	24707
835.926	24498
836.064	24471
836.202	24669
836.34	24825
836.478	24890
836.615	24692
836.753	24734
836.891	24833
837.029	24798
837.167	24604
837.305	24601
837.443	24566
837.58	24437
837.718	24563
837.856	24654
837.993	24540
838.131	24536
838.269	24460
838.406	24433
838.544	24410
838.681	24289
838.819	24224
838.956	23889
839.094	24011
839.231	23946
839.369	23980
839.506	24338
839.643	24133
839.781	23969
839.918	23935
840.055	23882
840.193	23885
840.33	23870
840.467	23840
840.604	23882
840.742	24072
840.879	23802
841.016	23737
841.153	23604
841.29	23786
841.427	23790
841.564	23942
841.701	23802
841.838	23809
841.975	23767
842.112	23745
842.249	23653
842.385	23547
842.522	23775
842.659	23726
842.796	23570
842.933	23642
843.069	23463
843.206	23512
843.343	23627
843.479	23478
843.616	23452
843.752	23223
843.889	23212
844.025	23417
844.162	23288
844.298	23398
844.435	23212
844.571	23231
844.708	23216
844.844	23429
844.98	23337
845.117	23303
845.253	23162
845.389	23151
845.525	23090
845.661	23132
845.798	22938
845.934	22949
846.07	22847
846.206	22995
846.342	23018
846.478	22984
846.614	22778
846.75	22626
846.886	22698
847.022	22858
847.158	22767
847.294	22645
847.429	22656
847.565	22584
847.701	22892
847.837	22474
847.972	22390
848.108	22455
848.244	22466
848.379	22379
848.515	22219
848.65	22257
848.786	22253
848.921	22242
849.057	22367
849.192	22325
849.328	22280
849.463	22226
849.598	22154
849.734	22215
849.869	22093
850.004	21907
850.14	21873
850.275	22055
850.41	21930
850.545	21907
850.68	21911
850.815	22029
850.95	22048
851.085	22150
851.22	22006
851.355	21945
851.49	21956
851.625	21884
851.76	21918
851.895	21850
852.03	21899
852.165	21987
852.299	22101
852.434	21941
852.569	21956
852.703	21979
852.838	21998
852.973	22109
853.107	22078
853.242	21941
853.376	21804
853.511	21641
853.645	21686
853.78	21865
853.914	21717
854.048	21766
854.183	21743
854.317	21827
854.451	21899
854.585	21785
854.72	21774
854.854	21823
854.988	21679
855.122	21743
855.256	21606
855.39	21576
855.524	21720
855.658	21747
855.792	21690
855.926	21762
856.06	21808
856.194	21804
856.327	21667
856.461	21747
856.595	21652
856.729	21580
856.862	21743
856.996	21774
857.13	21774
857.263	21816
857.397	21800
857.53	21728
857.664	21743
857.797	21804
857.931	21827
858.064	21660
858.197	21728
858.331	21652
858.464	21557
858.597	21580
858.731	21622
858.864	21622
858.997	21587
859.13	21652
859.263	21701
859.396	21762
859.529	21705
859.662	21728
859.795	21557
859.928	21690
860.061	21895
860.194	21941
860.327	21785
860.46	21515
860.592	21789
860.725	21869
860.858	21876
860.99	21739
861.123	21511
861.256	21603
861.388	21797
861.521	22341
861.653	21534
861.786	21534
861.918	21431
862.05	21667
862.183	21625
862.315	21660
862.447	21842
862.58	21652
862.712	21507
862.844	21412
862.976	21545
863.108	21408
863.24	21736
863.372	21264
863.504	21310
863.636	21401
863.768	21344
863.9	21226
864.032	21272
864.164	21321
864.296	21283
864.428	21466
864.559	21420
864.691	21538
864.823	21340
864.954	21332
865.086	21313
865.217	21283
865.349	21222
865.48	21313
865.612	21214
865.743	21351
865.875	21256
866.006	21325
866.137	21287
866.269	21310
866.4	21256
866.531	21195
866.662	21256
866.793	21245
866.924	21161
867.055	21226
867.186	21241
867.317	21157
867.448	21154
867.579	21081
867.71	21203
867.841	21066
867.972	21093
868.103	21127
868.233	21199
868.364	21355
868.495	21332
868.625	21420
868.756	21561
868.886	21344
869.017	21515
869.147	21511
869.278	21393
869.408	21416
869.539	21424
869.669	21542
869.799	21473
869.929	21443
870.06	21450
870.19	21679
870.32	21595
870.45	21762
870.58	21770
870.71	21937
870.84	21819
870.97	21747
871.1	21846
871.23	21960
871.36	22063
871.489	21880
871.619	21998
871.749	21964
871.879	22086
872.008	22109
872.138	21899
872.267	21907
872.397	21915
872.526	21880
872.656	21854
872.785	21850
872.915	22032
873.044	22154
873.173	21975
873.303	21983
873.432	22101
873.561	22177
873.69	22101
873.819	22139
873.948	22204
874.077	22025
874.206	21994
874.335	21960
874.464	22139
874.593	22265
874.722	22196
874.851	22352
874.979	22268
875.108	22299
875.237	22268
875.365	22101
875.494	22207
875.623	22360
875.751	22257
875.88	22268
876.008	22485
876.136	22443
876.265	22573
876.393	22801
876.521	22801
876.65	22637
876.778	22694
876.906	22618
877.034	22611
877.162	22630
877.29	22538
877.418	22615
877.546	22561
877.674	22554
877.802	22634
877.93	22698
878.058	22645
878.185	22531
878.313	22622
878.441	22607
878.568	22352
878.696	22451
878.824	22630
878.951	22656
879.079	22767
879.206	22866
879.333	22801
879.461	22588
879.588	22782
879.715	22828
879.842	22839
879.97	22694
880.097	22481
880.224	22398
880.351	22519
880.478	22428
880.605	22409
880.732	22531
880.859	22706
880.986	22459
881.112	22443
881.239	22333
881.366	22074
881.493	22128
881.619	21956
881.746	22200
881.872	22025
881.999	21937
882.125	21949
882.252	22128
882.378	21972
882.505	22154
882.631	21816
882.757	21759
882.883	21842
883.01	21739
883.136	21667
883.262	21701
883.388	21572
883.514	21679
883.64	21823
883.766	21614
883.892	21504
884.018	21492
884.143	21755
884.269	21717
884.395	21359
884.52	21310
884.646	21382
884.772	21317
884.897	21237
885.023	21355
885.148	21557
885.274	21473
885.399	21587
885.524	21329
885.65	21428
885.775	21241
885.9	21268
886.025	21462
886.15	21466
886.275	21260
886.4	21237
886.525	21279
886.65	21302
886.775	21287
886.9	21389
887.025	21443
887.149	21382
887.274	21074
887.399	21009
887.523	21207
887.648	21161
887.773	21058
887.897	21131
888.021	21047
888.146	21013
888.27	21055
888.395	21184
888.519	21218
888.643	21066
888.767	21108
888.891	20979
889.015	20921
889.139	20960
889.263	20773
889.387	21024
889.511	21066
889.635	21036
889.759	20853
889.883	20845
890.006	20883
890.13	20861
890.254	20849
890.377	20785
890.501	20537
890.624	20511
890.748	20617
890.871	20552
890.995	20461
891.118	20309
891.241	20450
891.364	20419
891.488	20587
891.611	20499
891.734	20457
891.857	20434
891.98	20381
892.103	20575
892.226	20431
892.349	20317
892.471	20221
892.594	20317
892.717	20286
892.839	20450
892.962	20278
893.085	20423
893.207	20366
893.33	20244
893.452	20218
893.575	20324
893.697	20218
893.819	20488
893.941	20488
894.064	20533
894.186	20229
894.308	20225
894.43	20454
894.552	20336
894.674	20549
894.796	20206
894.918	20240
895.04	20221
895.161	20317
895.283	20419
895.405	20244
895.526	20278
895.648	20336
895.769	20366
895.891	20393
896.012	20507
896.134	20366
896.255	20442
896.376	20393
896.498	20332
896.619	20408
896.74	20465
896.861	20552
896.982	20648
897.103	20796
897.224	20617
897.345	20609
897.466	20381
897.587	20503
897.708	20636
897.828	20579
897.949	20526
898.07	20473
898.19	20571
898.311	20598
898.431	20533
898.552	20667
898.672	20609
898.792	20606
898.913	20594
899.033	20511
899.153	20389
899.273	20282
899.393	20252
899.513	20298
899.633	20259
899.753	20237
899.873	20221
899.993	20191
900.113	20199
900.232	20199
900.352	20115
900.472	20031
900.591	19978
900.711	20161
900.83	20043
900.95	20122
901.069	20077
901.189	19849
901.308	19875
901.427	19639
901.546	19643
901.665	19651
901.784	19681
901.904	19548
902.023	19533
902.141	19266
902.26	19213
902.379	19213
902.498	19213
902.617	19015
902.735	19110
902.854	19034
902.973	19000
903.091	18848
903.21	18753
903.328	18707
903.446	18684
903.565	18673
903.683	18540
903.801	18479
903.919	18544
904.038	18475
904.156	18372
904.274	18502
904.392	18281
904.51	18292
904.627	18220
904.745	18407
904.863	18308
904.981	18076
905.098	17946
905.216	17984
905.334	18095
905.451	18038
905.569	17855
905.686	17969
905.803	18068
905.921	17752
906.038	17786
906.155	17882
906.272	17687
906.389	17741
906.506	17604
906.623	17570
906.74	17505
906.857	17322
906.974	17345
907.091	17604
907.208	17646
907.324	17467
907.441	17452
907.557	17311
907.674	17220
907.79	17113
907.907	17136
908.023	17250
908.139	17170
908.256	17136
908.372	17121
908.488	17132
908.604	16980
908.72	16850
908.836	16946
908.952	16843
909.068	16866
909.184	16949
909.3	17003
909.415	16896
909.531	16854
909.647	16584
909.762	16542
909.878	16584
909.993	16645
910.108	16691
910.224	16542
910.339	16519
910.454	16379
910.57	16375
910.685	16386
910.8	16561
910.915	16493
911.03	16382
911.145	16211
911.259	16166
911.374	16169
911.489	16131
911.604	16185
911.718	15934
911.833	15884
911.947	15918
912.062	15739
912.176	16010
912.291	16002
912.405	15953
912.519	16147
912.633	16124
912.748	16010
912.862	15861
912.976	15797
913.09	15644
913.204	15652
913.318	15660
913.431	15880
913.545	15766
913.659	15808
913.772	15694
913.886	15660
914	15523
914.113	15587
914.226	15542
914.34	15538
914.453	15424
914.566	15545
914.68	15408
914.793	15363
914.906	15218
915.019	15100
915.132	15028
915.245	15119
915.358	15100
915.47	15097
915.583	15077
915.696	15207
915.809	15188
915.921	15264
916.034	14979
916.146	15036
916.259	14914
916.371	15032
916.483	15047
916.595	14941
916.708	14971
916.82	14963
916.932	14952
917.044	14880
917.156	14868
917.268	14693
917.38	14769
917.491	14720
917.603	14849
917.715	14868
917.826	14921
917.938	14712
918.049	14655
918.161	14708
918.272	14845
918.384	14819
918.495	14739
918.606	14598
918.717	14469
918.828	14450
918.939	14564
919.05	14446
919.161	14457
919.272	14294
919.383	14339
919.494	14541
919.604	14735
919.715	14503
919.826	14355
919.936	14381
920.047	14473
920.157	14533
920.267	14667
920.378	14507
920.488	14457
920.598	14606
920.708	14701
920.818	14594
920.928	14526
921.038	14663
921.148	14754
921.258	14336
921.368	14290
921.477	14282
921.587	14176
921.697	14069
921.806	14092
921.916	14062
922.025	13788
922.134	13845
922.244	13830
922.353	13875
922.462	13731
922.571	13651
922.68	13487
922.789	13358
922.898	13457
923.007	13362
923.116	13396
923.224	13365
923.333	13449
923.442	13304
923.55	13270
923.659	13297
923.767	13324
923.876	13156
923.984	13316
924.092	13232
924.201	13285
924.309	13213
924.417	13129
924.525	13084
924.633	13034
924.741	13963
924.849	12916
924.956	13137
925.064	12817
925.172	12806
925.279	12837
925.387	12863
925.494	12837
925.602	12954
925.709	12886
925.816	12768
925.924	12806
926.031	12798
926.138	12802
926.245	12791
926.352	12719
926.459	12848
926.566	12878
926.673	12776
926.779	12593
926.886	12669
926.993	12448
927.099	12475
927.206	12369
927.312	12433
927.419	12464
927.525	12460
927.631	12464
927.737	12330
927.843	12346
927.95	12243
928.056	12247
928.162	12273
928.267	12342
928.373	12867
928.479	12327
928.585	12064
928.69	12228
928.796	12266
928.901	12091
929.007	12049
929.112	12068
929.218	12110
929.323	12041
929.428	12015
929.533	12064
929.638	11855
929.743	11946
929.848	12026
929.953	11961
930.058	11756
930.163	11691
930.267	11653
930.372	11832
930.477	11524
930.581	11870
930.685	11726
930.79	11516
930.894	11505
930.998	11516
931.103	11585
931.207	11254
931.311	11189
931.415	11075
931.519	10911
931.623	10889
