Data from test_V78500241_3345.txt Node
Date: Fri Mar 25 16:04:58 CST 2022
User: usil
Spectrometer: V785-0024
Trigger mode: 0
Integration Time (sec): 4.000000E-1
Scans to average: 1
Nonlinearity correction enabled: false
Boxcar width: 0
Storing dark spectrum: false
XAxis mode: Wavelengths
Number of Pixels in Spectrum: 1024
>>>>>Begin Spectral Data<<<<<
801.071	28710
801.214	28710
801.356	28440
801.499	28401
801.641	28318
801.783	28238
801.926	28344
802.068	28303
802.211	28246
802.353	28204
802.496	28116
802.638	28036
802.78	28025
802.923	27945
803.065	27865
803.208	27903
803.35	27895
803.492	28109
803.635	28192
803.777	27987
803.919	28147
804.061	28489
804.204	28276
804.346	28082
804.488	28109
804.63	28166
804.773	28112
804.915	28215
805.057	28341
805.199	28048
805.341	28314
805.483	28325
805.626	28295
805.768	28177
805.91	28375
806.052	28329
806.194	28181
806.336	28546
806.478	28314
806.62	28253
806.762	28561
806.904	28618
807.046	28900
807.188	28717
807.33	28687
807.472	28862
807.614	28752
807.756	28683
807.898	28634
808.04	28565
808.182	28603
808.324	28675
808.465	28531
808.607	28816
808.749	28972
808.891	29064
809.033	29212
809.174	29071
809.316	29037
809.458	29140
809.6	29029
809.741	29212
809.883	29292
810.025	29467
810.166	29170
810.308	29254
810.45	29124
810.591	29254
810.733	29003
810.875	29174
811.016	28904
811.158	28938
811.299	29071
811.441	29231
811.582	29242
811.724	29162
811.865	29071
812.007	29060
812.148	29136
812.29	29341
812.431	29250
812.573	29433
812.714	29566
812.855	29589
812.997	29604
813.138	29764
813.279	29649
813.421	29554
813.562	29493
813.703	29383
813.845	29269
813.986	29037
814.127	28911
814.268	28668
814.41	28812
814.551	28653
814.692	28831
814.833	28809
814.974	28752
815.115	28965
815.256	28637
815.397	28687
815.539	28710
815.68	28497
815.821	28569
815.962	28474
816.103	28527
816.244	28382
816.385	28314
816.526	28265
816.666	28032
816.807	28040
816.948	28173
817.089	28150
817.23	28181
817.371	28261
817.512	28074
817.653	28078
817.793	28010
817.934	28067
818.075	28105
818.216	28124
818.356	28192
818.497	27987
818.638	27793
818.778	27861
818.919	27884
819.06	27914
819.2	28010
819.341	28021
819.481	28078
819.622	28192
819.762	28363
819.903	28443
820.043	28242
820.184	28185
820.324	28177
820.465	28367
820.605	28185
820.746	28226
820.886	28006
821.026	28135
821.167	28207
821.307	28268
821.447	28166
821.588	27949
821.728	27861
821.868	27705
822.008	27625
822.149	27538
822.289	27622
822.429	27302
822.569	27195
822.709	27245
822.849	26994
822.99	27055
823.13	27077
823.27	27005
823.41	26895
823.55	26834
823.69	26845
823.83	26861
823.97	26838
824.11	26758
824.25	26720
824.389	26663
824.529	26857
824.669	26705
824.809	26883
824.949	26845
825.089	26826
825.228	26838
825.368	26689
825.508	26651
825.648	26621
825.787	26834
825.927	26727
826.067	26583
826.206	26511
826.346	26800
826.485	26590
826.625	26606
826.765	26640
826.904	26754
827.044	26465
827.183	26267
827.323	26336
827.462	26355
827.601	26434
827.741	26446
827.88	26259
828.02	26229
828.159	26389
828.298	26442
828.437	26434
828.577	26377
828.716	26328
828.855	26237
828.994	26027
829.134	26115
829.273	26176
829.412	26054
829.551	26001
829.69	26024
829.829	26012
829.968	26062
830.107	26168
830.246	26084
830.385	25997
830.524	25913
830.663	25868
830.802	25807
830.941	25597
831.08	25537
831.219	25731
831.357	25582
831.496	25780
831.635	25632
831.774	25445
831.913	25441
832.051	25335
832.19	25396
832.329	25483
832.467	25285
832.606	25411
832.744	25255
832.883	25213
833.022	25232
833.16	25266
833.299	25445
833.437	25407
833.576	25362
833.714	25312
833.852	25377
833.991	25407
834.129	25304
834.267	25426
834.406	25316
834.544	25479
834.682	25381
834.821	25320
834.959	25529
835.097	25354
835.235	25540
835.373	25354
835.511	25285
835.65	25171
835.788	25133
835.926	25008
836.064	24962
836.202	25099
836.34	25259
836.478	25297
836.615	25255
836.753	25118
836.891	25282
837.029	25187
837.167	25160
837.305	25080
837.443	25088
837.58	25069
837.718	25103
837.856	24989
837.993	25019
838.131	25133
838.269	24962
838.406	24935
838.544	24894
838.681	24768
838.819	24631
838.956	24525
839.094	24464
839.231	24525
839.369	24604
839.506	24897
839.643	24627
839.781	24559
839.918	24475
840.055	24361
840.193	24441
840.33	24422
840.467	24350
840.604	24525
840.742	24582
840.879	24224
841.016	24296
841.153	24285
841.29	24467
841.427	24338
841.564	24525
841.701	24422
841.838	24372
841.975	24262
842.112	24254
842.249	24171
842.385	24121
842.522	24304
842.659	24391
842.796	24205
842.933	24129
843.069	24053
843.206	24106
843.343	24201
843.479	24270
843.616	24232
843.752	23836
843.889	23942
844.025	24038
844.162	23855
844.298	24049
844.435	23889
844.571	23927
844.708	23927
844.844	24087
844.98	24038
845.117	23996
845.253	23946
845.389	23771
845.525	23794
845.661	23798
845.798	23672
845.934	23741
846.07	23748
846.206	23653
846.342	23741
846.478	23539
846.614	23493
846.75	23467
846.886	23322
847.022	23429
847.158	23250
847.294	23436
847.429	23448
847.565	23509
847.701	23623
847.837	23170
847.972	23086
848.108	23113
848.244	23071
848.379	22946
848.515	22915
848.65	22904
848.786	22938
848.921	22999
849.057	23170
849.192	22961
849.328	23003
849.463	22957
849.598	22984
849.734	22809
849.869	22972
850.004	22839
850.14	22786
850.275	22729
850.41	22626
850.545	22672
850.68	22694
850.815	22698
850.95	22752
851.085	22850
851.22	22862
851.355	22889
851.49	22805
851.625	22615
851.76	22668
851.895	22717
852.03	22607
852.165	22763
852.299	22877
852.434	22790
852.569	22763
852.703	22694
852.838	22790
852.973	22831
853.107	22889
853.242	22668
853.376	22622
853.511	22497
853.645	22478
853.78	22713
853.914	22493
854.048	22405
854.183	22497
854.317	22577
854.451	22740
854.585	22611
854.72	22596
854.854	22588
854.988	22512
855.122	22569
855.256	22535
855.39	22565
855.524	22603
855.658	22717
855.792	22573
855.926	22371
856.06	22516
856.194	22618
856.327	22580
856.461	22497
856.595	22428
856.729	22649
856.862	22615
856.996	22531
857.13	22535
857.263	22649
857.397	22615
857.53	22424
857.664	22679
857.797	22668
857.931	22645
858.064	22672
858.197	22637
858.331	22584
858.464	22409
858.597	22451
858.731	22512
858.864	22527
858.997	22557
859.13	22516
859.263	22660
859.396	22615
859.529	22436
859.662	22443
859.795	22622
859.928	22588
860.061	22736
860.194	22717
860.327	22557
860.46	22519
860.592	22706
860.725	22702
860.858	22771
860.99	22683
861.123	22577
861.256	22462
861.388	22569
861.521	23265
861.653	22497
861.786	22451
861.918	22485
862.05	22447
862.183	22508
862.315	22500
862.447	22550
862.58	22455
862.712	22249
862.844	22295
862.976	22466
863.108	22352
863.24	22698
863.372	22211
863.504	22230
863.636	22268
863.768	22417
863.9	22333
864.032	22280
864.164	22219
864.296	22375
864.428	22432
864.559	22341
864.691	22325
864.823	22265
864.954	22219
865.086	22230
865.217	22154
865.349	22036
865.48	22101
865.612	22135
865.743	22382
865.875	22192
866.006	22112
866.137	22234
866.269	22158
866.4	22086
866.531	22055
866.662	22013
866.793	21945
866.924	22021
867.055	22006
867.186	22124
867.317	22078
867.448	21991
867.579	22070
867.71	21922
867.841	22029
867.972	22143
868.103	22070
868.233	22032
868.364	22074
868.495	22226
868.625	22314
868.756	22493
868.886	22344
869.017	22226
869.147	22405
869.278	22424
869.408	22306
869.539	22352
869.669	22329
869.799	22318
869.929	22421
870.06	22337
870.19	22554
870.32	22580
870.45	22607
870.58	22866
870.71	22763
870.84	22824
870.97	22759
871.1	22702
871.23	22873
871.36	22915
871.489	22858
871.619	22949
871.749	22862
871.879	22942
872.008	23102
872.138	22987
872.267	22934
872.397	22782
872.526	22755
872.656	22816
872.785	22653
872.915	22972
873.044	22999
873.173	22949
873.303	22908
873.432	22972
873.561	22915
873.69	22930
873.819	22949
873.948	23037
874.077	22915
874.206	22919
874.335	22904
874.464	23048
874.593	23166
874.722	23143
874.851	23193
874.979	23109
875.108	23151
875.237	23075
875.365	23025
875.494	23155
875.623	23193
875.751	23151
875.88	23166
876.008	23235
876.136	23467
876.265	23539
876.393	23722
876.521	23558
876.65	23695
876.778	23539
876.906	23467
877.034	23486
877.162	23505
877.29	23414
877.418	23482
877.546	23482
877.674	23356
877.802	23433
877.93	23444
878.058	23433
878.185	23421
878.313	23436
878.441	23425
878.568	23395
878.696	23406
878.824	23524
878.951	23596
879.079	23627
879.206	23680
879.333	23608
879.461	23459
879.588	23589
879.715	23783
879.842	23752
879.97	23619
880.097	23383
880.224	23345
880.351	23379
880.478	23303
880.605	23250
880.732	23372
880.859	23505
880.986	23486
881.112	23364
881.239	23121
881.366	23083
881.493	22919
881.619	22991
881.746	22923
881.872	22828
881.999	22930
882.125	22759
882.252	22885
882.378	22873
882.505	22991
882.631	22687
882.757	22592
882.883	22584
883.01	22611
883.136	22584
883.262	22481
883.388	22291
883.514	22542
883.64	22569
883.766	22622
883.892	22253
884.018	22223
884.143	22493
884.269	22596
884.395	22196
884.52	22086
884.646	22249
884.772	22055
884.897	22082
885.023	22192
885.148	22257
885.274	22280
885.399	22173
885.524	22105
885.65	22040
885.775	22291
885.9	22093
886.025	22242
886.15	22211
886.275	22013
886.4	22128
886.525	22078
886.65	22116
886.775	22173
886.9	22246
887.025	22329
887.149	22105
887.274	21998
887.399	21812
887.523	21964
887.648	21751
887.773	21987
887.897	21983
888.021	22006
888.146	21934
888.27	22059
888.395	21972
888.519	21922
888.643	21854
888.767	21934
888.891	21873
889.015	21698
889.139	21911
889.263	21736
889.387	21850
889.511	21892
889.635	21770
889.759	21675
889.883	21644
890.006	21701
890.13	21888
890.254	21538
890.377	21534
890.501	21572
890.624	21428
890.748	21496
890.871	21332
890.995	21230
891.118	21154
891.241	21146
891.364	21302
891.488	21363
891.611	21214
891.734	21332
891.857	21317
891.98	21256
892.103	21233
892.226	21382
892.349	21089
892.471	21108
892.594	21199
892.717	21188
892.839	21077
892.962	21135
893.085	21154
893.207	21093
893.33	21039
893.452	21047
893.575	21203
893.697	21074
893.819	21161
893.941	21359
894.064	21340
894.186	21119
894.308	21055
894.43	21291
894.552	21264
894.674	21104
894.796	21066
894.918	21043
895.04	21074
895.161	21150
895.283	21249
895.405	21047
895.526	21028
895.648	21043
895.769	21131
895.891	21017
896.012	21233
896.134	21211
896.255	21180
896.376	21047
896.498	21089
896.619	21116
896.74	21112
896.861	21245
896.982	21481
897.103	21530
897.224	21321
897.345	21283
897.466	21310
897.587	21199
897.708	21454
897.828	21424
897.949	21211
898.07	21081
898.19	21195
898.311	21355
898.431	21279
898.552	21310
898.672	21367
898.792	21504
898.913	21351
899.033	21249
899.153	21173
899.273	20979
899.393	21070
899.513	21093
899.633	21070
899.753	21142
899.873	20887
899.993	21028
900.113	21005
900.232	20990
900.352	20876
900.472	20899
900.591	20845
900.711	20918
900.83	20720
900.95	20887
901.069	20724
901.189	20609
901.308	20545
901.427	20366
901.546	20358
901.665	20343
901.784	20328
901.904	20187
902.023	20126
902.141	19989
902.26	19902
902.379	19921
902.498	19974
902.617	19845
902.735	19955
902.854	19925
902.973	19731
903.091	19651
903.21	19586
903.328	19552
903.446	19403
903.565	19464
903.683	19335
903.801	19187
903.919	19297
904.038	19202
904.156	19179
904.274	19046
904.392	19080
904.51	19031
904.627	18970
904.745	19145
904.863	19126
904.981	18966
905.098	18764
905.216	18768
905.334	18821
905.451	18798
905.569	18810
905.686	18779
905.803	18802
905.921	18604
906.038	18642
906.155	18612
906.272	18483
906.389	18483
906.506	18266
906.623	18330
906.74	18258
906.857	18209
906.974	18152
907.091	18350
907.208	18414
907.324	18304
907.441	18182
907.557	18133
907.674	18041
907.79	17813
907.907	17923
908.023	17954
908.139	17996
908.256	17946
908.372	17813
908.488	17840
908.604	17729
908.72	17726
908.836	17783
908.952	17707
909.068	17790
909.184	17668
909.3	17741
909.415	17726
909.531	17680
909.647	17414
909.762	17554
909.878	17417
909.993	17349
910.108	17330
910.224	17414
910.339	17303
910.454	17280
910.57	17174
910.685	17151
910.8	17467
910.915	17421
911.03	17208
911.145	17121
911.259	17018
911.374	17003
911.489	16915
911.604	16759
911.718	16759
911.833	16767
911.947	16618
912.062	16531
912.176	16736
912.291	16790
912.405	16702
912.519	16809
912.633	16965
912.748	16721
912.862	16771
912.976	16577
913.09	16462
913.204	16497
913.318	16523
913.431	16584
913.545	16565
913.659	16618
913.772	16424
913.886	16318
914	16306
914.113	16360
914.226	16485
914.34	16405
914.453	16230
914.566	16382
914.68	16246
914.793	16200
914.906	15953
915.019	15918
915.132	15854
915.245	15854
915.358	15918
915.47	15930
915.583	15819
915.696	15888
915.809	16025
915.921	16010
916.034	15850
916.146	15819
916.259	15823
916.371	15816
916.483	15854
916.595	15766
916.708	15720
916.82	15656
916.932	15603
917.044	15682
917.156	15701
917.268	15496
917.38	15564
917.491	15477
917.603	15488
917.715	15553
917.826	15603
917.938	15408
918.049	15325
918.161	15393
918.272	15534
918.384	15568
918.495	15473
918.606	15302
918.717	15142
918.828	15367
918.939	15249
919.05	15279
919.161	15233
919.272	14948
919.383	15074
919.494	15321
919.604	15519
919.715	15241
919.826	15188
919.936	15226
920.047	15306
920.157	15268
920.267	15473
920.378	15237
920.488	15131
920.598	15332
920.708	15389
920.818	15393
920.928	15336
921.038	15500
921.148	15530
921.258	15207
921.368	15085
921.477	14960
921.587	14906
921.697	14800
921.806	14895
921.916	14788
922.025	14670
922.134	14541
922.244	14571
922.353	14632
922.462	14427
922.571	14343
922.68	14195
922.789	14271
922.898	14259
923.007	14130
923.116	14275
923.224	14229
923.333	14183
923.442	14073
923.55	14050
923.659	14065
923.767	14065
923.876	13932
923.984	13936
924.092	13890
924.201	13906
924.309	13944
924.417	13974
924.525	13807
924.633	13856
924.741	14739
924.849	13677
924.956	13780
925.064	13708
925.172	13620
925.279	13567
925.387	13658
925.494	13499
925.602	13788
925.709	13601
925.816	13514
925.924	13506
926.031	13616
926.138	13556
926.245	13552
926.352	13415
926.459	13533
926.566	13582
926.673	13430
926.779	13343
926.886	13324
926.993	13171
927.099	13164
927.206	13088
927.312	13050
927.419	13171
927.525	13171
927.631	13099
927.737	13042
927.843	12875
927.95	12863
928.056	12916
928.162	12943
928.267	12951
928.373	13575
928.479	13015
928.585	12859
928.69	12867
928.796	12901
928.901	12730
929.007	12681
929.112	12715
929.218	12696
929.323	12681
929.428	12658
929.533	12791
929.638	12570
929.743	12601
929.848	12620
929.953	12631
930.058	12456
930.163	12277
930.267	12277
930.372	12460
930.477	12292
930.581	12547
930.685	12254
930.79	12190
930.894	12232
930.998	12159
931.103	12338
931.207	11999
931.311	11882
931.415	11783
931.519	11539
931.623	11478
