Data from test_V78500241_3436.txt Node
Date: Fri Mar 25 16:05:36 CST 2022
User: usil
Spectrometer: V785-0024
Trigger mode: 0
Integration Time (sec): 4.000000E-1
Scans to average: 1
Nonlinearity correction enabled: false
Boxcar width: 0
Storing dark spectrum: false
XAxis mode: Wavelengths
Number of Pixels in Spectrum: 1024
>>>>>Begin Spectral Data<<<<<
801.071	28900
801.214	28869
801.356	28584
801.499	28656
801.641	28519
801.783	28451
801.926	28474
802.068	28550
802.211	28394
802.353	28215
802.496	28249
802.638	28188
802.78	28124
802.923	28226
803.065	28029
803.208	28002
803.35	28295
803.492	28348
803.635	28238
803.777	28246
803.919	28421
804.061	28759
804.204	28363
804.346	28284
804.488	28128
804.63	28253
804.773	28325
804.915	28512
805.057	28512
805.199	28428
805.341	28504
805.483	28603
805.626	28512
805.768	28497
805.91	28466
806.052	28694
806.194	28398
806.336	28660
806.478	28512
806.62	28550
806.762	28641
806.904	28873
807.046	29075
807.188	29102
807.33	28972
807.472	29075
807.614	28999
807.756	28919
807.898	29136
808.04	28706
808.182	28774
808.324	28854
808.465	28930
808.607	29246
808.749	29269
808.891	29372
809.033	29406
809.174	29212
809.316	29345
809.458	29189
809.6	29326
809.741	29246
809.883	29440
810.025	29543
810.166	29509
810.308	29566
810.45	29600
810.591	29455
810.733	29326
810.875	29197
811.016	29185
811.158	29136
811.299	29425
811.441	29543
811.582	29375
811.724	29326
811.865	29280
812.007	29478
812.148	29277
812.29	29178
812.431	29436
812.573	29687
812.714	29687
812.855	29866
812.997	29931
813.138	30015
813.279	29771
813.421	29843
813.562	29843
813.703	29634
813.845	29387
813.986	29311
814.127	29071
814.268	29075
814.41	29071
814.551	28991
814.692	29014
814.833	28847
814.974	28869
815.115	28961
815.256	28759
815.397	28793
815.539	28835
815.68	28885
815.821	28706
815.962	28771
816.103	28733
816.244	28660
816.385	28683
816.526	28675
816.666	28436
816.807	28481
816.948	28287
817.089	28409
817.23	28181
817.371	28337
817.512	28169
817.653	28261
817.793	28192
817.934	28310
818.075	28348
818.216	28242
818.356	28265
818.497	28177
818.638	28112
818.778	28070
818.919	28101
819.06	28070
819.2	28211
819.341	28257
819.481	28341
819.622	28386
819.762	28740
819.903	28615
820.043	28504
820.184	28580
820.324	28436
820.465	28447
820.605	28443
820.746	28432
820.886	28466
821.026	28504
821.167	28375
821.307	28451
821.447	28386
821.588	28101
821.728	28162
821.868	28059
822.008	27800
822.149	27793
822.289	27797
822.429	27591
822.569	27340
822.709	27500
822.849	27252
822.99	27195
823.13	27306
823.27	27222
823.41	27169
823.55	27085
823.69	27146
823.83	27214
823.97	27005
824.11	26933
824.25	26785
824.389	26940
824.529	27138
824.669	27085
824.809	27146
824.949	26937
825.089	27142
825.228	26792
825.368	26800
825.508	26880
825.648	26842
825.787	26746
825.927	26940
826.067	26807
826.206	26807
826.346	26956
826.485	26956
826.625	26811
826.765	27039
826.904	26834
827.044	26617
827.183	26575
827.323	26469
827.462	26598
827.601	26560
827.741	26579
827.88	26636
828.02	26530
828.159	26495
828.298	26575
828.437	26598
828.577	26434
828.716	26648
828.855	26499
828.994	26286
829.134	26275
829.273	26381
829.412	26218
829.551	26134
829.69	26252
829.829	26305
829.968	26366
830.107	26343
830.246	26248
830.385	26126
830.524	26115
830.663	26149
830.802	25936
830.941	25883
831.08	25864
831.219	25955
831.357	25909
831.496	26161
831.635	25833
831.774	25784
831.913	25753
832.051	25571
832.19	25788
832.329	25689
832.467	25556
832.606	25556
832.744	25373
832.883	25438
833.022	25628
833.16	25548
833.299	25552
833.437	25575
833.576	25647
833.714	25651
833.852	25639
833.991	25552
834.129	25753
834.267	25681
834.406	25571
834.544	25525
834.682	25628
834.821	25434
834.959	25818
835.097	25594
835.235	25632
835.373	25647
835.511	25613
835.65	25438
835.788	25457
835.926	25339
836.064	25320
836.202	25297
836.34	25472
836.478	25457
836.615	25559
836.753	25430
836.891	25415
837.029	25343
837.167	25316
837.305	25274
837.443	25255
837.58	25384
837.718	25293
837.856	25304
837.993	25156
838.131	25175
838.269	25206
838.406	25217
838.544	25027
838.681	24977
838.819	24867
838.956	24768
839.094	24665
839.231	24692
839.369	24814
839.506	25091
839.643	25015
839.781	24703
839.918	24665
840.055	24692
840.193	24582
840.33	24551
840.467	24639
840.604	24665
840.742	24856
840.879	24547
841.016	24551
841.153	24502
841.29	24741
841.427	24521
841.564	24661
841.701	24551
841.838	24566
841.975	24483
842.112	24604
842.249	24429
842.385	24426
842.522	24612
842.659	24384
842.796	24399
842.933	24311
843.069	24266
843.206	24304
843.343	24494
843.479	24445
843.616	24357
843.752	24224
843.889	24243
844.025	24243
844.162	24171
844.298	24232
844.435	24148
844.571	24182
844.708	24254
844.844	24220
844.98	24232
845.117	24213
845.253	23988
845.389	23992
845.525	24114
845.661	23965
845.798	23916
845.934	23870
846.07	23916
846.206	23878
846.342	23999
846.478	23920
846.614	23729
846.75	23531
846.886	23558
847.022	23691
847.158	23577
847.294	23604
847.429	23634
847.565	23554
847.701	23973
847.837	23250
847.972	23364
848.108	23368
848.244	23459
848.379	23280
848.515	23140
848.65	23071
848.786	23189
848.921	23261
849.057	23174
849.192	23227
849.328	23315
849.463	23239
849.598	23162
849.734	23025
849.869	23064
850.004	23029
850.14	22919
850.275	22934
850.41	22881
850.545	22908
850.68	23071
850.815	22934
850.95	22816
851.085	23155
851.22	23071
851.355	23033
851.49	22881
851.625	22873
851.76	22877
851.895	22858
852.03	22896
852.165	23075
852.299	23014
852.434	22991
852.569	23029
852.703	22873
852.838	23102
852.973	23022
853.107	23079
853.242	22904
853.376	22793
853.511	22641
853.645	22694
853.78	22869
853.914	22850
854.048	22793
854.183	22713
854.317	22847
854.451	22915
854.585	22755
854.72	22721
854.854	22748
854.988	22672
855.122	22729
855.256	22706
855.39	22752
855.524	22767
855.658	22839
855.792	22774
855.926	22771
856.06	22900
856.194	22862
856.327	22717
856.461	22725
856.595	22710
856.729	22873
856.862	22972
856.996	22801
857.13	22763
857.263	22858
857.397	22809
857.53	22740
857.664	22896
857.797	22797
857.931	22877
858.064	22809
858.197	22710
858.331	22698
858.464	22744
858.597	22603
858.731	22691
858.864	22771
858.997	22748
859.13	22759
859.263	22809
859.396	22885
859.529	22809
859.662	22759
859.795	22809
859.928	22793
860.061	22961
860.194	22923
860.327	22908
860.46	22847
860.592	22828
860.725	22881
860.858	22858
860.99	22748
861.123	22713
861.256	22717
861.388	22858
861.521	23379
861.653	22634
861.786	22592
861.918	22683
862.05	22645
862.183	22672
862.315	22778
862.447	22774
862.58	22710
862.712	22382
862.844	22375
862.976	22561
863.108	22599
863.24	22873
863.372	22500
863.504	22432
863.636	22344
863.768	22508
863.9	22535
864.032	22322
864.164	22447
864.296	22478
864.428	22557
864.559	22478
864.691	22493
864.823	22504
864.954	22516
865.086	22303
865.217	22341
865.349	22181
865.48	22367
865.612	22417
865.743	22519
865.875	22238
866.006	22295
866.137	22219
866.269	22421
866.4	22413
866.531	22284
866.662	22325
866.793	22287
866.924	22280
867.055	22310
867.186	22135
867.317	22219
867.448	22200
867.579	22226
867.71	22025
867.841	22238
867.972	22310
868.103	22291
868.233	22360
868.364	22306
868.495	22363
868.625	22466
868.756	22691
868.886	22462
869.017	22557
869.147	22725
869.278	22637
869.408	22645
869.539	22584
869.669	22577
869.799	22592
869.929	22641
870.06	22755
870.19	22774
870.32	22767
870.45	22786
870.58	22949
870.71	22995
870.84	22919
870.97	22908
871.1	22919
871.23	22991
871.36	23102
871.489	23037
871.619	23044
871.749	23029
871.879	23185
872.008	23216
872.138	23189
872.267	23140
872.397	23018
872.526	22972
872.656	22911
872.785	22908
872.915	23185
873.044	23197
873.173	23303
873.303	23174
873.432	23292
873.561	23143
873.69	23124
873.819	23033
873.948	23288
874.077	23143
874.206	23075
874.335	23189
874.464	23246
874.593	23383
874.722	23288
874.851	23414
874.979	23379
875.108	23482
875.237	23261
875.365	23322
875.494	23147
875.623	23387
875.751	23220
875.88	23387
876.008	23463
876.136	23471
876.265	23798
876.393	23874
876.521	23699
876.65	23908
876.778	23817
876.906	23733
877.034	23672
877.162	23646
877.29	23627
877.418	23722
877.546	23752
877.674	23722
877.802	23596
877.93	23714
878.058	23615
878.185	23551
878.313	23680
878.441	23627
878.568	23482
878.696	23642
878.824	23695
878.951	23627
879.079	23931
879.206	23977
879.333	23889
879.461	23661
879.588	23691
879.715	23870
879.842	23980
879.97	23726
880.097	23619
880.224	23554
880.351	23547
880.478	23509
880.605	23493
880.732	23467
880.859	23714
880.986	23505
881.112	23509
881.239	23429
881.366	23204
881.493	23121
881.619	22980
881.746	23128
881.872	23109
881.999	22904
882.125	22961
882.252	23098
882.378	22984
882.505	23204
882.631	22908
882.757	22752
882.883	23022
883.01	22843
883.136	22797
883.262	22603
883.388	22565
883.514	22721
883.64	22752
883.766	22729
883.892	22504
884.018	22512
884.143	22603
884.269	22687
884.395	22341
884.52	22466
884.646	22470
884.772	22306
884.897	22261
885.023	22462
885.148	22417
885.274	22523
885.399	22557
885.524	22287
885.65	22291
885.775	22325
885.9	22246
886.025	22329
886.15	22367
886.275	22291
886.4	22287
886.525	22344
886.65	22234
886.775	22348
886.9	22443
887.025	22557
887.149	22303
887.274	22265
887.399	22143
887.523	22112
887.648	22128
887.773	22055
887.897	22211
888.021	22154
888.146	22021
888.27	22200
888.395	22322
888.519	22234
888.643	22006
888.767	22318
888.891	21968
889.015	21884
889.139	21835
889.263	21930
889.387	21956
889.511	22177
889.635	21903
889.759	21819
889.883	22006
890.006	21831
890.13	22006
890.254	21842
890.377	21888
890.501	21717
890.624	21622
890.748	21778
890.871	21595
890.995	21500
891.118	21351
891.241	21549
891.364	21454
891.488	21572
891.611	21382
891.734	21363
891.857	21507
891.98	21389
892.103	21591
892.226	21473
892.349	21386
892.471	21279
892.594	21355
892.717	21359
892.839	21420
892.962	21397
893.085	21370
893.207	21332
893.33	21260
893.452	21317
893.575	21416
893.697	21378
893.819	21492
893.941	21481
894.064	21424
894.186	21329
894.308	21283
894.43	21386
894.552	21378
894.674	21504
894.796	21306
894.918	21264
895.04	21351
895.161	21355
895.283	21195
895.405	21264
895.526	21367
895.648	21321
895.769	21268
895.891	21279
896.012	21325
896.134	21359
896.255	21287
896.376	21199
896.498	21291
896.619	21405
896.74	21218
896.861	21344
896.982	21572
897.103	21816
897.224	21564
897.345	21492
897.466	21477
897.587	21481
897.708	21595
897.828	21599
897.949	21591
898.07	21351
898.19	21420
898.311	21564
898.431	21386
898.552	21488
898.672	21488
898.792	21587
898.913	21439
899.033	21431
899.153	21355
899.273	21184
899.393	21294
899.513	21211
899.633	21173
899.753	21138
899.873	21218
899.993	21199
900.113	21188
900.232	21093
900.352	21233
900.472	21096
900.591	20952
900.711	20921
900.83	20956
900.95	21165
901.069	20971
901.189	20883
901.308	20632
901.427	20625
901.546	20560
901.665	20514
901.784	20450
901.904	20396
902.023	20347
902.141	20077
902.26	20081
902.379	20149
902.498	20157
902.617	20005
902.735	20138
902.854	20020
902.973	20046
903.091	19906
903.21	19833
903.328	19822
903.446	19753
903.565	19582
903.683	19495
903.801	19362
903.919	19403
904.038	19362
904.156	19217
904.274	19312
904.392	19297
904.51	19285
904.627	19259
904.745	19343
904.863	19301
904.981	19129
905.098	18882
905.216	18943
905.334	18985
905.451	19053
905.569	18977
905.686	18943
905.803	18993
905.921	18711
906.038	18810
906.155	18711
906.272	18673
906.389	18635
906.506	18490
906.623	18544
906.74	18422
906.857	18323
906.974	18350
907.091	18525
907.208	18555
907.324	18441
907.441	18350
907.557	18167
907.674	18194
907.79	18163
907.907	18178
908.023	18159
908.139	18034
908.256	18057
908.372	18045
908.488	17969
908.604	18011
908.72	17813
908.836	17920
908.952	17813
909.068	17897
909.184	17992
909.3	17870
909.415	17965
909.531	17828
909.647	17611
909.762	17668
909.878	17581
909.993	17592
910.108	17486
910.224	17402
910.339	17512
910.454	17471
910.57	17364
910.685	17395
910.8	17604
910.915	17566
911.03	17379
911.145	17124
911.259	17166
911.374	17185
911.489	17105
911.604	17140
911.718	16889
911.833	16892
911.947	16797
912.062	16687
912.176	16881
912.291	16987
912.405	16793
912.519	17090
912.633	17052
912.748	16771
912.862	16805
912.976	16637
913.09	16603
913.204	16710
913.318	16748
913.431	16755
913.545	16698
913.659	16809
913.772	16615
913.886	16580
914	16455
914.113	16519
914.226	16607
914.34	16523
914.453	16455
914.566	16550
914.68	16409
914.793	16413
914.906	16044
915.019	16093
915.132	15956
915.245	16063
915.358	16002
915.47	16040
915.583	16067
915.696	16086
915.809	16158
915.921	16128
916.034	16002
916.146	15926
916.259	15926
916.371	15991
916.483	16010
916.595	15880
916.708	15930
916.82	15854
916.932	15831
917.044	15876
917.156	15770
917.268	15724
917.38	15701
917.491	15595
917.603	15675
917.715	15789
917.826	15835
917.938	15637
918.049	15462
918.161	15526
918.272	15652
918.384	15720
918.495	15587
918.606	15439
918.717	15329
918.828	15382
918.939	15420
919.05	15256
919.161	15386
919.272	15199
919.383	15237
919.494	15542
919.604	15469
919.715	15370
919.826	15272
919.936	15401
920.047	15344
920.157	15310
920.267	15553
920.378	15439
920.488	15340
920.598	15458
920.708	15625
920.818	15462
920.928	15504
921.038	15606
921.148	15610
921.258	15317
921.368	15154
921.477	15074
921.587	14998
921.697	14975
921.806	15017
921.916	14925
922.025	14758
922.134	14720
922.244	14648
922.353	14876
922.462	14667
922.571	14579
922.68	14442
922.789	14412
922.898	14271
923.007	14294
923.116	14343
923.224	14332
923.333	14278
923.442	14248
923.55	14092
923.659	14153
923.767	14172
923.876	14142
923.984	14210
924.092	13898
924.201	14035
924.309	14050
924.417	14096
924.525	13963
924.633	13970
924.741	14918
924.849	13750
924.956	13928
925.064	13704
925.172	13609
925.279	13609
925.387	13864
925.494	13734
925.602	13791
925.709	13757
925.816	13556
925.924	13620
926.031	13647
926.138	13624
926.245	13757
926.352	13548
926.459	13700
926.566	13738
926.673	13556
926.779	13445
926.886	13491
926.993	13236
927.099	13236
927.206	13244
927.312	13202
927.419	13282
927.525	13221
927.631	13175
927.737	13137
927.843	13107
927.95	13095
928.056	13050
928.162	13118
928.267	13095
928.373	13685
928.479	13206
928.585	12848
928.69	13046
928.796	13069
928.901	12924
929.007	12711
929.112	12901
929.218	12848
929.323	12730
929.428	12810
929.533	12920
929.638	12829
929.743	12768
929.848	12776
929.953	12658
930.058	12608
930.163	12456
930.267	12467
930.372	12582
930.477	12395
930.581	12597
930.685	12536
930.79	12403
930.894	12258
930.998	12311
931.103	12399
931.207	12030
931.311	12026
931.415	11942
931.519	11726
931.623	11695
