Data from test_V78500241_635.txt Node
Date: Fri Mar 25 15:46:12 CST 2022
User: usil
Spectrometer: V785-0024
Trigger mode: 0
Integration Time (sec): 4.000000E-1
Scans to average: 1
Nonlinearity correction enabled: false
Boxcar width: 0
Storing dark spectrum: false
XAxis mode: Wavelengths
Number of Pixels in Spectrum: 1024
>>>>>Begin Spectral Data<<<<<
801.071	28322
801.214	28139
801.356	27903
801.499	27945
801.641	27850
801.783	27831
801.926	27835
802.068	27797
802.211	27720
802.353	27793
802.496	27469
802.638	27572
802.78	27485
802.923	27496
803.065	27587
803.208	27564
803.35	27507
803.492	27545
803.635	27614
803.777	27534
803.919	27690
804.061	27960
804.204	27762
804.346	27641
804.488	27427
804.63	27557
804.773	27625
804.915	27671
805.057	27880
805.199	27739
805.341	27827
805.483	27762
805.626	27808
805.768	27641
805.91	27774
806.052	27854
806.194	27694
806.336	28128
806.478	27934
806.62	27880
806.762	27998
806.904	27991
807.046	28314
807.188	28082
807.33	28173
807.472	28291
807.614	28101
807.756	28154
807.898	28177
808.04	28082
808.182	28181
808.324	28181
808.465	28105
808.607	28306
808.749	28451
808.891	28645
809.033	28634
809.174	28596
809.316	28550
809.458	28519
809.6	28455
809.741	28717
809.883	28664
810.025	28786
810.166	28812
810.308	28881
810.45	28763
810.591	28649
810.733	28527
810.875	28421
811.016	28424
811.158	28470
811.299	28710
811.441	28721
811.582	28713
811.724	28417
811.865	28485
812.007	28561
812.148	28489
812.29	28542
812.431	28725
812.573	28980
812.714	28904
812.855	29064
812.997	29094
813.138	29239
813.279	29174
813.421	28949
813.562	29136
813.703	28850
813.845	28660
813.986	28504
814.127	28185
814.268	28265
814.41	28196
814.551	28150
814.692	28154
814.833	28055
814.974	28344
815.115	28280
815.256	27972
815.397	27994
815.539	28074
815.68	28006
815.821	27876
815.962	27987
816.103	28086
816.244	27899
816.385	27762
816.526	27857
816.666	27583
816.807	27450
816.948	27488
817.089	27614
817.23	27530
817.371	27500
817.512	27447
817.653	27500
817.793	27249
817.934	27507
818.075	27637
818.216	27709
818.356	27553
818.497	27458
818.638	27226
818.778	27230
818.919	27275
819.06	27351
819.2	27439
819.341	27523
819.481	27511
819.622	27652
819.762	27873
819.903	27724
820.043	27755
820.184	27694
820.324	27618
820.465	27701
820.605	27561
820.746	27496
820.886	27424
821.026	27603
821.167	27564
821.307	27873
821.447	27610
821.588	27443
821.728	27344
821.868	27051
822.008	26963
822.149	26948
822.289	26937
822.429	26758
822.569	26701
822.709	26606
822.849	26457
822.99	26522
823.13	26522
823.27	26389
823.41	26286
823.55	26256
823.69	26221
823.83	26286
823.97	26305
824.11	26050
824.25	26027
824.389	26161
824.529	26153
824.669	26130
824.809	26130
824.949	26275
825.089	26252
825.228	26377
825.368	25951
825.508	26035
825.648	26107
825.787	26069
825.927	26027
826.067	25921
826.206	26084
826.346	26107
826.485	26043
826.625	26016
826.765	26103
826.904	26016
827.044	25685
827.183	25799
827.323	25670
827.462	25807
827.601	25742
827.741	25708
827.88	25651
828.02	25559
828.159	25704
828.298	25712
828.437	25784
828.577	25639
828.716	25852
828.855	25681
828.994	25419
829.134	25362
829.273	25514
829.412	25362
829.551	25350
829.69	25438
829.829	25411
829.968	25559
830.107	25521
830.246	25491
830.385	25247
830.524	25232
830.663	25148
830.802	25107
830.941	25065
831.08	24833
831.219	25187
831.357	25034
831.496	25369
831.635	25042
831.774	24844
831.913	24817
832.051	24719
832.19	24749
832.329	24749
832.467	24772
832.606	24665
832.744	24650
832.883	24623
833.022	24601
833.16	24665
833.299	24513
833.437	24627
833.576	24620
833.714	24745
833.852	24707
833.991	24726
834.129	24760
834.267	24719
834.406	24757
834.544	24719
834.682	24730
834.821	24719
834.959	24783
835.097	24661
835.235	24760
835.373	24817
835.511	24684
835.65	24593
835.788	24544
835.926	24422
836.064	24399
836.202	24365
836.34	24601
836.478	24654
836.615	24528
836.753	24456
836.891	24673
837.029	24658
837.167	24547
837.305	24448
837.443	24513
837.58	24448
837.718	24418
837.856	24467
837.993	24330
838.131	24372
838.269	24372
838.406	24262
838.544	24171
838.681	24095
838.819	24011
838.956	23851
839.094	23859
839.231	23916
839.369	24121
839.506	24292
839.643	24133
839.781	23843
839.918	23805
840.055	23851
840.193	23707
840.33	23821
840.467	23790
840.604	23855
840.742	24178
840.879	23604
841.016	23745
841.153	23619
841.29	23851
841.427	23855
841.564	23817
841.701	23855
841.838	23771
841.975	23718
842.112	23638
842.249	23653
842.385	23448
842.522	23649
842.659	23535
842.796	23604
842.933	23604
843.069	23452
843.206	23554
843.343	23505
843.479	23512
843.616	23589
843.752	23246
843.889	23383
844.025	23364
844.162	23204
844.298	23242
844.435	23239
844.571	23273
844.708	23242
844.844	23516
844.98	23474
845.117	23452
845.253	23273
845.389	23098
845.525	23216
845.661	23170
845.798	22972
845.934	23147
846.07	23060
846.206	23018
846.342	23132
846.478	22942
846.614	22767
846.75	22687
846.886	22706
847.022	22797
847.158	22839
847.294	22774
847.429	22793
847.565	22771
847.701	23041
847.837	22596
847.972	22489
848.108	22565
848.244	22596
848.379	22386
848.515	22352
848.65	22249
848.786	22363
848.921	22295
849.057	22531
849.192	22535
849.328	22394
849.463	22238
849.598	22207
849.734	22303
849.869	22223
850.004	22082
850.14	22051
850.275	22093
850.41	22082
850.545	22010
850.68	22090
850.815	22192
850.95	22074
851.085	22295
851.22	22265
851.355	22082
851.49	22078
851.625	22131
851.76	22173
851.895	21975
852.03	21994
852.165	22021
852.299	22067
852.434	22109
852.569	22093
852.703	22173
852.838	22112
852.973	22215
853.107	22265
853.242	21964
853.376	21949
853.511	21842
853.645	21827
853.78	22010
853.914	21911
854.048	21907
854.183	21899
854.317	22040
854.451	21994
854.585	21968
854.72	21892
854.854	21987
854.988	21884
855.122	21842
855.256	21816
855.39	21888
855.524	22082
855.658	21964
855.792	21876
855.926	21930
856.06	21956
856.194	21949
856.327	21953
856.461	21895
856.595	21819
856.729	21934
856.862	22017
856.996	22010
857.13	22017
857.263	22010
857.397	21956
857.53	21812
857.664	21987
857.797	22070
857.931	22082
858.064	21930
858.197	22055
858.331	21987
858.464	21899
858.597	21838
858.731	21895
858.864	21873
858.997	21846
859.13	21827
859.263	21922
859.396	21918
859.529	21922
859.662	21930
859.795	21785
859.928	21842
860.061	22013
860.194	22166
860.327	22093
860.46	21930
860.592	22044
860.725	22074
860.858	22101
860.99	21960
861.123	21835
861.256	21808
861.388	21956
861.521	22580
861.653	21876
861.786	21709
861.918	21736
862.05	21785
862.183	21785
862.315	21880
862.447	21812
862.58	21759
862.712	21610
862.844	21557
862.976	21717
863.108	21709
863.24	22006
863.372	21542
863.504	21709
863.636	21507
863.768	21641
863.9	21553
864.032	21576
864.164	21713
864.296	21622
864.428	21743
864.559	21679
864.691	21610
864.823	21622
864.954	21557
865.086	21663
865.217	21622
865.349	21481
865.48	21629
865.612	21443
865.743	21603
865.875	21447
866.006	21447
866.137	21469
866.269	21473
866.4	21492
866.531	21519
866.662	21428
866.793	21374
866.924	21412
867.055	21511
867.186	21454
867.317	21466
867.448	21260
867.579	21428
867.71	21222
867.841	21207
867.972	21348
868.103	21496
868.233	21325
868.364	21496
868.495	21557
868.625	21625
868.756	21895
868.886	21629
869.017	21633
869.147	21854
869.278	21797
869.408	21717
869.539	21610
869.669	21816
869.799	21755
869.929	21690
870.06	21728
870.19	21972
870.32	22002
870.45	22010
870.58	21979
870.71	22272
870.84	22192
870.97	22032
871.1	22029
871.23	22223
871.36	22303
871.489	22200
871.619	22204
871.749	22268
871.879	22242
872.008	22405
872.138	22257
872.267	22276
872.397	22287
872.526	22101
872.656	22120
872.785	22143
872.915	22246
873.044	22329
873.173	22211
873.303	22303
873.432	22363
873.561	22390
873.69	22306
873.819	22329
873.948	22451
874.077	22291
874.206	22223
874.335	22299
874.464	22344
874.593	22599
874.722	22516
874.851	22523
874.979	22599
875.108	22622
875.237	22542
875.365	22348
875.494	22481
875.623	22500
875.751	22379
875.88	22481
876.008	22557
876.136	22763
876.265	23029
876.393	23006
876.521	22980
876.65	22797
876.778	22816
876.906	22721
877.034	22850
877.162	22831
877.29	22816
877.418	22892
877.546	22843
877.674	22805
877.802	22797
877.93	22873
878.058	22782
878.185	22748
878.313	22816
878.441	22934
878.568	22702
878.696	22755
878.824	22862
878.951	22873
879.079	23105
879.206	23220
879.333	23117
879.461	22839
879.588	22858
879.715	23044
879.842	23227
879.97	22919
880.097	22603
880.224	22706
880.351	22729
880.478	22641
880.605	22519
880.732	22672
880.859	22835
880.986	22603
881.112	22607
881.239	22542
881.366	22409
881.493	22375
881.619	22322
881.746	22337
881.872	22268
881.999	22139
882.125	22048
882.252	22348
882.378	22204
882.505	22325
882.631	22128
882.757	22013
882.883	22029
883.01	21922
883.136	21903
883.262	21804
883.388	21835
883.514	21865
883.64	21953
883.766	21747
883.892	21614
884.018	21781
884.143	21804
884.269	21964
884.395	21606
884.52	21606
884.646	21595
884.772	21572
884.897	21492
885.023	21492
885.148	21644
885.274	21774
885.399	21610
885.524	21587
885.65	21507
885.775	21667
885.9	21576
886.025	21656
886.15	21599
886.275	21618
886.4	21469
886.525	21515
886.65	21564
886.775	21519
886.9	21610
887.025	21781
887.149	21462
887.274	21359
887.399	21256
887.523	21287
887.648	21321
887.773	21268
887.897	21302
888.021	21386
888.146	21374
888.27	21428
888.395	21454
888.519	21420
888.643	21310
888.767	21310
888.891	21275
889.015	21131
889.139	21184
889.263	21085
889.387	21237
889.511	21310
889.635	21279
889.759	21150
889.883	21055
890.006	21218
890.13	21176
890.254	21085
890.377	21009
890.501	20834
890.624	20777
890.748	20918
890.871	20861
890.995	20625
891.118	20648
891.241	20758
891.364	20705
891.488	20834
891.611	20686
891.734	20735
891.857	20697
891.98	20670
892.103	20743
892.226	20746
892.349	20708
892.471	20568
892.594	20663
892.717	20640
892.839	20571
892.962	20659
893.085	20617
893.207	20526
893.33	20495
893.452	20454
893.575	20655
893.697	20560
893.819	20720
893.941	20739
894.064	20731
894.186	20522
894.308	20454
894.43	20602
894.552	20720
894.674	20708
894.796	20381
894.918	20514
895.04	20560
895.161	20613
895.283	20598
895.405	20594
895.526	20636
895.648	20617
895.769	20621
895.891	20564
896.012	20674
896.134	20564
896.255	20640
896.376	20602
896.498	20602
896.619	20583
896.74	20663
896.861	20514
896.982	20929
897.103	20952
897.224	20777
897.345	20830
897.466	20739
897.587	20697
897.708	20906
897.828	20807
897.949	20708
898.07	20587
898.19	20708
898.311	20781
898.431	20792
898.552	20765
898.672	20845
898.792	20861
898.913	20788
899.033	20640
899.153	20507
899.273	20530
899.393	20560
899.513	20526
899.633	20606
899.753	20617
899.873	20396
899.993	20522
900.113	20507
900.232	20404
900.352	20343
900.472	20339
900.591	20225
900.711	20324
900.83	20278
900.95	20434
901.069	20431
901.189	20084
901.308	19970
901.427	19837
901.546	19811
901.665	19932
901.784	19860
901.904	19734
902.023	19685
902.141	19472
902.26	19419
902.379	19499
902.498	19384
902.617	19308
902.735	19381
902.854	19285
902.973	19274
903.091	18962
903.21	19061
903.328	19050
903.446	18856
903.565	18894
903.683	18886
903.801	18707
903.919	18783
904.038	18848
904.156	18559
904.274	18635
904.392	18738
904.51	18642
904.627	18593
904.745	18574
904.863	18669
904.981	18464
905.098	18304
905.216	18262
905.334	18308
905.451	18365
905.569	18152
905.686	18346
905.803	18258
905.921	18117
906.038	18136
906.155	18133
906.272	17961
906.389	17942
906.506	17851
906.623	17786
906.74	17817
906.857	17729
906.974	17809
907.091	17805
907.208	17984
907.324	17859
907.441	17802
907.557	17516
907.674	17493
907.79	17566
907.907	17421
908.023	17539
908.139	17429
908.256	17486
908.372	17444
908.488	17459
908.604	17307
908.72	17269
908.836	17277
908.952	17284
909.068	17356
909.184	17345
909.3	17143
909.415	17265
909.531	17212
909.647	16953
909.762	16980
909.878	16930
909.993	17033
910.108	16911
910.224	16938
910.339	16927
910.454	16805
910.57	16698
910.685	16733
910.8	16934
910.915	16850
911.03	16782
911.145	16584
911.259	16462
911.374	16538
911.489	16470
911.604	16459
911.718	16310
911.833	16219
911.947	16192
912.062	16169
912.176	16318
912.291	16265
912.405	16265
912.519	16436
912.633	16409
912.748	16390
912.862	16272
912.976	16147
913.09	15991
913.204	16154
913.318	16166
913.431	16162
913.545	16109
913.659	16162
913.772	16166
913.886	15842
914	15869
914.113	16021
914.226	16010
914.34	15899
914.453	15762
914.566	15922
914.68	15713
914.793	15743
914.906	15553
915.019	15561
915.132	15450
915.245	15458
915.358	15523
915.47	15534
915.583	15473
915.696	15599
915.809	15603
915.921	15641
916.034	15443
916.146	15408
916.259	15397
916.371	15408
916.483	15348
916.595	15367
916.708	15237
916.82	15336
916.932	15256
917.044	15233
917.156	15237
917.268	15104
917.38	15272
917.491	15161
917.603	15043
917.715	15142
917.826	15291
917.938	15013
918.049	14929
918.161	15043
918.272	15154
918.384	15150
918.495	15032
918.606	14853
918.717	14743
918.828	14883
918.939	14971
919.05	14952
919.161	14830
919.272	14629
919.383	14697
919.494	14887
919.604	15127
919.715	14952
919.826	14708
919.936	14838
920.047	14925
920.157	14800
920.267	15013
920.378	14788
920.488	14773
920.598	14990
920.708	15108
920.818	14910
920.928	14948
921.038	15180
921.148	15036
921.258	14720
921.368	14716
921.477	14686
921.587	14438
921.697	14396
921.806	14549
921.916	14423
922.025	14275
922.134	14237
922.244	14145
922.353	14206
922.462	14050
922.571	13986
922.68	13909
922.789	13799
922.898	13913
923.007	13746
923.116	13849
923.224	13727
923.333	13822
923.442	13712
923.55	13605
923.659	13723
923.767	13776
923.876	13525
923.984	13628
924.092	13552
924.201	13582
924.309	13495
924.417	13613
924.525	13491
924.633	13556
924.741	14263
924.849	13289
924.956	13335
925.064	13335
925.172	13206
925.279	13190
925.387	13213
925.494	13236
925.602	13304
925.709	13301
925.816	13099
925.924	13190
926.031	13274
926.138	13168
926.245	13206
926.352	13053
926.459	13285
926.566	13301
926.673	13099
926.779	13004
926.886	12970
926.993	12814
927.099	12787
927.206	12795
927.312	12749
927.419	12833
927.525	12848
927.631	12814
927.737	12726
927.843	12627
927.95	12509
928.056	12589
928.162	12646
928.267	12593
928.373	13221
928.479	12620
928.585	12391
928.69	12555
928.796	12555
928.901	12395
929.007	12228
929.112	12464
929.218	12467
929.323	12361
929.428	12323
929.533	12528
929.638	12281
929.743	12270
929.848	12365
929.953	12243
930.058	12178
930.163	11984
930.267	11980
930.372	12197
930.477	11954
930.581	12140
930.685	11977
930.79	11851
930.894	11889
930.998	11847
931.103	11954
931.207	11619
931.311	11581
931.415	11467
931.519	11269
931.623	11269
