Data from test_V78500241_319.txt Node
Date: Fri Mar 25 15:44:00 CST 2022
User: usil
Spectrometer: V785-0024
Trigger mode: 0
Integration Time (sec): 4.000000E-1
Scans to average: 1
Nonlinearity correction enabled: false
Boxcar width: 0
Storing dark spectrum: false
XAxis mode: Wavelengths
Number of Pixels in Spectrum: 1024
>>>>>Begin Spectral Data<<<<<
801.071	29958
801.214	29889
801.356	29482
801.499	29752
801.641	29414
801.783	29425
801.926	29524
802.068	29326
802.211	29318
802.353	29216
802.496	29014
802.638	29037
802.78	29067
802.923	29094
803.065	28949
803.208	29037
803.35	29124
803.492	29204
803.635	29166
803.777	29246
803.919	29261
804.061	29687
804.204	29277
804.346	29216
804.488	29132
804.63	29250
804.773	29102
804.915	29288
805.057	29334
805.199	29227
805.341	29375
805.483	29417
805.626	29334
805.768	29288
805.91	29337
806.052	29410
806.194	29258
806.336	29653
806.478	29501
806.62	29463
806.762	29589
806.904	29786
807.046	29950
807.188	29969
807.33	29828
807.472	29954
807.614	29771
807.756	29805
807.898	29707
808.04	29653
808.182	29638
808.324	29729
808.465	29764
808.607	29912
808.749	29843
808.891	30285
809.033	30296
809.174	30072
809.316	30045
809.458	30026
809.6	29916
809.741	30022
809.883	30121
810.025	30319
810.166	30327
810.308	30330
810.45	30251
810.591	30163
810.733	30174
810.875	30178
811.016	30057
811.158	30030
811.299	30270
811.441	30205
811.582	30121
811.724	30053
811.865	30049
812.007	29984
812.148	30098
812.29	30102
812.431	30300
812.573	30357
812.714	30433
812.855	30631
812.997	30585
813.138	30783
813.279	30821
813.421	30661
813.562	30475
813.703	30429
813.845	30277
813.986	29958
814.127	29954
814.268	29729
814.41	29733
814.551	29695
814.692	29824
814.833	29547
814.974	29680
815.115	29634
815.256	29570
815.397	29379
815.539	29581
815.68	29547
815.821	29493
815.962	29497
816.103	29330
816.244	29429
816.385	29246
816.526	29216
816.666	29117
816.807	28999
816.948	28976
817.089	29189
817.23	29113
817.371	28999
817.512	29086
817.653	28949
817.793	28919
817.934	28965
818.075	28934
818.216	28965
818.356	28835
818.497	28664
818.638	28649
818.778	28710
818.919	28637
819.06	28641
819.2	28790
819.341	28862
819.481	28908
819.622	28957
819.762	29318
819.903	29261
820.043	29132
820.184	29041
820.324	29140
820.465	29033
820.605	29147
820.746	29018
820.886	28987
821.026	28999
821.167	28911
821.307	28995
821.447	28911
821.588	28763
821.728	28615
821.868	28504
822.008	28421
822.149	28440
822.289	28401
822.429	28082
822.569	28204
822.709	28002
822.849	27880
822.99	27899
823.13	27850
823.27	27625
823.41	27682
823.55	27542
823.69	27781
823.83	27652
823.97	27557
824.11	27431
824.25	27458
824.389	27397
824.529	27519
824.669	27439
824.809	27576
824.949	27648
825.089	27663
825.228	27538
825.368	27344
825.508	27332
825.648	27344
825.787	27424
825.927	27450
826.067	27325
826.206	27332
826.346	27367
826.485	27363
826.625	27340
826.765	27447
826.904	27344
827.044	27081
827.183	26902
827.323	27096
827.462	27043
827.601	27093
827.741	26948
827.88	26933
828.02	26921
828.159	27036
828.298	26902
828.437	27127
828.577	26891
828.716	27074
828.855	26876
828.994	26731
829.134	26590
829.273	26674
829.412	26609
829.551	26564
829.69	26583
829.829	26598
829.968	26674
830.107	26762
830.246	26708
830.385	26568
830.524	26598
830.663	26503
830.802	26259
830.941	26256
831.08	26164
831.219	26313
831.357	26111
831.496	26404
831.635	26271
831.774	26259
831.913	26161
832.051	26103
832.19	25826
832.329	25959
832.467	25898
832.606	25738
832.744	25784
832.883	25811
833.022	25928
833.16	25852
833.299	25772
833.437	25974
833.576	25993
833.714	25906
833.852	26043
833.991	25978
834.129	25997
834.267	25909
834.406	25727
834.544	25963
834.682	25928
834.821	25887
834.959	26001
835.097	25833
835.235	25887
835.373	25814
835.511	25944
835.65	25666
835.788	25700
835.926	25563
836.064	25518
836.202	25510
836.34	25693
836.478	25769
836.615	25578
836.753	25704
836.891	25689
837.029	25795
837.167	25670
837.305	25693
837.443	25590
837.58	25472
837.718	25616
837.856	25434
837.993	25441
838.131	25419
838.269	25274
838.406	25434
838.544	25282
838.681	25114
838.819	25099
838.956	25012
839.094	24863
839.231	24977
839.369	25122
839.506	25354
839.643	25122
839.781	24966
839.918	24909
840.055	24890
840.193	24852
840.33	24787
840.467	24821
840.604	24837
840.742	25137
840.879	24597
841.016	24779
841.153	24635
841.29	25015
841.427	24772
841.564	24878
841.701	24745
841.838	24730
841.975	24677
842.112	24738
842.249	24719
842.385	24608
842.522	24692
842.659	24563
842.796	24399
842.933	24517
843.069	24536
843.206	24528
843.343	24570
843.479	24509
843.616	24399
843.752	24247
843.889	24300
844.025	24490
844.162	24220
844.298	24361
844.435	24159
844.571	24254
844.708	24292
844.844	24292
844.98	24338
845.117	24235
845.253	24213
845.389	24049
845.525	24152
845.661	24144
845.798	23923
845.934	23908
846.07	23916
846.206	24167
846.342	24087
846.478	23931
846.614	23817
846.75	23726
846.886	23680
847.022	23771
847.158	23737
847.294	23680
847.429	23729
847.565	23634
847.701	23916
847.837	23376
847.972	23562
848.108	23368
848.244	23509
848.379	23299
848.515	23288
848.65	23189
848.786	23235
848.921	23143
849.057	23395
849.192	23288
849.328	23242
849.463	23200
849.598	23220
849.734	23060
849.869	23086
850.004	23083
850.14	23003
850.275	23071
850.41	22927
850.545	22968
850.68	22938
850.815	22915
850.95	22835
851.085	23117
851.22	22995
851.355	22995
851.49	23006
851.625	22942
851.76	22843
851.895	22801
852.03	22889
852.165	23022
852.299	22923
852.434	23041
852.569	23029
852.703	22877
852.838	23048
852.973	23117
853.107	23083
853.242	22957
853.376	22835
853.511	22656
853.645	22698
853.78	22710
853.914	22839
854.048	22740
854.183	22763
854.317	22660
854.451	22767
854.585	22694
854.72	22786
854.854	22759
854.988	22702
855.122	22656
855.256	22660
855.39	22721
855.524	22782
855.658	22653
855.792	22873
855.926	22831
856.06	22782
856.194	22786
856.327	22763
856.461	22736
856.595	22649
856.729	22656
856.862	22892
856.996	22767
857.13	22797
857.263	22820
857.397	22839
857.53	22748
857.664	22782
857.797	22812
857.931	22854
858.064	22763
858.197	22873
858.331	22736
858.464	22774
858.597	22637
858.731	22656
858.864	22668
858.997	22713
859.13	22748
859.263	22752
859.396	22767
859.529	22729
859.662	22778
859.795	22771
859.928	22710
860.061	22805
860.194	22866
860.327	22805
860.46	22752
860.592	22778
860.725	22881
860.858	22816
860.99	22824
861.123	22607
861.256	22554
861.388	22653
861.521	23444
861.653	22668
861.786	22500
861.918	22557
862.05	22713
862.183	22599
862.315	22637
862.447	22831
862.58	22596
862.712	22375
862.844	22367
862.976	22664
863.108	22497
863.24	22790
863.372	22131
863.504	22481
863.636	22341
863.768	22329
863.9	22405
864.032	22314
864.164	22360
864.296	22344
864.428	22405
864.559	22519
864.691	22398
864.823	22394
864.954	22424
865.086	22405
865.217	22329
865.349	22265
865.48	22363
865.612	22337
865.743	22405
865.875	22318
866.006	22291
866.137	22386
866.269	22215
866.4	22360
866.531	22086
866.662	22219
866.793	22131
866.924	22261
867.055	22128
867.186	22139
867.317	22112
867.448	22261
867.579	22154
867.71	22036
867.841	22101
867.972	22169
868.103	22150
868.233	22280
868.364	22131
868.495	22249
868.625	22325
868.756	22554
868.886	22466
869.017	22455
869.147	22462
869.278	22474
869.408	22398
869.539	22466
869.669	22421
869.799	22371
869.929	22580
870.06	22504
870.19	22771
870.32	22653
870.45	22835
870.58	22660
870.71	22915
870.84	22915
870.97	22793
871.1	22835
871.23	22965
871.36	22987
871.489	22892
871.619	23006
871.749	22946
871.879	23121
872.008	23128
872.138	22987
872.267	23052
872.397	22885
872.526	22809
872.656	22831
872.785	22752
872.915	23006
873.044	23094
873.173	23033
873.303	23056
873.432	23025
873.561	23071
873.69	23071
873.819	23010
873.948	22965
874.077	22991
874.206	23071
874.335	23064
874.464	23220
874.593	23258
874.722	23121
874.851	23254
874.979	23212
875.108	23273
875.237	23212
875.365	22999
875.494	23181
875.623	23318
875.751	23212
875.88	23231
876.008	23364
876.136	23391
876.265	23627
876.393	23752
876.521	23779
876.65	23649
876.778	23493
876.906	23531
877.034	23486
877.162	23558
877.29	23562
877.418	23543
877.546	23615
877.674	23665
877.802	23581
877.93	23520
878.058	23543
878.185	23520
878.313	23611
878.441	23547
878.568	23372
878.696	23436
878.824	23619
878.951	23570
879.079	23703
879.206	23874
879.333	23615
879.461	23619
879.588	23707
879.715	23741
879.842	23855
879.97	23752
880.097	23216
880.224	23414
880.351	23368
880.478	23326
880.605	23341
880.732	23387
880.859	23623
880.986	23433
881.112	23379
881.239	23269
881.366	23181
881.493	22976
881.619	23143
881.746	23018
881.872	22999
881.999	22942
882.125	22869
882.252	22987
882.378	22866
882.505	23056
882.631	22869
882.757	22824
882.883	22668
883.01	22470
883.136	22675
883.262	22481
883.388	22603
883.514	22603
883.64	22713
883.766	22584
883.892	22478
884.018	22447
884.143	22569
884.269	22527
884.395	22447
884.52	22249
884.646	22363
884.772	22147
884.897	22169
885.023	22295
885.148	22432
885.274	22470
885.399	22409
885.524	22341
885.65	22268
885.775	22238
885.9	22177
886.025	22276
886.15	22344
886.275	22112
886.4	22143
886.525	22166
886.65	22116
886.775	22116
886.9	22402
887.025	22371
887.149	22219
887.274	22147
887.399	21903
887.523	22082
887.648	21895
887.773	21911
887.897	22086
888.021	22112
888.146	22025
888.27	21972
888.395	22074
888.519	22090
888.643	22021
888.767	22055
888.891	21880
889.015	21842
889.139	21861
889.263	21797
889.387	21869
889.511	21972
889.635	21857
889.759	21797
889.883	21713
890.006	21766
890.13	21819
890.254	21637
890.377	21766
890.501	21473
890.624	21511
890.748	21511
890.871	21355
890.995	21374
891.118	21203
891.241	21313
891.364	21393
891.488	21408
891.611	21344
891.734	21298
891.857	21412
891.98	21272
892.103	21458
892.226	21283
892.349	21264
892.471	21180
892.594	21291
892.717	21161
892.839	21237
892.962	21291
893.085	21169
893.207	21199
893.33	21039
893.452	21256
893.575	21241
893.697	21264
893.819	21340
893.941	21462
894.064	21405
894.186	21081
894.308	21070
894.43	21306
894.552	21363
894.674	21176
894.796	21116
894.918	21154
895.04	21135
895.161	21287
895.283	21359
895.405	21233
895.526	21169
895.648	21203
895.769	21291
895.891	21237
896.012	21321
896.134	21332
896.255	21264
896.376	21150
896.498	21203
896.619	21370
896.74	21272
896.861	21287
896.982	21599
897.103	21690
897.224	21545
897.345	21439
897.466	21351
897.587	21450
897.708	21660
897.828	21378
897.949	21389
898.07	21192
898.19	21435
898.311	21557
898.431	21260
898.552	21405
898.672	21351
898.792	21504
898.913	21397
899.033	21275
899.153	21157
899.273	21058
899.393	21043
899.513	21222
899.633	21161
899.753	21116
899.873	21039
899.993	21161
900.113	21089
900.232	20963
900.352	21070
900.472	20963
900.591	20872
900.711	20933
900.83	20868
900.95	20933
901.069	21005
901.189	20708
901.308	20556
901.427	20393
901.546	20427
901.665	20568
901.784	20450
901.904	20328
902.023	20122
902.141	20005
902.26	19909
902.379	19974
902.498	19883
902.617	19860
902.735	19894
902.854	20035
902.973	19803
903.091	19605
903.21	19578
903.328	19681
903.446	19582
903.565	19384
903.683	19384
903.801	19240
903.919	19392
904.038	19324
904.156	19209
904.274	19240
904.392	19179
904.51	19095
904.627	19072
904.745	19148
904.863	19160
904.981	18954
905.098	18795
905.216	18821
905.334	18692
905.451	18852
905.569	18825
905.686	18745
905.803	18821
905.921	18593
906.038	18681
906.155	18509
906.272	18525
906.389	18703
906.506	18350
906.623	18338
906.74	18433
906.857	18209
906.974	18247
907.091	18353
907.208	18456
907.324	18315
907.441	18129
907.557	17954
907.674	18079
907.79	17950
907.907	18102
908.023	18049
908.139	17988
908.256	18034
908.372	17870
908.488	17939
908.604	17691
908.72	17668
908.836	17653
908.952	17573
909.068	17611
909.184	17847
909.3	17707
909.415	17710
909.531	17615
909.647	17383
909.762	17288
909.878	17356
909.993	17414
910.108	17258
910.224	17383
910.339	17444
910.454	17311
910.57	17181
910.685	17037
910.8	17349
910.915	17307
911.03	17132
911.145	17003
911.259	16908
911.374	16961
911.489	16862
911.604	16824
911.718	16725
911.833	16634
911.947	16645
912.062	16660
912.176	16618
912.291	16733
912.405	16653
912.519	16805
912.633	16858
912.748	16637
912.862	16615
912.976	16531
913.09	16280
913.204	16440
913.318	16447
913.431	16550
913.545	16489
913.659	16542
913.772	16417
913.886	16306
914	16173
914.113	16356
914.226	16268
914.34	16337
914.453	16223
914.566	16230
914.68	16063
914.793	16044
914.906	15960
915.019	15949
915.132	15785
915.245	15854
915.358	15934
915.47	15854
915.583	15842
915.696	15930
915.809	15979
915.921	16010
916.034	15747
916.146	15766
916.259	15717
916.371	15800
916.483	15766
916.595	15644
916.708	15709
916.82	15660
916.932	15587
917.044	15610
917.156	15629
917.268	15515
917.38	15500
917.491	15466
917.603	15485
917.715	15439
917.826	15622
917.938	15359
918.049	15348
918.161	15329
918.272	15507
918.384	15507
918.495	15313
918.606	15214
918.717	15108
918.828	15176
918.939	15165
919.05	15169
919.161	15058
919.272	15028
919.383	15039
919.494	15218
919.604	15340
919.715	15127
919.826	15116
919.936	15043
920.047	15222
920.157	15116
920.267	15325
920.378	15146
920.488	15085
920.598	15408
920.708	15519
920.818	15245
920.928	15211
921.038	15412
921.148	15344
921.258	15024
921.368	14921
921.477	14960
921.587	14792
921.697	14712
921.806	14792
921.916	14674
922.025	14549
922.134	14518
922.244	14396
922.353	14419
922.462	14256
922.571	14355
922.68	14187
922.789	14161
922.898	14191
923.007	14069
923.116	14062
923.224	14054
923.333	14107
923.442	13989
923.55	13921
923.659	13890
923.767	14046
923.876	13909
923.984	13951
924.092	13738
924.201	13887
924.309	13864
924.417	13887
924.525	13750
924.633	13750
924.741	14693
924.849	13597
924.956	13769
925.064	13601
925.172	13400
925.279	13460
925.387	13533
925.494	13476
925.602	13571
925.709	13559
925.816	13392
925.924	13377
926.031	13460
926.138	13377
926.245	13472
926.352	13293
926.459	13476
926.566	13506
926.673	13358
926.779	13225
926.886	13221
926.993	13050
927.099	12973
927.206	12985
927.312	12996
927.419	13065
927.525	12947
927.631	13091
927.737	12875
927.843	12871
927.95	12798
928.056	12768
928.162	12821
928.267	12916
928.373	13563
928.479	12962
928.585	12696
928.69	12696
928.796	12779
928.901	12677
929.007	12566
929.112	12760
929.218	12639
929.323	12532
929.428	12452
929.533	12642
929.638	12532
929.743	12521
929.848	12506
929.953	12509
930.058	12414
930.163	12220
930.267	12220
930.372	12353
930.477	12163
930.581	12448
930.685	12194
930.79	12049
930.894	12114
930.998	11996
931.103	12148
931.207	11786
931.311	11794
931.415	11634
931.519	11490
931.623	11436
