Data from test_V78500241_2622.txt Node
Date: Fri Mar 25 15:59:57 CST 2022
User: usil
Spectrometer: V785-0024
Trigger mode: 0
Integration Time (sec): 4.000000E-1
Scans to average: 1
Nonlinearity correction enabled: false
Boxcar width: 0
Storing dark spectrum: false
XAxis mode: Wavelengths
Number of Pixels in Spectrum: 1024
>>>>>Begin Spectral Data<<<<<
801.071	28972
801.214	28976
801.356	28687
801.499	28717
801.641	28546
801.783	28660
801.926	28683
802.068	28580
802.211	28573
802.353	28493
802.496	28371
802.638	28238
802.78	28333
802.923	28181
803.065	28226
803.208	28207
803.35	28341
803.492	28466
803.635	28516
803.777	28413
803.919	28573
804.061	28847
804.204	28596
804.346	28478
804.488	28405
804.63	28535
804.773	28554
804.915	28748
805.057	28763
805.199	28485
805.341	28668
805.483	28809
805.626	28790
805.768	28637
805.91	28767
806.052	28782
806.194	28607
806.336	28900
806.478	28733
806.62	28782
806.762	28854
806.904	29124
807.046	29353
807.188	29014
807.33	29147
807.472	29227
807.614	29128
807.756	29083
807.898	29010
808.04	28892
808.182	29048
808.324	28934
808.465	29151
808.607	29193
808.749	29478
808.891	29398
809.033	29543
809.174	29608
809.316	29383
809.458	29493
809.6	29307
809.741	29425
809.883	29630
810.025	29794
810.166	29657
810.308	29707
810.45	29722
810.591	29638
810.733	29554
810.875	29353
811.016	29375
811.158	29387
811.299	29539
811.441	29596
811.582	29535
811.724	29395
811.865	29482
812.007	29516
812.148	29486
812.29	29535
812.431	29573
812.573	29699
812.714	29847
812.855	29927
812.997	30068
813.138	30106
813.279	30087
813.421	29882
813.562	29889
813.703	29783
813.845	29691
813.986	29528
814.127	29208
814.268	28888
814.41	29181
814.551	29075
814.692	29208
814.833	28911
814.974	29098
815.115	29090
815.256	29109
815.397	29094
815.539	28923
815.68	28862
815.821	28976
815.962	28896
816.103	29037
816.244	28729
816.385	28896
816.526	28630
816.666	28592
816.807	28466
816.948	28493
817.089	28565
817.23	28649
817.371	28611
817.512	28497
817.653	28535
817.793	28413
817.934	28367
818.075	28417
818.216	28470
818.356	28500
818.497	28417
818.638	28166
818.778	28386
818.919	28105
819.06	28287
819.2	28447
819.341	28405
819.481	28497
819.622	28656
819.762	28877
819.903	28687
820.043	28679
820.184	28447
820.324	28626
820.465	28622
820.605	28584
820.746	28653
820.886	28516
821.026	28599
821.167	28554
821.307	28550
821.447	28519
821.588	28440
821.728	28249
821.868	28097
822.008	27968
822.149	27918
822.289	28040
822.429	27781
822.569	27633
822.709	27618
822.849	27526
822.99	27591
823.13	27427
823.27	27405
823.41	27332
823.55	27214
823.69	27374
823.83	27340
823.97	27104
824.11	27055
824.25	27100
824.389	27142
824.529	27161
824.669	27074
824.809	27252
824.949	27199
825.089	27230
825.228	27192
825.368	26861
825.508	26952
825.648	26902
825.787	26979
825.927	27192
826.067	26937
826.206	26910
826.346	26971
826.485	27051
826.625	27081
826.765	27127
826.904	26998
827.044	26674
827.183	26887
827.323	26720
827.462	26625
827.601	26727
827.741	26773
827.88	26845
828.02	26689
828.159	26587
828.298	26769
828.437	26838
828.577	26716
828.716	26819
828.855	26625
828.994	26408
829.134	26370
829.273	26503
829.412	26218
829.551	26343
829.69	26324
829.829	26377
829.968	26450
830.107	26511
830.246	26385
830.385	26370
830.524	26362
830.663	26240
830.802	26161
830.941	26058
831.08	25989
831.219	26237
831.357	26081
831.496	26206
831.635	26145
831.774	25947
831.913	25826
832.051	25811
832.19	25784
832.329	25727
832.467	25803
832.606	25666
832.744	25685
832.883	25586
833.022	25658
833.16	25681
833.299	25742
833.437	25594
833.576	25746
833.714	25753
833.852	25727
833.991	25750
834.129	25738
834.267	25719
834.406	25776
834.544	25811
834.682	25620
834.821	25837
834.959	25917
835.097	25666
835.235	25765
835.373	25704
835.511	25849
835.65	25567
835.788	25620
835.926	25491
836.064	25362
836.202	25392
836.34	25521
836.478	25674
836.615	25499
836.753	25445
836.891	25544
837.029	25495
837.167	25548
837.305	25441
837.443	25438
837.58	25301
837.718	25495
837.856	25304
837.993	25491
838.131	25381
838.269	25236
838.406	25213
838.544	25240
838.681	25072
838.819	24981
838.956	24760
839.094	24901
839.231	24989
839.369	24996
839.506	25263
839.643	25160
839.781	24852
839.918	24852
840.055	24875
840.193	24757
840.33	24658
840.467	24760
840.604	24700
840.742	25004
840.879	24547
841.016	24669
841.153	24574
841.29	24928
841.427	24707
841.564	24730
841.701	24768
841.838	24745
841.975	24696
842.112	24631
842.249	24650
842.385	24597
842.522	24840
842.659	24604
842.796	24616
842.933	24570
843.069	24422
843.206	24483
843.343	24570
843.479	24448
843.616	24578
843.752	24140
843.889	24388
844.025	24483
844.162	24216
844.298	24232
844.435	24277
844.571	24327
844.708	24365
844.844	24448
844.98	24414
845.117	24464
845.253	24163
845.389	24144
845.525	24273
845.661	24247
845.798	23996
845.934	24022
846.07	24076
846.206	24064
846.342	24060
846.478	23916
846.614	23722
846.75	23802
846.886	23809
847.022	23885
847.158	23802
847.294	23840
847.429	23737
847.565	23699
847.701	24049
847.837	23387
847.972	23577
848.108	23520
848.244	23554
848.379	23280
848.515	23372
848.65	23379
848.786	23269
848.921	23433
849.057	23376
849.192	23345
849.328	23398
849.463	23265
849.598	23277
849.734	23162
849.869	23185
850.004	23197
850.14	23098
850.275	23155
850.41	23197
850.545	23067
850.68	23064
850.815	23086
850.95	23037
851.085	23208
851.22	23261
851.355	23079
851.49	23044
851.625	22949
851.76	23185
851.895	23037
852.03	22957
852.165	23117
852.299	23075
852.434	23162
852.569	23102
852.703	23102
852.838	23086
852.973	23220
853.107	23280
853.242	23064
853.376	22873
853.511	22828
853.645	22923
853.78	22995
853.914	22812
854.048	22763
854.183	22843
854.317	22904
854.451	22984
854.585	22938
854.72	22900
854.854	23102
854.988	22752
855.122	22854
855.256	22809
855.39	22949
855.524	22877
855.658	22949
855.792	22927
855.926	22805
856.06	22923
856.194	22896
856.327	22824
856.461	22816
856.595	22801
856.729	22942
856.862	23041
856.996	22953
857.13	22934
857.263	22892
857.397	22999
857.53	23105
857.664	23044
857.797	23003
857.931	22900
858.064	22866
858.197	22999
858.331	22938
858.464	22831
858.597	22641
858.731	22839
858.864	22839
858.997	22915
859.13	22835
859.263	22980
859.396	23064
859.529	22850
859.662	22740
859.795	22938
859.928	22847
860.061	23086
860.194	23022
860.327	23014
860.46	22919
860.592	23060
860.725	23090
860.858	23037
860.99	22889
861.123	22889
861.256	22820
861.388	22862
861.521	23505
861.653	22858
861.786	22713
861.918	22656
862.05	22835
862.183	22858
862.315	22744
862.447	22873
862.58	22736
862.712	22637
862.844	22527
862.976	22653
863.108	22687
863.24	22984
863.372	22634
863.504	22713
863.636	22573
863.768	22649
863.9	22675
864.032	22565
864.164	22546
864.296	22577
864.428	22736
864.559	22637
864.691	22626
864.823	22542
864.954	22527
865.086	22596
865.217	22584
865.349	22432
865.48	22535
865.612	22451
865.743	22535
865.875	22470
866.006	22421
866.137	22436
866.269	22546
866.4	22303
866.531	22478
866.662	22379
866.793	22447
866.924	22367
867.055	22481
867.186	22303
867.317	22424
867.448	22344
867.579	22409
867.71	22352
867.841	22295
867.972	22363
868.103	22375
868.233	22474
868.364	22413
868.495	22577
868.625	22508
868.756	22713
868.886	22538
869.017	22675
869.147	22710
869.278	22752
869.408	22531
869.539	22630
869.669	22713
869.799	22691
869.929	22767
870.06	22710
870.19	22923
870.32	22976
870.45	22911
870.58	23014
870.71	23162
870.84	23242
870.97	23025
871.1	23048
871.23	23315
871.36	23200
871.489	23140
871.619	23223
871.749	23231
871.879	23258
872.008	23307
872.138	23246
872.267	23185
872.397	23105
872.526	23113
872.656	23048
872.785	23094
872.915	23280
873.044	23326
873.173	23303
873.303	23193
873.432	23208
873.561	23311
873.69	23231
873.819	23273
873.948	23395
874.077	23246
874.206	23242
874.335	23273
874.464	23258
874.593	23535
874.722	23448
874.851	23592
874.979	23497
875.108	23512
875.237	23318
875.365	23261
875.494	23505
875.623	23501
875.751	23372
875.88	23497
876.008	23566
876.136	23600
876.265	23847
876.393	24038
876.521	23832
876.65	23783
876.778	23904
876.906	23828
877.034	23737
877.162	23889
877.29	23687
877.418	23851
877.546	23733
877.674	23783
877.802	23714
877.93	23748
878.058	23851
878.185	23710
878.313	23714
878.441	23710
878.568	23551
878.696	23634
878.824	23821
878.951	23920
879.079	24057
879.206	23958
879.333	23935
879.461	23939
879.588	23996
879.715	23866
879.842	24045
879.97	23687
880.097	23581
880.224	23657
880.351	23699
880.478	23596
880.605	23501
880.732	23524
880.859	23828
880.986	23676
881.112	23661
881.239	23398
881.366	23341
881.493	23326
881.619	23185
881.746	23086
881.872	23200
881.999	23178
882.125	23044
882.252	23204
882.378	23113
882.505	23227
882.631	22930
882.757	22984
882.883	22976
883.01	22755
883.136	22805
883.262	22740
883.388	22752
883.514	22774
883.64	22972
883.766	22691
883.892	22691
884.018	22679
884.143	22736
884.269	22782
884.395	22596
884.52	22459
884.646	22512
884.772	22421
884.897	22371
885.023	22462
885.148	22523
885.274	22546
885.399	22531
885.524	22459
885.65	22428
885.775	22527
885.9	22440
886.025	22580
886.15	22462
886.275	22440
886.4	22367
886.525	22512
886.65	22375
886.775	22322
886.9	22584
887.025	22664
887.149	22310
887.274	22246
887.399	22276
887.523	22166
887.648	22124
887.773	22124
887.897	22166
888.021	22253
888.146	22192
888.27	22402
888.395	22181
888.519	22314
888.643	22181
888.767	22253
888.891	22086
889.015	21884
889.139	22226
889.263	22032
889.387	22120
889.511	22242
889.635	22055
889.759	22040
889.883	21998
890.006	21915
890.13	22082
890.254	21846
890.377	22010
890.501	21793
890.624	21614
890.748	21701
890.871	21625
890.995	21542
891.118	21496
891.241	21450
891.364	21515
891.488	21679
891.611	21462
891.734	21507
891.857	21644
891.98	21549
892.103	21656
892.226	21507
892.349	21515
892.471	21233
892.594	21462
892.717	21450
892.839	21355
892.962	21492
893.085	21561
893.207	21450
893.33	21428
893.452	21340
893.575	21526
893.697	21344
893.819	21610
893.941	21545
894.064	21504
894.186	21420
894.308	21367
894.43	21557
894.552	21587
894.674	21599
894.796	21313
894.918	21500
895.04	21329
895.161	21572
895.283	21389
895.405	21370
895.526	21252
895.648	21439
895.769	21382
895.891	21393
896.012	21545
896.134	21412
896.255	21332
896.376	21363
896.498	21389
896.619	21416
896.74	21439
896.861	21538
896.982	21766
897.103	21846
897.224	21583
897.345	21633
897.466	21443
897.587	21564
897.708	21595
897.828	21701
897.949	21572
898.07	21355
898.19	21424
898.311	21675
898.431	21466
898.552	21633
898.672	21656
898.792	21701
898.913	21515
899.033	21496
899.153	21332
899.273	21306
899.393	21401
899.513	21351
899.633	21249
899.753	21340
899.873	21173
899.993	21298
900.113	21268
900.232	21275
900.352	21142
900.472	21146
900.591	21028
900.711	21036
900.83	20982
900.95	21192
901.069	21157
901.189	20990
901.308	20864
901.427	20613
901.546	20632
901.665	20659
901.784	20629
901.904	20568
902.023	20465
902.141	20252
902.26	20199
902.379	20130
902.498	20172
902.617	20084
902.735	20180
902.854	20054
902.973	19955
903.091	19814
903.21	19727
903.328	19742
903.446	19696
903.565	19635
903.683	19578
903.801	19480
903.919	19601
904.038	19464
904.156	19419
904.274	19449
904.392	19282
904.51	19335
904.627	19324
904.745	19316
904.863	19304
904.981	19263
905.098	19076
905.216	18905
905.334	19137
905.451	18985
905.569	18939
905.686	19088
905.803	18973
905.921	18791
906.038	18798
906.155	18878
906.272	18665
906.389	18677
906.506	18623
906.623	18544
906.74	18608
906.857	18578
906.974	18475
907.091	18612
907.208	18700
907.324	18517
907.441	18365
907.557	18281
907.674	18224
907.79	18140
907.907	18262
908.023	18243
908.139	18300
908.256	18133
908.372	18186
908.488	18209
908.604	17980
908.72	17931
908.836	17958
908.952	17874
909.068	17977
909.184	17996
909.3	17866
909.415	17920
909.531	18019
909.647	17699
909.762	17687
909.878	17653
909.993	17604
910.108	17611
910.224	17566
910.339	17566
910.454	17478
910.57	17490
910.685	17395
910.8	17638
910.915	17566
911.03	17463
911.145	17360
911.259	17265
911.374	17258
911.489	17200
911.604	17136
911.718	16885
911.833	16930
911.947	16911
912.062	16820
912.176	16980
912.291	17064
912.405	16919
912.519	17090
912.633	17117
912.748	17018
912.862	16919
912.976	16824
913.09	16630
913.204	16721
913.318	16828
913.431	16831
913.545	16824
913.659	16896
913.772	16835
913.886	16523
914	16565
914.113	16691
914.226	16653
914.34	16580
914.453	16405
914.566	16554
914.68	16489
914.793	16466
914.906	16215
915.019	16268
915.132	16116
915.245	16090
915.358	16219
915.47	16120
915.583	16135
915.696	16147
915.809	16185
915.921	16234
916.034	16044
916.146	15968
916.259	15960
916.371	16032
916.483	16131
916.595	15880
916.708	15979
916.82	15861
916.932	15922
917.044	15873
917.156	15892
917.268	15755
917.38	15762
917.491	15713
917.603	15728
917.715	15751
917.826	15865
917.938	15701
918.049	15553
918.161	15701
918.272	15808
918.384	15690
918.495	15603
918.606	15587
918.717	15382
918.828	15485
918.939	15557
919.05	15397
919.161	15458
919.272	15233
919.383	15325
919.494	15488
919.604	15667
919.715	15389
919.826	15317
919.936	15367
920.047	15428
920.157	15469
920.267	15629
920.378	15443
920.488	15321
920.598	15538
920.708	15660
920.818	15500
920.928	15428
921.038	15595
921.148	15606
921.258	15450
921.368	15237
921.477	15055
921.587	15104
921.697	14979
921.806	15123
921.916	15062
922.025	14868
922.134	14807
922.244	14659
922.353	14826
922.462	14632
922.571	14568
922.68	14518
922.789	14343
922.898	14324
923.007	14404
923.116	14404
923.224	14389
923.333	14385
923.442	14286
923.55	14240
923.659	14282
923.767	14278
923.876	14214
923.984	14233
924.092	14149
924.201	14187
924.309	14221
924.417	14100
924.525	14062
924.633	14039
924.741	15024
924.849	13845
924.956	13978
925.064	13818
925.172	13864
925.279	13719
925.387	13715
925.494	13856
925.602	13955
925.709	13746
925.816	13670
925.924	13795
926.031	13860
926.138	13788
926.245	13731
926.352	13521
926.459	13772
926.566	13772
926.673	13571
926.779	13476
926.886	13582
926.993	13381
927.099	13339
927.206	13179
927.312	13304
927.419	13304
927.525	13327
927.631	13312
927.737	13198
927.843	13122
927.95	13034
928.056	13076
928.162	13031
928.267	13236
928.373	13681
928.479	13274
928.585	12909
928.69	13065
928.796	13156
928.901	13015
929.007	12939
929.112	13034
929.218	12905
929.323	12840
929.428	12821
929.533	12958
929.638	12715
929.743	12802
929.848	12810
929.953	12722
930.058	12646
930.163	12452
930.267	12464
930.372	12612
930.477	12502
930.581	12700
930.685	12616
930.79	12365
930.894	12342
930.998	12380
931.103	12403
931.207	12068
931.311	11977
931.415	11855
931.519	11737
931.623	11760
