Data from test_V78500241_3669.txt Node
Date: Fri Mar 25 16:07:13 CST 2022
User: usil
Spectrometer: V785-0024
Trigger mode: 0
Integration Time (sec): 4.000000E-1
Scans to average: 1
Nonlinearity correction enabled: false
Boxcar width: 0
Storing dark spectrum: false
XAxis mode: Wavelengths
Number of Pixels in Spectrum: 1024
>>>>>Begin Spectral Data<<<<<
801.071	28379
801.214	28204
801.356	27998
801.499	27899
801.641	27979
801.783	28002
801.926	27857
802.068	27991
802.211	27766
802.353	27835
802.496	27542
802.638	27663
802.78	27568
802.923	27481
803.065	27477
803.208	27416
803.35	27709
803.492	27808
803.635	27800
803.777	27580
803.919	27728
804.061	28074
804.204	27857
804.346	27720
804.488	27732
804.63	27861
804.773	27644
804.915	27831
805.057	28036
805.199	27930
805.341	27930
805.483	27983
805.626	27861
805.768	27922
805.91	28010
806.052	27975
806.194	27823
806.336	28044
806.478	28067
806.62	27994
806.762	28112
806.904	28268
807.046	28497
807.188	28329
807.33	28462
807.472	28596
807.614	28367
807.756	28413
807.898	28417
808.04	28173
808.182	28249
808.324	28333
808.465	28394
808.607	28637
808.749	28672
808.891	28774
809.033	28782
809.174	28603
809.316	28771
809.458	28626
809.6	28607
809.741	28805
809.883	28748
810.025	28942
810.166	28957
810.308	28904
810.45	28820
810.591	28816
810.733	28702
810.875	28733
811.016	28554
811.158	28649
811.299	28607
811.441	28847
811.582	28774
811.724	28626
811.865	28615
812.007	28691
812.148	28580
812.29	28835
812.431	28759
812.573	28991
812.714	29159
812.855	29094
812.997	29353
813.138	29429
813.279	29375
813.421	29140
813.562	29124
813.703	28873
813.845	28774
813.986	28615
814.127	28333
814.268	28322
814.41	28459
814.551	28325
814.692	28417
814.833	28242
814.974	28211
815.115	28462
815.256	28306
815.397	28242
815.539	28280
815.68	28109
815.821	28074
815.962	28310
816.103	28204
816.244	27998
816.385	28032
816.526	27934
816.666	27789
816.807	27622
816.948	27732
817.089	27797
817.23	27709
817.371	27781
817.512	27625
817.653	27641
817.793	27679
817.934	27637
818.075	27698
818.216	27629
818.356	27576
818.497	27660
818.638	27389
818.778	27447
818.919	27397
819.06	27424
819.2	27564
819.341	27751
819.481	27572
819.622	27789
819.762	28040
819.903	27907
820.043	27911
820.184	27827
820.324	27861
820.465	27873
820.605	27751
820.746	27705
820.886	27542
821.026	27812
821.167	27812
821.307	27873
821.447	27648
821.588	27603
821.728	27561
821.868	27218
822.008	27249
822.149	27165
822.289	27169
822.429	26845
822.569	26746
822.709	26876
822.849	26594
822.99	26670
823.13	26716
823.27	26606
823.41	26320
823.55	26492
823.69	26507
823.83	26480
823.97	26324
824.11	26237
824.25	26294
824.389	26317
824.529	26408
824.669	26305
824.809	26404
824.949	26358
825.089	26355
825.228	26377
825.368	26164
825.508	26206
825.648	26225
825.787	26237
825.927	26153
826.067	26145
826.206	26081
826.346	26313
826.485	26259
826.625	26157
826.765	26332
826.904	26301
827.044	26020
827.183	25917
827.323	25849
827.462	25944
827.601	25978
827.741	25932
827.88	25928
828.02	25852
828.159	25906
828.298	25871
828.437	25841
828.577	25921
828.716	25909
828.855	25723
828.994	25586
829.134	25635
829.273	25578
829.412	25499
829.551	25556
829.69	25601
829.829	25620
829.968	25567
830.107	25700
830.246	25670
830.385	25499
830.524	25658
830.663	25331
830.802	25225
830.941	25263
831.08	25152
831.219	25365
831.357	25289
831.496	25343
831.635	25183
831.774	25076
831.913	25110
832.051	25061
832.19	25008
832.329	24973
832.467	24913
832.606	24791
832.744	24791
832.883	24913
833.022	24795
833.16	24920
833.299	25061
833.437	24928
833.576	24939
833.714	24878
833.852	24909
833.991	24928
834.129	24973
834.267	25110
834.406	24939
834.544	24916
834.682	24924
834.821	24905
834.959	24989
835.097	24814
835.235	24890
835.373	24897
835.511	24939
835.65	24837
835.788	24703
835.926	24719
836.064	24593
836.202	24616
836.34	24700
836.478	24837
836.615	24730
836.753	24787
836.891	24757
837.029	24772
837.167	24681
837.305	24513
837.443	24608
837.58	24547
837.718	24616
837.856	24551
837.993	24418
838.131	24555
838.269	24479
838.406	24426
838.544	24403
838.681	24262
838.819	24209
838.956	24163
839.094	24007
839.231	24015
839.369	24201
839.506	24464
839.643	24266
839.781	24053
839.918	23912
840.055	24129
840.193	23958
840.33	23916
840.467	23992
840.604	23939
840.742	24243
840.879	23920
841.016	23961
841.153	23904
841.29	23969
841.427	23923
841.564	23931
841.701	23992
841.838	23920
841.975	23767
842.112	23920
842.249	23756
842.385	23661
842.522	23889
842.659	23901
842.796	23741
842.933	23710
843.069	23695
843.206	23653
843.343	23680
843.479	23722
843.616	23737
843.752	23509
843.889	23497
844.025	23699
844.162	23467
844.298	23543
844.435	23417
844.571	23478
844.708	23547
844.844	23726
844.98	23752
845.117	23668
845.253	23406
845.389	23322
845.525	23337
845.661	23395
845.798	23178
845.934	23227
846.07	23185
846.206	23379
846.342	23277
846.478	23265
846.614	23044
846.75	22915
846.886	22984
847.022	23033
847.158	22911
847.294	22923
847.429	23010
847.565	22904
847.701	23204
847.837	22630
847.972	22554
848.108	22748
848.244	22809
848.379	22615
848.515	22519
848.65	22519
848.786	22523
848.921	22569
849.057	22588
849.192	22668
849.328	22550
849.463	22504
849.598	22455
849.734	22402
849.869	22398
850.004	22356
850.14	22303
850.275	22295
850.41	22276
850.545	22131
850.68	22265
850.815	22318
850.95	22337
851.085	22535
851.22	22382
851.355	22337
851.49	22242
851.625	22295
851.76	22204
851.895	22158
852.03	22337
852.165	22322
852.299	22337
852.434	22432
852.569	22322
852.703	22219
852.838	22409
852.973	22470
853.107	22333
853.242	22169
853.376	22242
853.511	22078
853.645	22154
853.78	22200
853.914	22196
854.048	22097
854.183	22124
854.317	22192
854.451	22310
854.585	22173
854.72	22139
854.854	22139
854.988	22036
855.122	22048
855.256	21949
855.39	22143
855.524	22226
855.658	22211
855.792	22207
855.926	22169
856.06	22166
856.194	22226
856.327	22074
856.461	22116
856.595	22150
856.729	22093
856.862	22192
856.996	22112
857.13	22253
857.263	22257
857.397	22246
857.53	22086
857.664	22128
857.797	22234
857.931	22280
858.064	22261
858.197	22291
858.331	22150
858.464	22074
858.597	21983
858.731	22017
858.864	22101
858.997	22059
859.13	22090
859.263	22268
859.396	22253
859.529	22147
859.662	22257
859.795	22242
859.928	22143
860.061	22207
860.194	22417
860.327	22192
860.46	22192
860.592	22314
860.725	22287
860.858	22257
860.99	22070
861.123	22158
861.256	22044
861.388	22139
861.521	22847
861.653	22048
861.786	21819
861.918	21987
862.05	21895
862.183	22097
862.315	22124
862.447	22139
862.58	22067
862.712	21888
862.844	21937
862.976	21869
863.108	21903
863.24	22249
863.372	21850
863.504	21926
863.636	21812
863.768	21922
863.9	21717
864.032	21709
864.164	21797
864.296	21918
864.428	21880
864.559	21869
864.691	21888
864.823	21816
864.954	21812
865.086	21736
865.217	21846
865.349	21705
865.48	21656
865.612	21713
865.743	21835
865.875	21762
866.006	21709
866.137	21736
866.269	21827
866.4	21800
866.531	21629
866.662	21705
866.793	21485
866.924	21686
867.055	21705
867.186	21622
867.317	21629
867.448	21629
867.579	21618
867.71	21587
867.841	21587
867.972	21648
868.103	21667
868.233	21686
868.364	21591
868.495	21789
868.625	21861
868.756	21922
868.886	21770
869.017	21846
869.147	21975
869.278	22006
869.408	21835
869.539	21979
869.669	21945
869.799	22013
869.929	21987
870.06	22036
870.19	22181
870.32	22246
870.45	22192
870.58	22242
870.71	22459
870.84	22478
870.97	22291
871.1	22257
871.23	22436
871.36	22398
871.489	22440
871.619	22348
871.749	22504
871.879	22459
872.008	22596
872.138	22417
872.267	22466
872.397	22341
872.526	22348
872.656	22360
872.785	22295
872.915	22371
873.044	22660
873.173	22538
873.303	22645
873.432	22577
873.561	22653
873.69	22561
873.819	22599
873.948	22584
874.077	22519
874.206	22466
874.335	22489
874.464	22622
874.593	22725
874.722	22584
874.851	22820
874.979	22740
875.108	22615
875.237	22717
875.365	22611
875.494	22774
875.623	22805
875.751	22637
875.88	22683
876.008	22854
876.136	22927
876.265	23056
876.393	23315
876.521	23189
876.65	23155
876.778	23018
876.906	23033
877.034	23174
877.162	23098
877.29	22995
877.418	23204
877.546	23132
877.674	22995
877.802	23056
877.93	23071
878.058	22968
878.185	22949
878.313	23041
878.441	22930
878.568	22869
878.696	23044
878.824	23151
878.951	23109
879.079	23318
879.206	23360
879.333	23261
879.461	23143
879.588	23307
879.715	23337
879.842	23383
879.97	23235
880.097	22885
880.224	22953
880.351	22919
880.478	22919
880.605	22873
880.732	22991
880.859	23124
880.986	22877
881.112	23064
881.239	22793
881.366	22599
881.493	22611
881.619	22531
881.746	22561
881.872	22432
881.999	22455
882.125	22322
882.252	22546
882.378	22379
882.505	22554
882.631	22265
882.757	22234
882.883	22173
883.01	22109
883.136	22070
883.262	22131
883.388	21838
883.514	22166
883.64	22169
883.766	22078
883.892	21998
884.018	21930
884.143	22078
884.269	22200
884.395	21888
884.52	21800
884.646	21930
884.772	21751
884.897	21823
885.023	21732
885.148	21918
885.274	22013
885.399	21865
885.524	21759
885.65	21850
885.775	21793
885.9	21846
886.025	21857
886.15	21869
886.275	21713
886.4	21663
886.525	21663
886.65	21709
886.775	21652
886.9	21892
887.025	21972
887.149	21709
887.274	21538
887.399	21580
887.523	21542
887.648	21485
887.773	21473
887.897	21713
888.021	21572
888.146	21542
888.27	21618
888.395	21599
888.519	21545
888.643	21686
888.767	21625
888.891	21447
889.015	21405
889.139	21393
889.263	21363
889.387	21287
889.511	21618
889.635	21481
889.759	21374
889.883	21351
890.006	21260
890.13	21428
890.254	21207
890.377	21169
890.501	21062
890.624	21230
890.748	21264
890.871	21070
890.995	20918
891.118	20876
891.241	20830
891.364	20899
891.488	20990
891.611	20857
891.734	20925
891.857	20994
891.98	20880
892.103	20948
892.226	20929
892.349	20830
892.471	20678
892.594	20845
892.717	20880
892.839	20895
892.962	20800
893.085	20762
893.207	20758
893.33	20765
893.452	20708
893.575	20788
893.697	20743
893.819	20918
893.941	20853
894.064	20967
894.186	20739
894.308	20674
894.43	20944
894.552	20986
894.674	20807
894.796	20758
894.918	20769
895.04	20678
895.161	20834
895.283	20872
895.405	20804
895.526	20830
895.648	20792
895.769	20819
895.891	20857
896.012	20944
896.134	20842
896.255	20819
896.376	20754
896.498	20754
896.619	20644
896.74	20735
896.861	20819
896.982	21070
897.103	21325
897.224	21081
897.345	21036
897.466	20880
897.587	20937
897.708	21165
897.828	21043
897.949	21013
898.07	20834
898.19	20895
898.311	21009
898.431	20998
898.552	20906
898.672	21024
898.792	21028
898.913	20864
899.033	20937
899.153	20929
899.273	20670
899.393	20845
899.513	20765
899.633	20788
899.753	20746
899.873	20689
899.993	20708
900.113	20724
900.232	20773
900.352	20735
900.472	20488
900.591	20438
900.711	20469
900.83	20465
900.95	20518
901.069	20549
901.189	20374
901.308	20031
901.427	20062
901.546	20016
901.665	20111
901.784	20088
901.904	19913
902.023	19784
902.141	19769
902.26	19540
902.379	19689
902.498	19613
902.617	19472
902.735	19666
902.854	19582
902.973	19476
903.091	19236
903.21	19304
903.328	19217
903.446	19209
903.565	19084
903.683	19023
903.801	18947
903.919	19095
904.038	18954
904.156	18768
904.274	18795
904.392	18772
904.51	18669
904.627	18730
904.745	18837
904.863	18840
904.981	18661
905.098	18490
905.216	18414
905.334	18475
905.451	18388
905.569	18391
905.686	18467
905.803	18502
905.921	18247
906.038	18304
906.155	18239
906.272	18079
906.389	18174
906.506	18030
906.623	18114
906.74	18011
906.857	17954
906.974	17973
907.091	18060
907.208	18049
907.324	18049
907.441	17779
907.557	17760
907.674	17680
907.79	17699
907.907	17691
908.023	17832
908.139	17824
908.256	17699
908.372	17657
908.488	17596
908.604	17497
908.72	17444
908.836	17467
908.952	17379
909.068	17501
909.184	17512
909.3	17535
909.415	17501
909.531	17425
909.647	17155
909.762	17151
909.878	17086
909.993	17128
910.108	17140
910.224	17045
910.339	17094
910.454	17029
910.57	16904
910.685	16949
910.8	17170
910.915	17003
911.03	16850
911.145	16809
911.259	16660
911.374	16710
911.489	16645
911.604	16599
911.718	16523
911.833	16447
911.947	16428
912.062	16348
912.176	16409
912.291	16462
912.405	16447
912.519	16694
912.633	16691
912.748	16474
912.862	16390
912.976	16333
913.09	16154
913.204	16207
913.318	16295
913.431	16375
913.545	16398
913.659	16382
913.772	16215
913.886	16116
914	16124
914.113	16124
914.226	16188
914.34	16135
914.453	15873
914.566	16158
914.68	15918
914.793	15937
914.906	15793
915.019	15644
915.132	15587
915.245	15584
915.358	15576
915.47	15538
915.583	15644
915.696	15625
915.809	15705
915.921	15751
916.034	15526
916.146	15511
916.259	15538
916.371	15656
916.483	15580
916.595	15564
916.708	15500
916.82	15466
916.932	15389
917.044	15485
917.156	15473
917.268	15302
917.38	15370
917.491	15249
917.603	15287
917.715	15329
917.826	15351
917.938	15199
918.049	15116
918.161	15237
918.272	15291
918.384	15279
918.495	15283
918.606	15009
918.717	14990
918.828	15047
918.939	15123
919.05	14986
919.161	15070
919.272	14800
919.383	14876
919.494	14975
919.604	15211
919.715	15036
919.826	14891
919.936	14929
920.047	15097
920.157	15020
920.267	15157
920.378	15013
920.488	14864
920.598	15131
920.708	15298
920.818	15089
920.928	15024
921.038	15218
921.148	15226
921.258	14887
921.368	14883
921.477	14636
921.587	14705
921.697	14571
921.806	14625
921.916	14488
922.025	14393
922.134	14328
922.244	14271
922.353	14309
922.462	14240
922.571	14073
922.68	13997
922.789	14031
922.898	14123
923.007	13860
923.116	14039
923.224	14027
923.333	13970
923.442	13860
923.55	13776
923.659	13814
923.767	13921
923.876	13712
923.984	13811
924.092	13609
924.201	13765
924.309	13776
924.417	13761
924.525	13616
924.633	13681
924.741	14598
924.849	13392
924.956	13624
925.064	13445
925.172	13308
925.279	13468
925.387	13350
925.494	13384
925.602	13586
925.709	13434
925.816	13259
925.924	13297
926.031	13415
926.138	13339
926.245	13400
926.352	13209
926.459	13324
926.566	13407
926.673	13190
926.779	13076
926.886	13023
926.993	12958
927.099	12913
927.206	12985
927.312	12909
927.419	12954
927.525	12859
927.631	13023
927.737	12840
927.843	12783
927.95	12631
928.056	12719
928.162	12753
928.267	12901
928.373	13327
928.479	12825
928.585	12582
928.69	12696
928.796	12787
928.901	12620
929.007	12502
929.112	12650
929.218	12547
929.323	12517
929.428	12353
929.533	12547
929.638	12403
929.743	12365
929.848	12540
929.953	12471
930.058	12323
930.163	12110
930.267	12140
930.372	12277
930.477	12030
930.581	12266
930.685	12167
930.79	11916
930.894	12045
930.998	11901
931.103	11954
931.207	11714
931.311	11699
931.415	11577
931.519	11402
931.623	11402
