Data from test_V78500241_1414.txt Node
Date: Fri Mar 25 15:51:35 CST 2022
User: usil
Spectrometer: V785-0024
Trigger mode: 0
Integration Time (sec): 4.000000E-1
Scans to average: 1
Nonlinearity correction enabled: false
Boxcar width: 0
Storing dark spectrum: false
XAxis mode: Wavelengths
Number of Pixels in Spectrum: 1024
>>>>>Begin Spectral Data<<<<<
801.071	28371
801.214	28249
801.356	28063
801.499	27880
801.641	27918
801.783	27953
801.926	28029
802.068	27964
802.211	27873
802.353	27880
802.496	27656
802.638	27530
802.78	27542
802.923	27530
803.065	27568
803.208	27545
803.35	27603
803.492	27705
803.635	27850
803.777	27698
803.919	27846
804.061	28154
804.204	27975
804.346	27804
804.488	27766
804.63	27812
804.773	27694
804.915	27873
805.057	27903
805.199	27739
805.341	27945
805.483	27972
805.626	28082
805.768	27918
805.91	27884
806.052	27991
806.194	27884
806.336	28040
806.478	28082
806.62	27968
806.762	28093
806.904	28131
807.046	28497
807.188	28371
807.33	28367
807.472	28421
807.614	28470
807.756	28436
807.898	28303
808.04	28234
808.182	28249
808.324	28036
808.465	28363
808.607	28451
808.749	28611
808.891	28698
809.033	28725
809.174	28618
809.316	28630
809.458	28561
809.6	28455
809.741	28809
809.883	28812
810.025	28835
810.166	28866
810.308	28790
810.45	28938
810.591	28721
810.733	28691
810.875	28634
811.016	28531
811.158	28436
811.299	28668
811.441	28869
811.582	28752
811.724	28637
811.865	28622
812.007	28694
812.148	28519
812.29	28660
812.431	28900
812.573	28953
812.714	29094
812.855	29200
812.997	29216
813.138	29292
813.279	29105
813.421	29193
813.562	29018
813.703	29052
813.845	28873
813.986	28611
814.127	28500
814.268	28348
814.41	28379
814.551	28371
814.692	28405
814.833	28287
814.974	28219
815.115	28390
815.256	28166
815.397	28211
815.539	28333
815.68	28143
815.821	28200
815.962	28128
816.103	28017
816.244	28070
816.385	27975
816.526	27922
816.666	27743
816.807	27599
816.948	27720
817.089	27831
817.23	27656
817.371	27599
817.512	27663
817.653	27606
817.793	27553
817.934	27545
818.075	27705
818.216	27564
818.356	27583
818.497	27477
818.638	27348
818.778	27378
818.919	27408
819.06	27458
819.2	27576
819.341	27652
819.481	27614
819.622	27755
819.762	28017
819.903	27789
820.043	27770
820.184	27732
820.324	27739
820.465	27648
820.605	27793
820.746	27603
820.886	27675
821.026	27895
821.167	27679
821.307	27724
821.447	27762
821.588	27644
821.728	27507
821.868	27211
822.008	27237
822.149	27199
822.289	27233
822.429	26902
822.569	26731
822.709	26952
822.849	26537
822.99	26651
823.13	26632
823.27	26568
823.41	26442
823.55	26290
823.69	26476
823.83	26575
823.97	26492
824.11	26187
824.25	26233
824.389	26298
824.529	26294
824.669	26282
824.809	26408
824.949	26522
825.089	26389
825.228	26278
825.368	26149
825.508	26100
825.648	26233
825.787	26195
825.927	26225
826.067	26145
826.206	26077
826.346	26271
826.485	26077
826.625	26210
826.765	26336
826.904	26130
827.044	25951
827.183	25902
827.323	25944
827.462	25894
827.601	25887
827.741	25830
827.88	25803
828.02	25791
828.159	25689
828.298	25890
828.437	25955
828.577	25803
828.716	25947
828.855	25738
828.994	25533
829.134	25476
829.273	25757
829.412	25499
829.551	25438
829.69	25597
829.829	25628
829.968	25609
830.107	25552
830.246	25422
830.385	25453
830.524	25472
830.663	25392
830.802	25263
830.941	25206
831.08	25168
831.219	25171
831.357	25316
831.496	25411
831.635	25114
831.774	25168
831.913	25031
832.051	24962
832.19	24913
832.329	24939
832.467	24817
832.606	24798
832.744	24833
832.883	24837
833.022	24867
833.16	24825
833.299	24821
833.437	24738
833.576	24829
833.714	24859
833.852	24901
833.991	24958
834.129	24970
834.267	24928
834.406	24867
834.544	24878
834.682	24722
834.821	24905
834.959	25110
835.097	24768
835.235	24939
835.373	24837
835.511	24806
835.65	24677
835.788	24722
835.926	24563
836.064	24513
836.202	24585
836.34	24673
836.478	24741
836.615	24700
836.753	24646
836.891	24871
837.029	24711
837.167	24707
837.305	24707
837.443	24578
837.58	24521
837.718	24601
837.856	24612
837.993	24422
838.131	24563
838.269	24513
838.406	24456
838.544	24254
838.681	24125
838.819	24174
838.956	24003
839.094	24057
839.231	23988
839.369	24190
839.506	24433
839.643	24273
839.781	24038
839.918	24060
840.055	23999
840.193	23980
840.33	23916
840.467	23809
840.604	23912
840.742	24190
840.879	23748
841.016	23817
841.153	23805
841.29	23927
841.427	23859
841.564	23969
841.701	23942
841.838	24038
841.975	23904
842.112	23710
842.249	23813
842.385	23608
842.522	23920
842.659	23726
842.796	23630
842.933	23653
843.069	23608
843.206	23623
843.343	23741
843.479	23821
843.616	23722
843.752	23455
843.889	23497
844.025	23653
844.162	23531
844.298	23554
844.435	23395
844.571	23353
844.708	23570
844.844	23471
844.98	23520
845.117	23608
845.253	23315
845.389	23212
845.525	23383
845.661	23288
845.798	23162
845.934	23143
846.07	23170
846.206	23216
846.342	23280
846.478	23189
846.614	22991
846.75	22820
846.886	22843
847.022	22987
847.158	22957
847.294	22847
847.429	23006
847.565	22809
847.701	23064
847.837	22615
847.972	22531
848.108	22691
848.244	22584
848.379	22519
848.515	22550
848.65	22459
848.786	22516
848.921	22436
849.057	22500
849.192	22675
849.328	22516
849.463	22596
849.598	22424
849.734	22485
849.869	22371
850.004	22207
850.14	22303
850.275	22291
850.41	22131
850.545	22082
850.68	22265
850.815	22306
850.95	22234
851.085	22428
851.22	22261
851.355	22242
851.49	22234
851.625	22185
851.76	22207
851.895	22158
852.03	22181
852.165	22226
852.299	22223
852.434	22280
852.569	22287
852.703	22265
852.838	22299
852.973	22356
853.107	22363
853.242	22287
853.376	22070
853.511	22002
853.645	22070
853.78	22090
853.914	22166
854.048	21975
854.183	22055
854.317	22105
854.451	22211
854.585	22147
854.72	22040
854.854	22185
854.988	21964
855.122	22074
855.256	22010
855.39	22036
855.524	22166
855.658	22070
855.792	22135
855.926	22070
856.06	22013
856.194	22131
856.327	22059
856.461	21994
856.595	21991
856.729	22010
856.862	22074
856.996	22097
857.13	22139
857.263	22314
857.397	22143
857.53	22029
857.664	22090
857.797	22242
857.931	22150
858.064	22124
858.197	22150
858.331	21968
858.464	22010
858.597	21972
858.731	22063
858.864	21994
858.997	21979
859.13	22128
859.263	22101
859.396	22169
859.529	21968
859.662	22036
859.795	22029
859.928	22093
860.061	22219
860.194	22192
860.327	22154
860.46	22181
860.592	22162
860.725	22219
860.858	22177
860.99	22048
861.123	22036
861.256	21964
861.388	22044
861.521	22793
861.653	21956
861.786	21698
861.918	21842
862.05	22048
862.183	21972
862.315	21991
862.447	22109
862.58	22021
862.712	21724
862.844	21831
862.976	21937
863.108	21838
863.24	22314
863.372	21770
863.504	21869
863.636	21846
863.768	21766
863.9	21812
864.032	21698
864.164	21804
864.296	21846
864.428	21854
864.559	21831
864.691	21732
864.823	21778
864.954	21797
865.086	21785
865.217	21743
865.349	21652
865.48	21652
865.612	21797
865.743	21755
865.875	21694
866.006	21660
866.137	21679
866.269	21705
866.4	21564
866.531	21485
866.662	21542
866.793	21587
866.924	21641
867.055	21660
867.186	21675
867.317	21519
867.448	21583
867.579	21599
867.71	21526
867.841	21511
867.972	21641
868.103	21519
868.233	21690
868.364	21637
868.495	21759
868.625	21888
868.756	21979
868.886	21759
869.017	21865
869.147	21892
869.278	22055
869.408	21842
869.539	21884
869.669	21968
869.799	21911
869.929	22048
870.06	21972
870.19	22055
870.32	22188
870.45	22124
870.58	22124
870.71	22306
870.84	22390
870.97	22265
871.1	22341
871.23	22363
871.36	22436
871.489	22390
871.619	22421
871.749	22367
871.879	22447
872.008	22557
872.138	22519
872.267	22459
872.397	22299
872.526	22143
872.656	22257
872.785	22329
872.915	22580
873.044	22580
873.173	22508
873.303	22481
873.432	22535
873.561	22538
873.69	22565
873.819	22459
873.948	22535
874.077	22440
874.206	22455
874.335	22535
874.464	22569
874.593	22839
874.722	22588
874.851	22713
874.979	22694
875.108	22744
875.237	22611
875.365	22653
875.494	22645
875.623	22771
875.751	22679
875.88	22736
876.008	22763
876.136	22809
876.265	23151
876.393	23102
876.521	23185
876.65	23071
876.778	23029
876.906	23064
877.034	22984
877.162	22987
877.29	22904
877.418	22991
877.546	23064
877.674	22911
877.802	23124
877.93	23143
878.058	22995
878.185	22904
878.313	22972
878.441	23109
878.568	22847
878.696	22972
878.824	23056
878.951	23064
879.079	23296
879.206	23406
879.333	23193
879.461	23056
879.588	23151
879.715	23155
879.842	23269
879.97	23044
880.097	22847
880.224	22892
880.351	22797
880.478	22835
880.605	22828
880.732	22953
880.859	23155
880.986	22793
881.112	22816
881.239	22782
881.366	22603
881.493	22615
881.619	22516
881.746	22508
881.872	22443
881.999	22436
882.125	22386
882.252	22485
882.378	22314
882.505	22542
882.631	22257
882.757	22044
882.883	22291
883.01	22116
883.136	22101
883.262	21842
883.388	21915
883.514	22044
883.64	22154
883.766	22044
883.892	21922
884.018	21983
884.143	22086
884.269	22162
884.395	21812
884.52	21663
884.646	21766
884.772	21759
884.897	21682
885.023	21705
885.148	21823
885.274	21739
885.399	21724
885.524	21850
885.65	21831
885.775	21663
885.9	21827
886.025	21819
886.15	21835
886.275	21652
886.4	21591
886.525	21819
886.65	21583
886.775	21747
886.9	21755
887.025	21797
887.149	21819
887.274	21576
887.399	21397
887.523	21481
887.648	21500
887.773	21458
887.897	21606
888.021	21557
888.146	21424
888.27	21572
888.395	21534
888.519	21473
888.643	21500
888.767	21599
888.891	21439
889.015	21488
889.139	21416
889.263	21298
889.387	21367
889.511	21580
889.635	21496
889.759	21192
889.883	21245
890.006	21329
890.13	21298
890.254	21310
890.377	21180
890.501	21024
890.624	21051
890.748	21085
890.871	20921
890.995	20883
891.118	20739
891.241	20876
891.364	20925
891.488	20815
891.611	20857
891.734	20902
891.857	20883
891.98	20819
892.103	20876
892.226	20876
892.349	20765
892.471	20701
892.594	20815
892.717	20788
892.839	20689
892.962	20819
893.085	20842
893.207	20678
893.33	20537
893.452	20583
893.575	20796
893.697	20773
893.819	20948
893.941	20895
894.064	20849
894.186	20781
894.308	20499
894.43	20823
894.552	20838
894.674	20842
894.796	20575
894.918	20792
895.04	20921
895.161	20750
895.283	20762
895.405	20670
895.526	20667
895.648	20625
895.769	20750
895.891	20708
896.012	20754
896.134	20705
896.255	20727
896.376	20689
896.498	20754
896.619	20804
896.74	20785
896.861	20777
896.982	21070
897.103	21169
897.224	20876
897.345	20895
897.466	20899
897.587	20971
897.708	21009
897.828	20899
897.949	20838
898.07	20765
898.19	20838
898.311	20960
898.431	20811
898.552	20944
898.672	20960
898.792	21070
898.913	21096
899.033	20853
899.153	20807
899.273	20606
899.393	20644
899.513	20629
899.633	20689
899.753	20712
899.873	20541
899.993	20693
900.113	20602
900.232	20518
900.352	20495
900.472	20621
900.591	20343
900.711	20522
900.83	20423
900.95	20514
901.069	20473
901.189	20366
901.308	20065
901.427	20081
901.546	20024
901.665	19940
901.784	19951
901.904	19860
902.023	19696
902.141	19510
902.26	19575
902.379	19495
902.498	19605
902.617	19407
902.735	19578
902.854	19537
902.973	19430
903.091	19213
903.21	19270
903.328	19190
903.446	19202
903.565	18951
903.683	19027
903.801	18787
903.919	18871
904.038	18844
904.156	18795
904.274	18791
904.392	18753
904.51	18726
904.627	18840
904.745	18859
904.863	18722
904.981	18528
905.098	18502
905.216	18502
905.334	18395
905.451	18460
905.569	18330
905.686	18388
905.803	18247
905.921	18174
906.038	18369
906.155	18171
906.272	18148
906.389	18182
906.506	17927
906.623	17965
906.74	17920
906.857	17863
906.974	17908
907.091	18076
907.208	18003
907.324	17851
907.441	17809
907.557	17726
907.674	17672
907.79	17585
907.907	17600
908.023	17668
908.139	17684
908.256	17539
908.372	17486
908.488	17524
908.604	17391
908.72	17459
908.836	17322
908.952	17330
909.068	17322
909.184	17455
909.3	17299
909.415	17429
909.531	17429
909.647	17220
909.762	17136
909.878	17014
909.993	17098
910.108	17147
910.224	16953
910.339	17018
910.454	16889
910.57	16790
910.685	16801
910.8	17083
910.915	17025
911.03	16984
911.145	16736
911.259	16592
911.374	16721
911.489	16504
911.604	16565
911.718	16481
911.833	16443
911.947	16344
912.062	16249
912.176	16348
912.291	16462
912.405	16394
912.519	16565
912.633	16607
912.748	16440
912.862	16337
912.976	16196
913.09	16116
913.204	16192
913.318	16284
913.431	16314
913.545	16238
913.659	16375
913.772	16150
913.886	15953
914	16017
914.113	16013
914.226	16051
914.34	16059
914.453	15766
914.566	15918
914.68	15918
914.793	15812
914.906	15717
915.019	15587
915.132	15644
915.245	15530
915.358	15728
915.47	15637
915.583	15572
915.696	15610
915.809	15690
915.921	15679
916.034	15488
916.146	15420
916.259	15393
916.371	15603
916.483	15492
916.595	15408
916.708	15526
916.82	15416
916.932	15359
917.044	15340
917.156	15302
917.268	15188
917.38	15272
917.491	15245
917.603	15150
917.715	15283
917.826	15317
917.938	15142
918.049	15119
918.161	15093
918.272	15294
918.384	15348
918.495	15203
918.606	14975
918.717	14883
918.828	15001
918.939	15100
919.05	14883
919.161	14921
919.272	14785
919.383	14880
919.494	15032
919.604	15146
919.715	14967
919.826	14864
919.936	14811
920.047	15017
920.157	14944
920.267	15077
920.378	14845
920.488	14819
920.598	15058
920.708	15173
920.818	15036
920.928	15062
921.038	15104
921.148	15184
921.258	14994
921.368	14693
921.477	14617
921.587	14674
921.697	14606
921.806	14663
921.916	14507
922.025	14305
922.134	14396
922.244	14252
922.353	14415
922.462	14142
922.571	14172
922.68	14039
922.789	13989
922.898	13913
923.007	14012
923.116	13928
923.224	13871
923.333	13791
923.442	13769
923.55	13738
923.659	13818
923.767	13765
923.876	13689
923.984	13738
924.092	13643
924.201	13753
924.309	13757
924.417	13628
924.525	13529
924.633	13605
924.741	14362
924.849	13316
924.956	13449
925.064	13411
925.172	13274
925.279	13327
925.387	13457
925.494	13304
925.602	13415
925.709	13381
925.816	13304
925.924	13251
926.031	13354
926.138	13358
926.245	13301
926.352	13206
926.459	13327
926.566	13308
926.673	13183
926.779	13103
926.886	13053
926.993	12897
927.099	12856
927.206	12848
927.312	12848
927.419	12977
927.525	12814
927.631	12935
927.737	12757
927.843	12662
927.95	12574
928.056	12696
928.162	12715
928.267	12719
928.373	13358
928.479	12688
928.585	12597
928.69	12677
928.796	12593
928.901	12570
929.007	12410
929.112	12566
929.218	12563
929.323	12513
929.428	12308
929.533	12566
929.638	12380
929.743	12338
929.848	12502
929.953	12445
930.058	12194
930.163	12072
930.267	12110
930.372	12213
930.477	12019
930.581	12323
930.685	12140
930.79	12034
930.894	12019
930.998	12007
931.103	12041
931.207	11672
931.311	11608
931.415	11520
931.519	11402
931.623	11254
