Data from test_V78500241_3032.txt Node
Date: Fri Mar 25 16:02:48 CST 2022
User: usil
Spectrometer: V785-0024
Trigger mode: 0
Integration Time (sec): 4.000000E-1
Scans to average: 1
Nonlinearity correction enabled: false
Boxcar width: 0
Storing dark spectrum: false
XAxis mode: Wavelengths
Number of Pixels in Spectrum: 1024
>>>>>Begin Spectral Data<<<<<
801.071	28603
801.214	28687
801.356	28535
801.499	28500
801.641	28280
801.783	28226
801.926	28341
802.068	28166
802.211	28219
802.353	28303
802.496	28070
802.638	27827
802.78	28143
802.923	28040
803.065	27949
803.208	27926
803.35	28101
803.492	28207
803.635	28367
803.777	28097
803.919	28128
804.061	28565
804.204	28322
804.346	28215
804.488	28169
804.63	28329
804.773	28166
804.915	28519
805.057	28447
805.199	28120
805.341	28386
805.483	28405
805.626	28516
805.768	28382
805.91	28504
806.052	28542
806.194	28386
806.336	28573
806.478	28447
806.62	28421
806.762	28653
806.904	28721
807.046	28930
807.188	28915
807.33	28888
807.472	28862
807.614	28999
807.756	28793
807.898	28691
808.04	28710
808.182	28672
808.324	28763
808.465	28835
808.607	29064
808.749	29041
808.891	29216
809.033	29284
809.174	29200
809.316	29143
809.458	29113
809.6	29113
809.741	29216
809.883	29258
810.025	29459
810.166	29372
810.308	29353
810.45	29356
810.591	29318
810.733	29269
810.875	29223
811.016	29060
811.158	29102
811.299	29239
811.441	29299
811.582	29208
811.724	29124
811.865	28976
812.007	29102
812.148	28999
812.29	29083
812.431	29360
812.573	29497
812.714	29531
812.855	29592
812.997	29931
813.138	30091
813.279	29748
813.421	29737
813.562	29596
813.703	29493
813.845	29372
813.986	29185
814.127	28904
814.268	28873
814.41	28892
814.551	28755
814.692	28968
814.833	28828
814.974	28805
815.115	28972
815.256	28755
815.397	28809
815.539	28725
815.68	28679
815.821	28580
815.962	28713
816.103	28550
816.244	28516
816.385	28516
816.526	28451
816.666	28295
816.807	28306
816.948	28303
817.089	28249
817.23	28261
817.371	28147
817.512	28120
817.653	28051
817.793	28177
817.934	28196
818.075	28238
818.216	28325
818.356	28253
818.497	28036
818.638	27998
818.778	27903
818.919	27949
819.06	27987
819.2	28128
819.341	28147
819.481	28261
819.622	28447
819.762	28497
819.903	28504
820.043	28363
820.184	28379
820.324	28413
820.465	28128
820.605	28265
820.746	28249
820.886	28215
821.026	28242
821.167	28413
821.307	28234
821.447	28219
821.588	28109
821.728	28032
821.868	27888
822.008	27633
822.149	27743
822.289	27629
822.429	27523
822.569	27291
822.709	27264
822.849	27222
822.99	27252
823.13	26960
823.27	27108
823.41	27058
823.55	26933
823.69	27089
823.83	27135
823.97	26971
824.11	26849
824.25	26678
824.389	26815
824.529	26849
824.669	26918
824.809	26960
824.949	26895
825.089	26838
825.228	26887
825.368	26716
825.508	26632
825.648	26720
825.787	26800
825.927	26727
826.067	26785
826.206	26716
826.346	26777
826.485	26765
826.625	26648
826.765	26746
826.904	26712
827.044	26514
827.183	26393
827.323	26404
827.462	26522
827.601	26476
827.741	26488
827.88	26374
828.02	26339
828.159	26396
828.298	26469
828.437	26476
828.577	26343
828.716	26473
828.855	26370
828.994	26138
829.134	26008
829.273	26107
829.412	26168
829.551	25970
829.69	26008
829.829	25997
829.968	26153
830.107	26054
830.246	26206
830.385	26111
830.524	25963
830.663	25868
830.802	25826
830.941	25700
831.08	25594
831.219	25757
831.357	25772
831.496	25849
831.635	25750
831.774	25689
831.913	25502
832.051	25609
832.19	25499
832.329	25658
832.467	25403
832.606	25468
832.744	25407
832.883	25304
833.022	25362
833.16	25350
833.299	25453
833.437	25430
833.576	25552
833.714	25449
833.852	25540
833.991	25605
834.129	25639
834.267	25502
834.406	25411
834.544	25647
834.682	25518
834.821	25582
834.959	25677
835.097	25354
835.235	25597
835.373	25483
835.511	25476
835.65	25282
835.788	25308
835.926	25148
836.064	25019
836.202	25099
836.34	25289
836.478	25312
836.615	25244
836.753	25240
836.891	25274
837.029	25312
837.167	25365
837.305	25168
837.443	25244
837.58	25133
837.718	25156
837.856	25129
837.993	25103
838.131	25080
838.269	25080
838.406	24913
838.544	24985
838.681	24798
838.819	24795
838.956	24582
839.094	24589
839.231	24757
839.369	24734
839.506	25000
839.643	24783
839.781	24635
839.918	24471
840.055	24566
840.193	24555
840.33	24452
840.467	24471
840.604	24490
840.742	24669
840.879	24357
841.016	24384
841.153	24338
841.29	24608
841.427	24441
841.564	24395
841.701	24338
841.838	24357
841.975	24353
842.112	24376
842.249	24315
842.385	24251
842.522	24498
842.659	24350
842.796	24174
842.933	24186
843.069	24140
843.206	24152
843.343	24273
843.479	24346
843.616	24281
843.752	24045
843.889	23961
844.025	24163
844.162	23958
844.298	24068
844.435	24064
844.571	24018
844.708	24121
844.844	24194
844.98	24209
845.117	24152
845.253	23874
845.389	23870
845.525	23893
845.661	23802
845.798	23680
845.934	23931
846.07	23714
846.206	23775
846.342	23817
846.478	23771
846.614	23566
846.75	23547
846.886	23463
847.022	23421
847.158	23322
847.294	23429
847.429	23452
847.565	23512
847.701	23630
847.837	23105
847.972	23113
848.108	23273
848.244	23223
848.379	23136
848.515	23124
848.65	22984
848.786	23067
848.921	23014
849.057	23189
849.192	23132
849.328	23098
849.463	23109
849.598	23067
849.734	22900
849.869	22919
850.004	22896
850.14	22744
850.275	22831
850.41	22717
850.545	22771
850.68	22790
850.815	22934
850.95	22816
851.085	23014
851.22	22930
851.355	22866
851.49	22831
851.625	22774
851.76	22862
851.895	22710
852.03	22877
852.165	22862
852.299	22862
852.434	22877
852.569	22847
852.703	22790
852.838	22881
852.973	22980
853.107	22797
853.242	22850
853.376	22649
853.511	22561
853.645	22500
853.78	22675
853.914	22733
854.048	22702
854.183	22691
854.317	22603
854.451	22771
854.585	22599
854.72	22664
854.854	22679
854.988	22637
855.122	22527
855.256	22542
855.39	22637
855.524	22630
855.658	22618
855.792	22592
855.926	22664
856.06	22656
856.194	22736
856.327	22656
856.461	22611
856.595	22618
856.729	22653
856.862	22744
856.996	22691
857.13	22752
857.263	22748
857.397	22729
857.53	22573
857.664	22660
857.797	22733
857.931	22713
858.064	22653
858.197	22755
858.331	22603
858.464	22584
858.597	22481
858.731	22561
858.864	22466
858.997	22649
859.13	22675
859.263	22656
859.396	22641
859.529	22672
859.662	22618
859.795	22645
859.928	22672
860.061	22786
860.194	22820
860.327	22717
860.46	22531
860.592	22668
860.725	22744
860.858	22733
860.99	22694
861.123	22500
861.256	22584
861.388	22748
861.521	23387
861.653	22489
861.786	22352
861.918	22424
862.05	22405
862.183	22440
862.315	22497
862.447	22653
862.58	22569
862.712	22417
862.844	22382
862.976	22394
863.108	22379
863.24	22812
863.372	22287
863.504	22371
863.636	22337
863.768	22443
863.9	22428
864.032	22226
864.164	22325
864.296	22291
864.428	22390
864.559	22459
864.691	22337
864.823	22424
864.954	22390
865.086	22291
865.217	22207
865.349	22226
865.48	22135
865.612	22371
865.743	22325
865.875	22356
866.006	22139
866.137	22306
866.269	22204
866.4	22223
866.531	22147
866.662	22169
866.793	22135
866.924	22158
867.055	22013
867.186	22352
867.317	22097
867.448	22036
867.579	22154
867.71	22059
867.841	22070
867.972	22143
868.103	22204
868.233	22253
868.364	22219
868.495	22230
868.625	22382
868.756	22615
868.886	22287
869.017	22409
869.147	22451
869.278	22447
869.408	22451
869.539	22394
869.669	22611
869.799	22523
869.929	22504
870.06	22516
870.19	22736
870.32	22710
870.45	22820
870.58	22839
870.71	22854
870.84	22839
870.97	22763
871.1	22748
871.23	22987
871.36	22972
871.489	22869
871.619	22980
871.749	23060
871.879	23006
872.008	23022
872.138	22930
872.267	22972
872.397	22915
872.526	22934
872.656	22877
872.785	22854
872.915	23079
873.044	23075
873.173	23010
873.303	23014
873.432	23014
873.561	23113
873.69	23090
873.819	22995
873.948	23105
874.077	23048
874.206	23086
874.335	23159
874.464	23071
874.593	23330
874.722	23265
874.851	23330
874.979	23261
875.108	23170
875.237	23250
875.365	23048
875.494	23083
875.623	23258
875.751	23220
875.88	23303
876.008	23337
876.136	23471
876.265	23657
876.393	23691
876.521	23802
876.65	23710
876.778	23520
876.906	23687
877.034	23471
877.162	23668
877.29	23547
877.418	23653
877.546	23589
877.674	23615
877.802	23657
877.93	23596
878.058	23486
878.185	23539
878.313	23505
878.441	23524
878.568	23273
878.696	23520
878.824	23707
878.951	23566
879.079	23828
879.206	23832
879.333	23714
879.461	23657
879.588	23703
879.715	23767
879.842	23805
879.97	23547
880.097	23406
880.224	23417
880.351	23452
880.478	23425
880.605	23315
880.732	23280
880.859	23604
880.986	23448
881.112	23421
881.239	23258
881.366	23193
881.493	23003
881.619	22908
881.746	23025
881.872	22995
881.999	22965
882.125	22957
882.252	23079
882.378	22786
882.505	23022
882.631	22889
882.757	22729
882.883	22793
883.01	22653
883.136	22679
883.262	22588
883.388	22508
883.514	22630
883.64	22653
883.766	22440
883.892	22325
884.018	22386
884.143	22504
884.269	22580
884.395	22242
884.52	22333
884.646	22386
884.772	22215
884.897	22211
885.023	22390
885.148	22276
885.274	22436
885.399	22295
885.524	22192
885.65	22211
885.775	22333
885.9	22322
886.025	22386
886.15	22337
886.275	22207
886.4	22093
886.525	22280
886.65	22139
886.775	22135
886.9	22363
887.025	22348
887.149	22226
887.274	22105
887.399	22074
887.523	22074
887.648	22040
887.773	21865
887.897	22032
888.021	22120
888.146	22051
888.27	22048
888.395	22135
888.519	21987
888.643	22097
888.767	21915
888.891	21857
889.015	21762
889.139	21869
889.263	21823
889.387	21797
889.511	22112
889.635	21880
889.759	21835
889.883	21778
890.006	21850
890.13	21861
890.254	21690
890.377	21785
890.501	21637
890.624	21492
890.748	21553
890.871	21549
890.995	21408
891.118	21306
891.241	21332
891.364	21393
891.488	21401
891.611	21275
891.734	21443
891.857	21454
891.98	21359
892.103	21275
892.226	21378
892.349	21226
892.471	21180
892.594	21294
892.717	21340
892.839	21283
892.962	21256
893.085	21298
893.207	21291
893.33	21180
893.452	21154
893.575	21355
893.697	21192
893.819	21317
893.941	21542
894.064	21351
894.186	21184
894.308	21112
894.43	21256
894.552	21344
894.674	21393
894.796	21165
894.918	21230
895.04	21028
895.161	21203
895.283	21351
895.405	21203
895.526	21294
895.648	21310
895.769	21169
895.891	21317
896.012	21298
896.134	21313
896.255	21218
896.376	21192
896.498	21173
896.619	21313
896.74	21135
896.861	21169
896.982	21481
897.103	21610
897.224	21492
897.345	21481
897.466	21393
897.587	21420
897.708	21580
897.828	21473
897.949	21367
898.07	21169
898.19	21302
898.311	21405
898.431	21313
898.552	21443
898.672	21488
898.792	21496
898.913	21416
899.033	21332
899.153	21184
899.273	21150
899.393	21119
899.513	21294
899.633	21055
899.753	21131
899.873	21085
899.993	21233
900.113	21036
900.232	21104
900.352	21074
900.472	20830
900.591	20944
900.711	20937
900.83	20849
900.95	20960
901.069	21001
901.189	20769
901.308	20526
901.427	20533
901.546	20457
901.665	20492
901.784	20511
901.904	20461
902.023	20298
902.141	20043
902.26	20008
902.379	20062
902.498	20145
902.617	19902
902.735	20012
902.854	19974
902.973	20008
903.091	19609
903.21	19605
903.328	19628
903.446	19529
903.565	19411
903.683	19521
903.801	19343
903.919	19335
904.038	19301
904.156	19190
904.274	19285
904.392	19160
904.51	19126
904.627	19259
904.745	19164
904.863	19190
904.981	18943
905.098	18875
905.216	18856
905.334	18947
905.451	18985
905.569	18757
905.686	18951
905.803	18757
905.921	18597
906.038	18669
906.155	18604
906.272	18467
906.389	18498
906.506	18429
906.623	18410
906.74	18338
906.857	18285
906.974	18300
907.091	18521
907.208	18509
907.324	18350
907.441	18429
907.557	18182
907.674	18155
907.79	18129
907.907	18079
908.023	18140
908.139	18133
908.256	18030
908.372	18034
908.488	17855
908.604	17847
908.72	17684
908.836	17870
908.952	17665
909.068	17771
909.184	17840
909.3	17878
909.415	17847
909.531	17745
909.647	17581
909.762	17585
909.878	17532
909.993	17478
910.108	17509
910.224	17414
910.339	17482
910.454	17265
910.57	17356
910.685	17086
910.8	17535
910.915	17429
911.03	17273
911.145	17064
911.259	17025
911.374	17006
911.489	16972
911.604	16930
911.718	16881
911.833	16801
911.947	16786
912.062	16698
912.176	16786
912.291	16790
912.405	16847
912.519	17056
912.633	17033
912.748	16885
912.862	16820
912.976	16675
913.09	16550
913.204	16577
913.318	16675
913.431	16611
913.545	16527
913.659	16675
913.772	16512
913.886	16485
914	16558
914.113	16470
914.226	16565
914.34	16538
914.453	16322
914.566	16489
914.68	16280
914.793	16382
914.906	16025
915.019	15960
915.132	15968
915.245	15968
915.358	16025
915.47	16059
915.583	15987
915.696	16051
915.809	16101
915.921	16040
916.034	15934
916.146	15937
916.259	15797
916.371	15922
916.483	15888
916.595	15892
916.708	15838
916.82	15781
916.932	15793
917.044	15766
917.156	15736
917.268	15629
917.38	15663
917.491	15591
917.603	15584
917.715	15789
917.826	15728
917.938	15504
918.049	15496
918.161	15485
918.272	15584
918.384	15606
918.495	15431
918.606	15397
918.717	15306
918.828	15317
918.939	15367
919.05	15176
919.161	15283
919.272	15230
919.383	15188
919.494	15355
919.604	15595
919.715	15397
919.826	15256
919.936	15359
920.047	15344
920.157	15397
920.267	15401
920.378	15256
920.488	15180
920.598	15447
920.708	15515
920.818	15462
920.928	15386
921.038	15523
921.148	15500
921.258	15279
921.368	15192
921.477	14998
921.587	15028
921.697	14876
921.806	14986
921.916	14910
922.025	14746
922.134	14610
922.244	14640
922.353	14670
922.462	14522
922.571	14419
922.68	14202
922.789	14278
922.898	14313
923.007	14305
923.116	14259
923.224	14237
923.333	14275
923.442	14081
923.55	14180
923.659	14172
923.767	14221
923.876	14092
923.984	14100
924.092	14001
924.201	14012
924.309	14031
924.417	13989
924.525	13928
924.633	13906
924.741	14712
924.849	13586
924.956	13898
925.064	13746
925.172	13609
925.279	13525
925.387	13708
925.494	13628
925.602	13822
925.709	13670
925.816	13533
925.924	13575
926.031	13601
926.138	13544
926.245	13636
926.352	13590
926.459	13632
926.566	13731
926.673	13457
926.779	13392
926.886	13392
926.993	13179
927.099	13221
927.206	13156
927.312	13141
927.419	13255
927.525	13103
927.631	13217
927.737	13080
927.843	13088
927.95	13000
928.056	12962
928.162	13053
928.267	13027
928.373	13666
928.479	13107
928.585	12871
928.69	12897
928.796	13042
928.901	12856
929.007	12791
929.112	12894
929.218	12829
929.323	12669
929.428	12623
929.533	12829
929.638	12597
929.743	12692
929.848	12684
929.953	12623
930.058	12490
930.163	12403
930.267	12380
930.372	12627
930.477	12399
930.581	12559
930.685	12426
930.79	12213
930.894	12350
930.998	12201
931.103	12399
931.207	11958
931.311	11950
931.415	11847
931.519	11638
931.623	11649
