Data from test_V78500241_3660.txt Node
Date: Fri Mar 25 16:07:09 CST 2022
User: usil
Spectrometer: V785-0024
Trigger mode: 0
Integration Time (sec): 4.000000E-1
Scans to average: 1
Nonlinearity correction enabled: false
Boxcar width: 0
Storing dark spectrum: false
XAxis mode: Wavelengths
Number of Pixels in Spectrum: 1024
>>>>>Begin Spectral Data<<<<<
801.071	28767
801.214	28580
801.356	28382
801.499	28333
801.641	28131
801.783	28306
801.926	28371
802.068	28238
802.211	28181
802.353	28124
802.496	27869
802.638	27983
802.78	27880
802.923	27774
803.065	27819
803.208	27762
803.35	27884
803.492	28116
803.635	28105
803.777	27994
803.919	28036
804.061	28421
804.204	28356
804.346	28010
804.488	28044
804.63	28070
804.773	28158
804.915	28093
805.057	28272
805.199	28078
805.341	28287
805.483	28337
805.626	28253
805.768	28246
805.91	28280
806.052	28329
806.194	28291
806.336	28546
806.478	28299
806.62	28253
806.762	28493
806.904	28504
807.046	28694
807.188	28736
807.33	28774
807.472	28786
807.614	28698
807.756	28637
807.898	28641
808.04	28443
808.182	28474
808.324	28664
808.465	28622
808.607	28915
808.749	29041
808.891	29147
809.033	29056
809.174	29033
809.316	28843
809.458	28942
809.6	29029
809.741	29105
809.883	29094
810.025	29231
810.166	29280
810.308	29356
810.45	29307
810.591	29124
810.733	29181
810.875	29044
811.016	28934
811.158	28888
811.299	29052
811.441	29185
811.582	29155
811.724	28953
811.865	29067
812.007	29060
812.148	29037
812.29	29041
812.431	29311
812.573	29509
812.714	29554
812.855	29566
812.997	29630
813.138	29703
813.279	29672
813.421	29516
813.562	29467
813.703	29406
813.845	29239
813.986	28984
814.127	28774
814.268	28748
814.41	28687
814.551	28592
814.692	28866
814.833	28748
814.974	28698
815.115	28790
815.256	28672
815.397	28599
815.539	28607
815.68	28523
815.821	28413
815.962	28603
816.103	28607
816.244	28405
816.385	28299
816.526	28280
816.666	28120
816.807	27903
816.948	28090
817.089	28192
817.23	28074
817.371	27972
817.512	27983
817.653	27979
817.793	27949
817.934	27960
818.075	28051
818.216	28124
818.356	28078
818.497	27899
818.638	27774
818.778	27816
818.919	27652
819.06	27785
819.2	27835
819.341	28112
819.481	27994
819.622	28139
819.762	28344
819.903	28295
820.043	28143
820.184	28265
820.324	28120
820.465	28276
820.605	28093
820.746	28044
820.886	28135
821.026	28276
821.167	28143
821.307	28314
821.447	27983
821.588	27918
821.728	27987
821.868	27720
822.008	27408
822.149	27492
822.289	27488
822.429	27283
822.569	27112
822.709	27154
822.849	27051
822.99	26967
823.13	26971
823.27	26937
823.41	26754
823.55	26758
823.69	26762
823.83	26807
823.97	26705
824.11	26689
824.25	26648
824.389	26678
824.529	26526
824.669	26609
824.809	26762
824.949	26785
825.089	26785
825.228	26765
825.368	26629
825.508	26495
825.648	26568
825.787	26560
825.927	26735
826.067	26522
826.206	26503
826.346	26583
826.485	26545
826.625	26537
826.765	26720
826.904	26674
827.044	26229
827.183	26366
827.323	26210
827.462	26366
827.601	26374
827.741	26218
827.88	26396
828.02	26218
828.159	26286
828.298	26263
828.437	26370
828.577	26172
828.716	26320
828.855	26237
828.994	26012
829.134	25970
829.273	26103
829.412	26016
829.551	25883
829.69	25932
829.829	26103
829.968	26001
830.107	25982
830.246	26024
830.385	25890
830.524	25814
830.663	25845
830.802	25655
830.941	25685
831.08	25567
831.219	25632
831.357	25704
831.496	25753
831.635	25525
831.774	25438
831.913	25403
832.051	25327
832.19	25331
832.329	25270
832.467	25263
832.606	25198
832.744	25198
832.883	25175
833.022	25263
833.16	25194
833.299	25388
833.437	25251
833.576	25282
833.714	25202
833.852	25244
833.991	25297
834.129	25373
834.267	25468
834.406	25213
834.544	25225
834.682	25320
834.821	25301
834.959	25464
835.097	25152
835.235	25434
835.373	25293
835.511	25244
835.65	25198
835.788	25114
835.926	25000
836.064	24958
836.202	25038
836.34	25171
836.478	25282
836.615	25171
836.753	25278
836.891	25137
837.029	25202
837.167	24977
837.305	25076
837.443	24970
837.58	24920
837.718	25183
837.856	25004
837.993	24802
838.131	24863
838.269	24856
838.406	24867
838.544	24798
838.681	24467
838.819	24563
838.956	24448
839.094	24498
839.231	24380
839.369	24642
839.506	24776
839.643	24650
839.781	24315
839.918	24357
840.055	24452
840.193	24407
840.33	24437
840.467	24323
840.604	24403
840.742	24574
840.879	24076
841.016	24224
841.153	24106
841.29	24243
841.427	24243
841.564	24292
841.701	24273
841.838	24273
841.975	24186
842.112	24315
842.249	24121
842.385	24125
842.522	24304
842.659	24125
842.796	24030
842.933	24022
843.069	24045
843.206	24026
843.343	24121
843.479	24106
843.616	24068
843.752	23996
843.889	23859
844.025	24057
844.162	23794
844.298	24007
844.435	23847
844.571	23855
844.708	23764
844.844	24026
844.98	23965
845.117	23973
845.253	23722
845.389	23843
845.525	23699
845.661	23722
845.798	23649
845.934	23668
846.07	23661
846.206	23680
846.342	23748
846.478	23615
846.614	23372
846.75	23433
846.886	23261
847.022	23303
847.158	23299
847.294	23307
847.429	23265
847.565	23239
847.701	23589
847.837	23056
847.972	23025
848.108	23033
848.244	23128
848.379	22949
848.515	22885
848.65	22824
848.786	22889
848.921	22767
849.057	22991
849.192	23044
849.328	22949
849.463	22896
849.598	22797
849.734	22904
849.869	22854
850.004	22698
850.14	22630
850.275	22713
850.41	22565
850.545	22656
850.68	22573
850.815	22672
850.95	22656
851.085	22843
851.22	22763
851.355	22774
851.49	22767
851.625	22683
851.76	22622
851.895	22577
852.03	22660
852.165	22588
852.299	22634
852.434	22710
852.569	22668
852.703	22687
852.838	22672
852.973	22900
853.107	22805
853.242	22546
853.376	22489
853.511	22379
853.645	22493
853.78	22512
853.914	22607
854.048	22394
854.183	22489
854.317	22421
854.451	22630
854.585	22466
854.72	22478
854.854	22634
854.988	22531
855.122	22474
855.256	22333
855.39	22455
855.524	22557
855.658	22531
855.792	22386
855.926	22428
856.06	22481
856.194	22672
856.327	22440
856.461	22318
856.595	22390
856.729	22527
856.862	22497
856.996	22375
857.13	22516
857.263	22489
857.397	22508
857.53	22466
857.664	22535
857.797	22596
857.931	22535
858.064	22402
858.197	22622
858.331	22580
858.464	22333
858.597	22276
858.731	22519
858.864	22424
858.997	22375
859.13	22451
859.263	22440
859.396	22421
859.529	22428
859.662	22443
859.795	22451
859.928	22497
860.061	22653
860.194	22626
860.327	22592
860.46	22504
860.592	22565
860.725	22546
860.858	22637
860.99	22474
861.123	22352
861.256	22466
861.388	22459
861.521	23326
861.653	22371
861.786	22341
861.918	22337
862.05	22226
862.183	22402
862.315	22394
862.447	22398
862.58	22371
862.712	22188
862.844	22116
862.976	22295
863.108	22188
863.24	22767
863.372	22124
863.504	22219
863.636	22162
863.768	22306
863.9	22337
864.032	22265
864.164	22017
864.296	22162
864.428	22185
864.559	22341
864.691	22215
864.823	22291
864.954	22135
865.086	22154
865.217	22097
865.349	22013
865.48	22036
865.612	22131
865.743	22124
865.875	22109
866.006	21991
866.137	22025
866.269	22074
866.4	22010
866.531	22025
866.662	21930
866.793	22021
866.924	21998
867.055	22143
867.186	22082
867.317	21937
867.448	21819
867.579	22082
867.71	21831
867.841	21937
867.972	21869
868.103	22010
868.233	21937
868.364	22082
868.495	22090
868.625	22246
868.756	22424
868.886	22154
869.017	22162
869.147	22287
869.278	22325
869.408	22287
869.539	22303
869.669	22291
869.799	22344
869.929	22322
870.06	22223
870.19	22592
870.32	22504
870.45	22683
870.58	22611
870.71	22717
870.84	22752
870.97	22622
871.1	22687
871.23	22820
871.36	22820
871.489	22790
871.619	22923
871.749	22835
871.879	22881
872.008	22930
872.138	22900
872.267	22900
872.397	22679
872.526	22729
872.656	22630
872.785	22778
872.915	22869
873.044	22866
873.173	22850
873.303	22835
873.432	22869
873.561	22930
873.69	22843
873.819	22866
873.948	22877
874.077	22881
874.206	22782
874.335	22866
874.464	22984
874.593	23033
874.722	23041
874.851	23044
874.979	23147
875.108	23022
875.237	23006
875.365	22999
875.494	23189
875.623	23136
875.751	23022
875.88	23022
876.008	23288
876.136	23216
876.265	23467
876.393	23623
876.521	23596
876.65	23440
876.778	23531
876.906	23440
877.034	23452
877.162	23600
877.29	23474
877.418	23356
877.546	23528
877.674	23459
877.802	23463
877.93	23471
878.058	23391
878.185	23334
878.313	23425
878.441	23429
878.568	23227
878.696	23269
878.824	23410
878.951	23425
879.079	23497
879.206	23760
879.333	23455
879.461	23490
879.588	23539
879.715	23653
879.842	23794
879.97	23524
880.097	23235
880.224	23227
880.351	23273
880.478	23326
880.605	23269
880.732	23261
880.859	23649
880.986	23185
881.112	23151
881.239	23041
881.366	22850
881.493	22919
881.619	22839
881.746	22786
881.872	22915
881.999	22721
882.125	22721
882.252	22873
882.378	22664
882.505	22915
882.631	22565
882.757	22474
882.883	22603
883.01	22641
883.136	22432
883.262	22344
883.388	22265
883.514	22508
883.64	22500
883.766	22352
883.892	22356
884.018	22303
884.143	22394
884.269	22497
884.395	22284
884.52	22139
884.646	22166
884.772	21937
884.897	21922
885.023	22230
885.148	22246
885.274	22310
885.399	22150
885.524	22101
885.65	22124
885.775	22200
885.9	22116
886.025	22173
886.15	22109
886.275	22101
886.4	21915
886.525	22082
886.65	22010
886.775	22097
886.9	22135
887.025	22303
887.149	22086
887.274	21994
887.399	21869
887.523	21907
887.648	21869
887.773	21785
887.897	21964
888.021	21793
888.146	21865
888.27	22010
888.395	21800
888.519	21975
888.643	21838
888.767	21804
888.891	21701
889.015	21629
889.139	21713
889.263	21686
889.387	21827
889.511	21861
889.635	21850
889.759	21591
889.883	21667
890.006	21606
890.13	21838
890.254	21595
890.377	21545
890.501	21386
890.624	21351
890.748	21363
890.871	21237
890.995	21222
891.118	21146
891.241	21199
891.364	21127
891.488	21378
891.611	21173
891.734	21252
891.857	21302
891.98	21135
892.103	21260
892.226	21138
892.349	21211
892.471	21005
892.594	21127
892.717	21100
892.839	21104
892.962	21005
893.085	21161
893.207	21036
893.33	20986
893.452	20967
893.575	21241
893.697	21131
893.819	21169
893.941	21310
894.064	21184
894.186	20979
894.308	20944
894.43	21218
894.552	21199
894.674	21241
894.796	21017
894.918	21116
895.04	21085
895.161	21055
895.283	21081
895.405	21028
895.526	21116
895.648	21001
895.769	20963
895.891	21203
896.012	21081
896.134	21005
896.255	21112
896.376	21108
896.498	21146
896.619	21192
896.74	21039
896.861	21173
896.982	21374
897.103	21591
897.224	21386
897.345	21431
897.466	21283
897.587	21237
897.708	21272
897.828	21325
897.949	21241
898.07	21127
898.19	21173
898.311	21317
898.431	21188
898.552	21367
898.672	21367
898.792	21332
898.913	21367
899.033	21211
899.153	21093
899.273	20971
899.393	21184
899.513	21032
899.633	21077
899.753	20986
899.873	20910
899.993	20986
900.113	20918
900.232	20967
900.352	20864
900.472	20807
900.591	20716
900.711	20762
900.83	20667
900.95	21051
901.069	20746
901.189	20533
901.308	20454
901.427	20431
901.546	20374
901.665	20298
901.784	20290
901.904	20107
902.023	20027
902.141	19864
902.26	19871
902.379	20012
902.498	19799
902.617	19765
902.735	19856
902.854	19795
902.973	19689
903.091	19346
903.21	19411
903.328	19506
903.446	19476
903.565	19202
903.683	19285
903.801	19133
903.919	19236
904.038	19270
904.156	19038
904.274	19076
904.392	19107
904.51	19027
904.627	19046
904.745	19072
904.863	19099
904.981	18802
905.098	18719
905.216	18711
905.334	18753
905.451	18692
905.569	18783
905.686	18764
905.803	18707
905.921	18414
906.038	18513
906.155	18513
906.272	18517
906.389	18414
906.506	18243
906.623	18258
906.74	18235
906.857	18117
906.974	18239
907.091	18258
907.208	18429
907.324	18205
907.441	18167
907.557	18114
907.674	17946
907.79	17977
907.907	17988
908.023	17882
908.139	17897
908.256	17916
908.372	17794
908.488	17920
908.604	17695
908.72	17634
908.836	17718
908.952	17611
909.068	17676
909.184	17874
909.3	17627
909.415	17623
909.531	17600
909.647	17478
909.762	17402
909.878	17334
909.993	17353
910.108	17254
910.224	17391
910.339	17334
910.454	17288
910.57	17197
910.685	17151
910.8	17265
910.915	17208
911.03	17223
911.145	17045
911.259	16911
911.374	16900
911.489	16938
911.604	16767
911.718	16713
911.833	16691
911.947	16596
912.062	16626
912.176	16721
912.291	16713
912.405	16733
912.519	16801
912.633	16839
912.748	16763
912.862	16740
912.976	16558
913.09	16337
913.204	16523
913.318	16497
913.431	16516
913.545	16527
913.659	16660
913.772	16402
913.886	16405
914	16223
914.113	16375
914.226	16390
914.34	16329
914.453	16230
914.566	16432
914.68	16154
914.793	16185
914.906	15979
915.019	15850
915.132	15816
915.245	15884
915.358	15994
915.47	15857
915.583	15903
915.696	15884
915.809	16078
915.921	15922
916.034	15804
916.146	15865
916.259	15739
916.371	15854
916.483	15713
916.595	15804
916.708	15671
916.82	15694
916.932	15629
917.044	15580
917.156	15553
917.268	15447
917.38	15557
917.491	15462
917.603	15401
917.715	15637
917.826	15572
917.938	15481
918.049	15332
918.161	15485
918.272	15496
918.384	15568
918.495	15477
918.606	15203
918.717	15169
918.828	15252
918.939	15279
919.05	15157
919.161	15150
919.272	14975
919.383	15058
919.494	15233
919.604	15374
919.715	15180
919.826	15154
919.936	15100
920.047	15287
920.157	15142
920.267	15420
920.378	15203
920.488	15150
920.598	15408
920.708	15450
920.818	15275
920.928	15279
921.038	15481
921.148	15428
921.258	15055
921.368	15154
921.477	14963
921.587	14872
921.697	14823
921.806	14925
921.916	14804
922.025	14583
922.134	14537
922.244	14499
922.353	14499
922.462	14355
922.571	14339
922.68	14206
922.789	14161
922.898	14126
923.007	14195
923.116	14183
923.224	14119
923.333	14180
923.442	14054
923.55	14016
923.659	13940
923.767	14062
923.876	13894
923.984	14088
924.092	13795
924.201	13803
924.309	13856
924.417	13875
924.525	13776
924.633	13791
924.741	14686
924.849	13597
924.956	13776
925.064	13662
925.172	13533
925.279	13552
925.387	13639
925.494	13480
925.602	13712
925.709	13696
925.816	13365
925.924	13639
926.031	13594
926.138	13464
926.245	13537
926.352	13358
926.459	13525
926.566	13495
926.673	13506
926.779	13297
926.886	13187
926.993	13175
927.099	13137
927.206	13042
927.312	13057
927.419	13118
927.525	13076
927.631	13149
927.737	13012
927.843	12897
927.95	12840
928.056	12856
928.162	12951
928.267	13000
928.373	13609
928.479	12958
928.585	12848
928.69	12821
928.796	12852
928.901	12840
929.007	12616
929.112	12707
929.218	12677
929.323	12658
929.428	12677
929.533	12715
929.638	12608
929.743	12563
929.848	12612
929.953	12494
930.058	12433
930.163	12258
930.267	12365
930.372	12467
930.477	12270
930.581	12494
930.685	12277
930.79	12098
930.894	12178
930.998	12220
931.103	12289
931.207	11866
931.311	11878
931.415	11771
931.519	11615
931.623	11554
