Data from test_V78500241_1509.txt Node
Date: Fri Mar 25 15:52:15 CST 2022
User: usil
Spectrometer: V785-0024
Trigger mode: 0
Integration Time (sec): 4.000000E-1
Scans to average: 1
Nonlinearity correction enabled: false
Boxcar width: 0
Storing dark spectrum: false
XAxis mode: Wavelengths
Number of Pixels in Spectrum: 1024
>>>>>Begin Spectral Data<<<<<
801.071	27930
801.214	27956
801.356	27629
801.499	27728
801.641	27549
801.783	27572
801.926	27504
802.068	27526
802.211	27473
802.353	27351
802.496	27211
802.638	27252
802.78	27131
802.923	26986
803.065	27089
803.208	27161
803.35	27192
803.492	27283
803.635	27389
803.777	27264
803.919	27378
804.061	27614
804.204	27549
804.346	27180
804.488	27188
804.63	27279
804.773	27214
804.915	27553
805.057	27496
805.199	27485
805.341	27439
805.483	27553
805.626	27431
805.768	27447
805.91	27435
806.052	27416
806.194	27504
806.336	27656
806.478	27443
806.62	27492
806.762	27580
806.904	27800
807.046	27838
807.188	27945
807.33	27869
807.472	28025
807.614	27804
807.756	27983
807.898	27850
808.04	27644
808.182	27698
808.324	27873
808.465	27838
808.607	27994
808.749	28211
808.891	28268
809.033	28246
809.174	28238
809.316	28150
809.458	28139
809.6	28101
809.741	28246
809.883	28291
810.025	28485
810.166	28268
810.308	28451
810.45	28325
810.591	28226
810.733	28067
810.875	28238
811.016	28070
811.158	27998
811.299	28246
811.441	28226
811.582	28310
811.724	28291
811.865	28070
812.007	28109
812.148	28207
812.29	28257
812.431	28398
812.573	28413
812.714	28573
812.855	28710
812.997	28713
813.138	28904
813.279	28725
813.421	28626
813.562	28626
813.703	28455
813.845	28447
813.986	28200
814.127	27903
814.268	27960
814.41	27907
814.551	27934
814.692	27945
814.833	27819
814.974	27637
815.115	27766
815.256	27587
815.397	27739
815.539	27606
815.68	27606
815.821	27507
815.962	27823
816.103	27580
816.244	27408
816.385	27458
816.526	27310
816.666	27112
816.807	27108
816.948	27150
817.089	27169
817.23	27176
817.371	27150
817.512	27131
817.653	27165
817.793	27013
817.934	27047
818.075	26986
818.216	27211
818.356	27043
818.497	26861
818.638	26804
818.778	26910
818.919	27013
819.06	26895
819.2	27047
819.341	27017
819.481	27058
819.622	27279
819.762	27340
819.903	27355
820.043	27317
820.184	27214
820.324	27332
820.465	27340
820.605	27173
820.746	27279
820.886	27154
821.026	27264
821.167	27150
821.307	27283
821.447	27161
821.588	26982
821.728	26880
821.868	26762
822.008	26484
822.149	26686
822.289	26632
822.429	26275
822.569	26370
822.709	26389
822.849	26130
822.99	26065
823.13	26103
823.27	26043
823.41	25921
823.55	25753
823.69	25811
823.83	25986
823.97	25951
824.11	25548
824.25	25727
824.389	25742
824.529	25902
824.669	25655
824.809	25875
824.949	25765
825.089	25986
825.228	25757
825.368	25540
825.508	25556
825.648	25582
825.787	25552
825.927	25776
826.067	25537
826.206	25639
826.346	25639
826.485	25563
826.625	25693
826.765	25651
826.904	25624
827.044	25388
827.183	25441
827.323	25316
827.462	25434
827.601	25320
827.741	25331
827.88	25354
828.02	25179
828.159	25236
828.298	25301
828.437	25479
828.577	25129
828.716	25472
828.855	25194
828.994	24962
829.134	25091
829.273	25114
829.412	25019
829.551	24875
829.69	25012
829.829	25012
829.968	25114
830.107	24943
830.246	24985
830.385	24970
830.524	25004
830.663	24890
830.802	24700
830.941	24681
831.08	24616
831.219	24677
831.357	24707
831.496	24772
831.635	24559
831.774	24547
831.913	24498
832.051	24433
832.19	24334
832.329	24334
832.467	24182
832.606	24171
832.744	24235
832.883	24285
833.022	24209
833.16	24235
833.299	24296
833.437	24346
833.576	24399
833.714	24273
833.852	24475
833.991	24467
834.129	24471
834.267	24376
834.406	24270
834.544	24399
834.682	24467
834.821	24213
834.959	24498
835.097	24083
835.235	24369
835.373	24197
835.511	24426
835.65	24262
835.788	24220
835.926	24079
836.064	23904
836.202	23988
836.34	24053
836.478	24300
836.615	24167
836.753	24072
836.891	24254
837.029	24308
837.167	24167
837.305	24167
837.443	24110
837.58	23973
837.718	24163
837.856	24057
837.993	24015
838.131	23901
838.269	23893
838.406	24057
838.544	23817
838.681	23630
838.819	23566
838.956	23429
839.094	23444
839.231	23615
839.369	23684
839.506	23893
839.643	23687
839.781	23649
839.918	23501
840.055	23478
840.193	23425
840.33	23436
840.467	23345
840.604	23531
840.742	23642
840.879	23296
841.016	23288
841.153	23288
841.29	23474
841.427	23490
841.564	23471
841.701	23360
841.838	23482
841.975	23296
842.112	23315
842.249	23132
842.385	23185
842.522	23303
842.659	23284
842.796	23124
842.933	23231
843.069	23064
843.206	23132
843.343	23311
843.479	23178
843.616	23174
843.752	22782
843.889	22957
844.025	23033
844.162	22869
844.298	23010
844.435	22934
844.571	22900
844.708	22934
844.844	23067
844.98	23067
845.117	22892
845.253	22736
845.389	22828
845.525	22786
845.661	22850
845.798	22656
845.934	22729
846.07	22725
846.206	22622
846.342	22698
846.478	22584
846.614	22481
846.75	22303
846.886	22474
847.022	22455
847.158	22413
847.294	22508
847.429	22489
847.565	22318
847.701	22596
847.837	22040
847.972	22090
848.108	22280
848.244	22192
848.379	21987
848.515	22013
848.65	21975
848.786	21964
848.921	22105
849.057	21960
849.192	22086
849.328	22036
849.463	21964
849.598	21975
849.734	21869
849.869	21880
850.004	21831
850.14	21671
850.275	21793
850.41	21633
850.545	21682
850.68	21831
850.815	21816
850.95	21720
851.085	21991
851.22	21930
851.355	21675
851.49	21633
851.625	21797
851.76	21774
851.895	21656
852.03	21682
852.165	21698
852.299	21911
852.434	21762
852.569	21854
852.703	21793
852.838	21823
852.973	21842
853.107	21907
853.242	21622
853.376	21523
853.511	21492
853.645	21492
853.78	21660
853.914	21580
854.048	21538
854.183	21553
854.317	21504
854.451	21652
854.585	21511
854.72	21534
854.854	21652
854.988	21469
855.122	21496
855.256	21439
855.39	21545
855.524	21542
855.658	21709
855.792	21591
855.926	21625
856.06	21572
856.194	21701
856.327	21561
856.461	21561
856.595	21606
856.729	21530
856.862	21660
856.996	21698
857.13	21671
857.263	21701
857.397	21671
857.53	21591
857.664	21606
857.797	21580
857.931	21614
858.064	21515
858.197	21663
858.331	21576
858.464	21405
858.597	21431
858.731	21485
858.864	21485
858.997	21492
859.13	21587
859.263	21572
859.396	21694
859.529	21515
859.662	21450
859.795	21587
859.928	21564
860.061	21667
860.194	21785
860.327	21667
860.46	21610
860.592	21542
860.725	21629
860.858	21610
860.99	21538
861.123	21500
861.256	21534
861.388	21557
861.521	22002
861.653	21500
861.786	21306
861.918	21454
862.05	21473
862.183	21568
862.315	21572
862.447	21568
862.58	21530
862.712	21184
862.844	21226
862.976	21367
863.108	21329
863.24	21724
863.372	21165
863.504	21176
863.636	21291
863.768	21275
863.9	21294
864.032	21325
864.164	21298
864.296	21340
864.428	21275
864.559	21336
864.691	21340
864.823	21340
864.954	21237
865.086	21294
865.217	21127
865.349	21020
865.48	21184
865.612	21119
865.743	21313
865.875	21222
866.006	21074
866.137	21157
866.269	21203
866.4	21089
866.531	20990
866.662	21127
866.793	21070
866.924	21112
867.055	21116
867.186	21211
867.317	21142
867.448	21036
867.579	21093
867.71	21043
867.841	20952
867.972	21116
868.103	21138
868.233	21112
868.364	21154
868.495	21195
868.625	21298
868.756	21515
868.886	21275
869.017	21325
869.147	21462
869.278	21374
869.408	21302
869.539	21397
869.669	21412
869.799	21393
869.929	21488
870.06	21458
870.19	21709
870.32	21713
870.45	21682
870.58	21709
870.71	21903
870.84	21823
870.97	21682
871.1	21778
871.23	21930
871.36	21884
871.489	21865
871.619	21785
871.749	21907
871.879	22082
872.008	22063
872.138	21873
872.267	21975
872.397	21797
872.526	21785
872.656	21759
872.785	21880
872.915	21857
873.044	22067
873.173	21956
873.303	22059
873.432	22040
873.561	22226
873.69	22006
873.819	21926
873.948	22048
874.077	22036
874.206	21968
874.335	21983
874.464	22150
874.593	22150
874.722	22158
874.851	22200
874.979	22219
875.108	22215
875.237	22036
875.365	22074
875.494	22139
875.623	22074
875.751	22147
875.88	22295
876.008	22329
876.136	22249
876.265	22596
876.393	22774
876.521	22653
876.65	22634
876.778	22580
876.906	22596
877.034	22462
877.162	22542
877.29	22367
877.418	22588
877.546	22531
877.674	22580
877.802	22565
877.93	22569
878.058	22508
878.185	22337
878.313	22512
878.441	22462
878.568	22409
878.696	22333
878.824	22481
878.951	22554
879.079	22771
879.206	22858
879.333	22790
879.461	22466
879.588	22599
879.715	22778
879.842	22843
879.97	22611
880.097	22363
880.224	22413
880.351	22344
880.478	22352
880.605	22466
880.732	22322
880.859	22599
880.986	22344
881.112	22375
881.239	22105
881.366	22120
881.493	21968
881.619	21991
881.746	22097
881.872	22086
881.999	21880
882.125	21842
882.252	21994
882.378	21983
882.505	21934
882.631	21736
882.757	21534
882.883	21660
883.01	21701
883.136	21561
883.262	21477
883.388	21344
883.514	21580
883.64	21572
883.766	21591
883.892	21397
884.018	21355
884.143	21496
884.269	21652
884.395	21310
884.52	21298
884.646	21355
884.772	21252
884.897	21150
885.023	21332
885.148	21313
885.274	21317
885.399	21363
885.524	21199
885.65	21317
885.775	21241
885.9	21226
886.025	21367
886.15	21393
886.275	21142
886.4	21291
886.525	21226
886.65	21192
886.775	21211
886.9	21359
887.025	21351
887.149	21230
887.274	21074
887.399	21013
887.523	20963
887.648	21093
887.773	20979
887.897	21085
888.021	21096
888.146	20925
888.27	21176
888.395	21100
888.519	21039
888.643	21127
888.767	21062
888.891	20994
889.015	20792
889.139	20914
889.263	20644
889.387	20853
889.511	21017
889.635	21009
889.759	20800
889.883	20819
890.006	20765
890.13	20861
890.254	20762
890.377	20743
890.501	20629
890.624	20526
890.748	20560
890.871	20473
890.995	20408
891.118	20301
891.241	20366
891.364	20358
891.488	20465
891.611	20465
891.734	20328
891.857	20488
891.98	20355
892.103	20484
892.226	20431
892.349	20377
892.471	20221
892.594	20210
892.717	20351
892.839	20305
892.962	20355
893.085	20362
893.207	20290
893.33	20233
893.452	20157
893.575	20301
893.697	20271
893.819	20511
893.941	20579
894.064	20385
894.186	20267
894.308	20263
894.43	20427
894.552	20522
894.674	20374
894.796	20180
894.918	20298
895.04	20271
895.161	20347
895.283	20275
895.405	20259
895.526	20442
895.648	20290
895.769	20385
895.891	20320
896.012	20450
896.134	20370
896.255	20374
896.376	20396
896.498	20309
896.619	20355
896.74	20355
896.861	20237
896.982	20648
897.103	20807
897.224	20640
897.345	20537
897.466	20480
897.587	20640
897.708	20651
897.828	20545
897.949	20488
898.07	20237
898.19	20351
898.311	20530
898.431	20450
898.552	20507
898.672	20568
898.792	20636
898.913	20556
899.033	20332
899.153	20271
899.273	20271
899.393	20374
899.513	20381
899.633	20313
899.753	20305
899.873	20172
899.993	20374
900.113	20259
900.232	20290
900.352	20103
900.472	20107
900.591	19967
900.711	20088
900.83	20062
900.95	20252
901.069	20172
901.189	20001
901.308	19811
901.427	19586
901.546	19757
901.665	19685
901.784	19685
901.904	19472
902.023	19411
902.141	19316
902.26	19301
902.379	19320
902.498	19122
902.617	19129
902.735	19152
902.854	19190
902.973	19019
903.091	19012
903.21	18787
903.328	18814
903.446	18635
903.565	18555
903.683	18665
903.801	18498
903.919	18635
904.038	18483
904.156	18426
904.274	18570
904.392	18445
904.51	18327
904.627	18418
904.745	18471
904.863	18388
904.981	18209
905.098	18114
905.216	18003
905.334	18125
905.451	17958
905.569	17977
905.686	18114
905.803	18091
905.921	18022
906.038	17961
906.155	17855
906.272	17756
906.389	17752
906.506	17615
906.623	17543
906.74	17630
906.857	17455
906.974	17570
907.091	17661
907.208	17703
907.324	17615
907.441	17551
907.557	17292
907.674	17288
907.79	17353
907.907	17280
908.023	17353
908.139	17387
908.256	17246
908.372	17193
908.488	17105
908.604	17094
908.72	16968
908.836	16976
908.952	17014
909.068	17067
909.184	17109
909.3	17041
909.415	17033
909.531	17128
909.647	16767
909.762	16702
909.878	16710
909.993	16725
910.108	16755
910.224	16721
910.339	16679
910.454	16554
910.57	16550
910.685	16565
910.8	16782
910.915	16577
911.03	16546
911.145	16489
911.259	16325
911.374	16337
911.489	16303
911.604	16207
911.718	16093
911.833	16109
911.947	15903
912.062	15876
912.176	16078
912.291	16074
912.405	16082
912.519	16177
912.633	16211
912.748	16105
912.862	16029
912.976	15983
913.09	15880
913.204	15850
913.318	15956
913.431	16006
913.545	15949
913.659	15979
913.772	15728
913.886	15675
914	15732
914.113	15804
914.226	15747
914.34	15701
914.453	15576
914.566	15690
914.68	15606
914.793	15557
914.906	15428
915.019	15283
915.132	15306
915.245	15287
915.358	15283
915.47	15279
915.583	15359
915.696	15405
915.809	15367
915.921	15412
916.034	15256
916.146	15195
916.259	15154
916.371	15233
916.483	15264
916.595	15157
916.708	15135
916.82	15100
916.932	15165
917.044	15108
917.156	14975
917.268	14830
917.38	15005
917.491	14937
917.603	14842
917.715	14971
917.826	14979
917.938	14861
918.049	14819
918.161	14891
918.272	14948
918.384	15017
918.495	14838
918.606	14735
918.717	14670
918.828	14693
918.939	14678
919.05	14598
919.161	14686
919.272	14499
919.383	14571
919.494	14792
919.604	14876
919.715	14674
919.826	14648
919.936	14648
920.047	14678
920.157	14705
920.267	14838
920.378	14644
920.488	14583
920.598	14819
920.708	14967
920.818	14902
920.928	14800
921.038	14944
921.148	14902
921.258	14537
921.368	14507
921.477	14412
921.587	14343
921.697	14282
921.806	14412
921.916	14172
922.025	14134
922.134	13932
922.244	14035
922.353	14092
922.462	13928
922.571	13856
922.68	13738
922.789	13658
922.898	13723
923.007	13567
923.116	13708
923.224	13643
923.333	13632
923.442	13491
923.55	13499
923.659	13491
923.767	13533
923.876	13441
923.984	13419
924.092	13244
924.201	13411
924.309	13388
924.417	13381
924.525	13312
924.633	13365
924.741	14275
924.849	13183
924.956	13270
925.064	13110
925.172	13000
925.279	13156
925.387	13076
925.494	13057
925.602	13217
925.709	13133
925.816	12996
925.924	13012
926.031	13141
926.138	13145
926.245	13126
926.352	12966
926.459	13122
926.566	13126
926.673	12924
926.779	12817
926.886	12787
926.993	12589
927.099	12658
927.206	12684
927.312	12635
927.419	12764
927.525	12612
927.631	12646
927.737	12509
927.843	12532
927.95	12380
928.056	12399
928.162	12429
928.267	12585
928.373	13129
928.479	12555
928.585	12380
928.69	12448
928.796	12479
928.901	12281
929.007	12254
929.112	12277
929.218	12304
929.323	12121
929.428	12155
929.533	12308
929.638	12129
929.743	12079
929.848	12209
929.953	12136
930.058	12030
930.163	11946
930.267	11897
930.372	12034
930.477	11821
930.581	11980
930.685	11916
930.79	11760
930.894	11741
930.998	11805
931.103	11885
931.207	11543
931.311	11425
931.415	11383
931.519	11193
931.623	11189
