Data from test_V78500241_1023.txt Node
Date: Fri Mar 25 15:48:53 CST 2022
User: usil
Spectrometer: V785-0024
Trigger mode: 0
Integration Time (sec): 4.000000E-1
Scans to average: 1
Nonlinearity correction enabled: false
Boxcar width: 0
Storing dark spectrum: false
XAxis mode: Wavelengths
Number of Pixels in Spectrum: 1024
>>>>>Begin Spectral Data<<<<<
801.071	28169
801.214	28139
801.356	27953
801.499	27804
801.641	27618
801.783	27739
801.926	27743
802.068	27625
802.211	27591
802.353	27599
802.496	27351
802.638	27211
802.78	27329
802.923	27389
803.065	27306
803.208	27275
803.35	27264
803.492	27591
803.635	27405
803.777	27336
803.919	27469
804.061	27960
804.204	27553
804.346	27557
804.488	27405
804.63	27507
804.773	27458
804.915	27603
805.057	27606
805.199	27488
805.341	27675
805.483	27701
805.626	27705
805.768	27568
805.91	27743
806.052	27728
806.194	27625
806.336	27865
806.478	27766
806.62	27606
806.762	28002
806.904	28040
807.046	28101
807.188	28166
807.33	28200
807.472	28063
807.614	28086
807.756	28051
807.898	27873
808.04	27907
808.182	27956
808.324	27998
808.465	28048
808.607	28211
808.749	28379
808.891	28413
809.033	28535
809.174	28485
809.316	28405
809.458	28329
809.6	28356
809.741	28447
809.883	28542
810.025	28797
810.166	28809
810.308	28668
810.45	28546
810.591	28519
810.733	28409
810.875	28325
811.016	28424
811.158	28287
811.299	28664
811.441	28679
811.582	28611
811.724	28386
811.865	28409
812.007	28481
812.148	28386
812.29	28432
812.431	28546
812.573	28824
812.714	28748
812.855	28999
812.997	29029
813.138	29025
813.279	29117
813.421	28957
813.562	29044
813.703	28752
813.845	28489
813.986	28379
814.127	28185
814.268	28150
814.41	28097
814.551	28082
814.692	28086
814.833	28010
814.974	27956
815.115	27991
815.256	27987
815.397	27888
815.539	27972
815.68	27835
815.821	27861
815.962	27899
816.103	27884
816.244	27739
816.385	27667
816.526	27542
816.666	27618
816.807	27378
816.948	27382
817.089	27420
817.23	27306
817.371	27443
817.512	27424
817.653	27427
817.793	27329
817.934	27397
818.075	27325
818.216	27374
818.356	27359
818.497	27180
818.638	27222
818.778	27192
818.919	27214
819.06	27161
819.2	27302
819.341	27325
819.481	27287
819.622	27591
819.762	27804
819.903	27660
820.043	27530
820.184	27351
820.324	27530
820.465	27568
820.605	27545
820.746	27473
820.886	27329
821.026	27443
821.167	27397
821.307	27431
821.447	27416
821.588	27283
821.728	27104
821.868	27047
822.008	26849
822.149	26849
822.289	26807
822.429	26442
822.569	26571
822.709	26537
822.849	26461
822.99	26450
823.13	26408
823.27	26366
823.41	26256
823.55	26069
823.69	26199
823.83	26164
823.97	26122
824.11	26088
824.25	26012
824.389	26069
824.529	26161
824.669	26161
824.809	26012
824.949	26157
825.089	26180
825.228	26096
825.368	25906
825.508	25830
825.648	25898
825.787	25883
825.927	25963
826.067	25757
826.206	25887
826.346	25906
826.485	25974
826.625	25845
826.765	25970
826.904	26050
827.044	25586
827.183	25632
827.323	25609
827.462	25548
827.601	25594
827.741	25586
827.88	25632
828.02	25540
828.159	25624
828.298	25746
828.437	25666
828.577	25518
828.716	25658
828.855	25529
828.994	25255
829.134	25316
829.273	25419
829.412	25270
829.551	25373
829.69	25312
829.829	25411
829.968	25445
830.107	25350
830.246	25304
830.385	25160
830.524	25164
830.663	25107
830.802	25091
830.941	24863
831.08	24837
831.219	25012
831.357	25031
831.496	25247
831.635	24939
831.774	24821
831.913	24772
832.051	24726
832.19	24734
832.329	24650
832.467	24802
832.606	24620
832.744	24604
832.883	24616
833.022	24544
833.16	24525
833.299	24616
833.437	24749
833.576	24578
833.714	24661
833.852	24753
833.991	24574
834.129	24741
834.267	24661
834.406	24673
834.544	24604
834.682	24650
834.821	24627
834.959	24734
835.097	24601
835.235	24673
835.373	24612
835.511	24665
835.65	24372
835.788	24525
835.926	24498
836.064	24414
836.202	24361
836.34	24448
836.478	24547
836.615	24479
836.753	24494
836.891	24517
837.029	24555
837.167	24369
837.305	24369
837.443	24285
837.58	24388
837.718	24388
837.856	24388
837.993	24228
838.131	24308
838.269	24220
838.406	24182
838.544	24106
838.681	24003
838.819	23927
838.956	23794
839.094	23691
839.231	23870
839.369	23980
839.506	24083
839.643	23931
839.781	23756
839.918	23775
840.055	23790
840.193	23790
840.33	23661
840.467	23737
840.604	23817
840.742	23958
840.879	23619
841.016	23756
841.153	23699
841.29	23756
841.427	23726
841.564	23687
841.701	23775
841.838	23577
841.975	23554
842.112	23585
842.249	23455
842.385	23463
842.522	23691
842.659	23543
842.796	23543
842.933	23558
843.069	23410
843.206	23383
843.343	23417
843.479	23391
843.616	23482
843.752	23197
843.889	23159
844.025	23315
844.162	23296
844.298	23345
844.435	23140
844.571	23159
844.708	23235
844.844	23345
844.98	23383
845.117	23258
845.253	23193
845.389	23064
845.525	23010
845.661	23098
845.798	23010
845.934	22911
846.07	22896
846.206	23052
846.342	23044
846.478	22915
846.614	22645
846.75	22607
846.886	22679
847.022	22713
847.158	22725
847.294	22698
847.429	22797
847.565	22622
847.701	22869
847.837	22322
847.972	22424
848.108	22535
848.244	22451
848.379	22329
848.515	22291
848.65	22348
848.786	22348
848.921	22295
849.057	22409
849.192	22246
849.328	22379
849.463	22280
849.598	22181
849.734	22200
849.869	22162
850.004	22006
850.14	21975
850.275	22070
850.41	21903
850.545	21922
850.68	21956
850.815	22063
850.95	21972
851.085	22207
851.22	22124
851.355	22074
851.49	22059
851.625	22124
851.76	22017
851.895	21979
852.03	21937
852.165	22036
852.299	22154
852.434	22101
852.569	22013
852.703	21960
852.838	22082
852.973	22044
853.107	22070
853.242	21998
853.376	21835
853.511	21789
853.645	21823
853.78	21941
853.914	21899
854.048	21774
854.183	21854
854.317	21903
854.451	21915
854.585	21968
854.72	21808
854.854	21930
854.988	21789
855.122	21770
855.256	21747
855.39	21747
855.524	21968
855.658	21823
855.792	21823
855.926	21888
856.06	21899
856.194	21873
856.327	21930
856.461	21838
856.595	21785
856.729	21911
856.862	21934
856.996	21922
857.13	21937
857.263	21930
857.397	21873
857.53	21766
857.664	21816
857.797	21979
857.931	21907
858.064	21838
858.197	21983
858.331	21800
858.464	21842
858.597	21770
858.731	21861
858.864	21831
858.997	21842
859.13	21804
859.263	21835
859.396	21983
859.529	21800
859.662	21732
859.795	21823
859.928	21880
860.061	21983
860.194	22109
860.327	21918
860.46	21751
860.592	21960
860.725	21991
860.858	21937
860.99	21865
861.123	21823
861.256	21880
861.388	21835
861.521	22630
861.653	21762
861.786	21572
861.918	21720
862.05	21759
862.183	21854
862.315	21774
862.447	21835
862.58	21709
862.712	21492
862.844	21523
862.976	21652
863.108	21542
863.24	22025
863.372	21488
863.504	21435
863.636	21526
863.768	21663
863.9	21564
864.032	21545
864.164	21481
864.296	21568
864.428	21622
864.559	21564
864.691	21652
864.823	21523
864.954	21519
865.086	21492
865.217	21458
865.349	21291
865.48	21458
865.612	21435
865.743	21523
865.875	21424
866.006	21447
866.137	21485
866.269	21401
866.4	21504
866.531	21367
866.662	21245
866.793	21306
866.924	21401
867.055	21424
867.186	21355
867.317	21313
867.448	21336
867.579	21450
867.71	21154
867.841	21291
867.972	21329
868.103	21325
868.233	21397
868.364	21370
868.495	21530
868.625	21622
868.756	21732
868.886	21428
869.017	21610
869.147	21751
869.278	21709
869.408	21610
869.539	21663
869.669	21713
869.799	21633
869.929	21682
870.06	21789
870.19	21899
870.32	21823
870.45	21991
870.58	21907
870.71	22196
870.84	22150
870.97	22010
871.1	21937
871.23	22154
871.36	22090
871.489	22063
871.619	22211
871.749	22204
871.879	22158
872.008	22386
872.138	22196
872.267	22101
872.397	22078
872.526	22078
872.656	22070
872.785	21994
872.915	22169
873.044	22211
873.173	22265
873.303	22242
873.432	22211
873.561	22428
873.69	22253
873.819	22287
873.948	22284
874.077	22242
874.206	22128
874.335	22215
874.464	22268
874.593	22512
874.722	22546
874.851	22485
874.979	22421
875.108	22561
875.237	22557
875.365	22478
875.494	22348
875.623	22542
875.751	22398
875.88	22474
876.008	22542
876.136	22618
876.265	22790
876.393	22957
876.521	22850
876.65	22850
876.778	22805
876.906	22904
877.034	22618
877.162	22850
877.29	22721
877.418	22744
877.546	22771
877.674	22733
877.802	22755
877.93	22854
878.058	22774
878.185	22649
878.313	22733
878.441	22752
878.568	22729
878.696	22694
878.824	22873
878.951	22885
879.079	23075
879.206	23079
879.333	23044
879.461	22694
879.588	22831
879.715	22976
879.842	23033
879.97	22881
880.097	22580
880.224	22599
880.351	22687
880.478	22641
880.605	22466
880.732	22641
880.859	22786
880.986	22679
881.112	22645
881.239	22466
881.366	22371
881.493	22322
881.619	22230
881.746	22135
881.872	22112
881.999	22093
882.125	22044
882.252	22207
882.378	22143
882.505	22219
882.631	22048
882.757	21838
882.883	22002
883.01	21857
883.136	21797
883.262	21759
883.388	21660
883.514	21812
883.64	21854
883.766	21869
883.892	21755
884.018	21644
884.143	21850
884.269	21876
884.395	21614
884.52	21462
884.646	21561
884.772	21488
884.897	21397
885.023	21580
885.148	21603
885.274	21568
885.399	21564
885.524	21477
885.65	21488
885.775	21530
885.9	21393
886.025	21648
886.15	21378
886.275	21519
886.4	21332
886.525	21447
886.65	21359
886.775	21279
886.9	21641
887.025	21675
887.149	21458
887.274	21249
887.399	21275
887.523	21264
887.648	21169
887.773	21142
887.897	21405
888.021	21283
888.146	21192
888.27	21226
888.395	21359
888.519	21275
888.643	21287
888.767	21249
888.891	21230
889.015	21058
889.139	21233
889.263	21070
889.387	21291
889.511	21268
889.635	21272
889.759	21070
889.883	20929
890.006	21066
890.13	21135
890.254	20971
890.377	21001
890.501	20785
890.624	20731
890.748	20842
890.871	20758
890.995	20651
891.118	20644
891.241	20526
891.364	20587
891.488	20830
891.611	20492
891.734	20682
891.857	20682
891.98	20629
892.103	20613
892.226	20617
892.349	20533
892.471	20419
892.594	20537
892.717	20541
892.839	20495
892.962	20427
893.085	20594
893.207	20476
893.33	20484
893.452	20446
893.575	20606
893.697	20522
893.819	20625
893.941	20804
894.064	20636
894.186	20457
894.308	20530
894.43	20663
894.552	20746
894.674	20682
894.796	20427
894.918	20461
895.04	20507
895.161	20568
895.283	20442
895.405	20366
895.526	20457
895.648	20514
895.769	20575
895.891	20594
896.012	20651
896.134	20499
896.255	20495
896.376	20450
896.498	20575
896.619	20613
896.74	20503
896.861	20530
896.982	20724
897.103	21173
897.224	20716
897.345	20777
897.466	20731
897.587	20842
897.708	20864
897.828	20872
897.949	20727
898.07	20629
898.19	20602
898.311	20731
898.431	20621
898.552	20762
898.672	20705
898.792	20792
898.913	20575
899.033	20716
899.153	20549
899.273	20423
899.393	20431
899.513	20537
899.633	20571
899.753	20431
899.873	20438
899.993	20434
900.113	20522
900.232	20362
900.352	20400
900.472	20237
900.591	20252
900.711	20202
900.83	20202
900.95	20259
901.069	20229
901.189	20164
901.308	19883
901.427	19837
901.546	19849
901.665	19921
901.784	19811
901.904	19666
902.023	19487
902.141	19419
902.26	19422
902.379	19400
902.498	19343
902.617	19308
902.735	19373
902.854	19278
902.973	19259
903.091	19095
903.21	19080
903.328	18989
903.446	18924
903.565	18905
903.683	18863
903.801	18772
903.919	18760
904.038	18707
904.156	18532
904.274	18597
904.392	18570
904.51	18445
904.627	18532
904.745	18627
904.863	18582
904.981	18353
905.098	18174
905.216	18201
905.334	18171
905.451	18194
905.569	18266
905.686	18224
905.803	18091
905.921	18038
906.038	18117
906.155	18034
906.272	17939
906.389	17923
906.506	17779
906.623	17855
906.74	17798
906.857	17764
906.974	17703
907.091	17699
907.208	17901
907.324	17661
907.441	17695
907.557	17528
907.674	17566
907.79	17391
907.907	17387
908.023	17581
908.139	17551
908.256	17273
908.372	17292
908.488	17387
908.604	17223
908.72	17128
908.836	17220
908.952	17189
909.068	17124
909.184	17220
909.3	17159
909.415	17170
909.531	17166
909.647	16873
909.762	16980
909.878	16866
909.993	16949
910.108	16858
910.224	16835
910.339	16828
910.454	16782
910.57	16740
910.685	16664
910.8	16915
910.915	16850
911.03	16611
911.145	16558
911.259	16554
911.374	16508
911.489	16417
911.604	16363
911.718	16287
911.833	16249
911.947	16139
912.062	16097
912.176	16204
912.291	16272
912.405	16185
912.519	16443
912.633	16322
912.748	16253
912.862	16150
912.976	16063
913.09	15945
913.204	15972
913.318	16086
913.431	16059
913.545	16162
913.659	16116
913.772	16032
913.886	15884
914	15918
914.113	15941
914.226	15960
914.34	15953
914.453	15732
914.566	15800
914.68	15656
914.793	15720
914.906	15515
915.019	15439
915.132	15340
915.245	15439
915.358	15450
915.47	15416
915.583	15405
915.696	15405
915.809	15473
915.921	15511
916.034	15348
916.146	15332
916.259	15268
916.371	15405
916.483	15393
916.595	15226
916.708	15195
916.82	15218
916.932	15188
917.044	15093
917.156	15127
917.268	15077
917.38	15077
917.491	15074
917.603	15024
917.715	15112
917.826	15192
917.938	15089
918.049	14883
918.161	15058
918.272	15116
918.384	15104
918.495	14952
918.606	14826
918.717	14724
918.828	14788
918.939	14811
919.05	14617
919.161	14788
919.272	14579
919.383	14617
919.494	14739
919.604	14921
919.715	14823
919.826	14686
919.936	14716
920.047	14921
920.157	14720
920.267	14990
920.378	14788
920.488	14777
920.598	14937
920.708	15036
920.818	14773
920.928	14933
921.038	15146
921.148	15017
921.258	14682
921.368	14575
921.477	14503
921.587	14457
921.697	14419
921.806	14568
921.916	14381
922.025	14358
922.134	14199
922.244	14088
922.353	14286
922.462	13997
922.571	13997
922.68	13894
922.789	13791
922.898	13871
923.007	13765
923.116	13887
923.224	13700
923.333	13795
923.442	13708
923.55	13616
923.659	13651
923.767	13666
923.876	13575
923.984	13590
924.092	13563
924.201	13472
924.309	13544
924.417	13567
924.525	13403
924.633	13426
924.741	14206
924.849	13324
924.956	13358
925.064	13247
925.172	13122
925.279	13160
925.387	13228
925.494	13198
925.602	13297
925.709	13149
925.816	13122
925.924	13110
926.031	13259
926.138	13164
926.245	13236
926.352	13027
926.459	13175
926.566	13236
926.673	13069
926.779	12897
926.886	12916
926.993	12779
927.099	12692
927.206	12730
927.312	12627
927.419	12798
927.525	12707
927.631	12738
927.737	12654
927.843	12627
927.95	12429
928.056	12448
928.162	12490
928.267	12608
928.373	13126
928.479	12696
928.585	12357
928.69	12563
928.796	12502
928.901	12460
929.007	12384
929.112	12422
929.218	12338
929.323	12304
929.428	12239
929.533	12334
929.638	12190
929.743	12243
929.848	12350
929.953	12159
930.058	12140
930.163	11988
930.267	12022
930.372	12083
930.477	11874
930.581	12209
930.685	11984
930.79	11832
930.894	11977
930.998	11836
931.103	11904
931.207	11566
931.311	11558
931.415	11368
931.519	11193
931.623	11223
