Data from test_V78500241_2091.txt Node
Date: Fri Mar 25 15:56:17 CST 2022
User: usil
Spectrometer: V785-0024
Trigger mode: 0
Integration Time (sec): 4.000000E-1
Scans to average: 1
Nonlinearity correction enabled: false
Boxcar width: 0
Storing dark spectrum: false
XAxis mode: Wavelengths
Number of Pixels in Spectrum: 1024
>>>>>Begin Spectral Data<<<<<
801.071	28341
801.214	28219
801.356	28070
801.499	28082
801.641	27892
801.783	27774
801.926	28021
802.068	27873
802.211	27838
802.353	27804
802.496	27732
802.638	27561
802.78	27583
802.923	27542
803.065	27447
803.208	27355
803.35	27496
803.492	27747
803.635	27781
803.777	27755
803.919	27682
804.061	28158
804.204	27797
804.346	27838
804.488	27675
804.63	27819
804.773	27698
804.915	27880
805.057	27880
805.199	27800
805.341	27797
805.483	28013
805.626	27964
805.768	27895
805.91	27918
806.052	28017
806.194	27850
806.336	28032
806.478	27956
806.62	27911
806.762	28025
806.904	28261
807.046	28405
807.188	28177
807.33	28394
807.472	28436
807.614	28344
807.756	28417
807.898	28215
808.04	28139
808.182	28013
808.324	28337
808.465	28341
808.607	28504
808.749	28618
808.891	28717
809.033	28668
809.174	28675
809.316	28649
809.458	28634
809.6	28626
809.741	28687
809.883	28736
810.025	28847
810.166	28847
810.308	28881
810.45	28919
810.591	28679
810.733	28584
810.875	28641
811.016	28523
811.158	28470
811.299	28710
811.441	28767
811.582	28774
811.724	28584
811.865	28622
812.007	28607
812.148	28615
812.29	28637
812.431	28687
812.573	28759
812.714	29044
812.855	28991
812.997	29212
813.138	29277
813.279	29208
813.421	29056
813.562	29056
813.703	28972
813.845	28733
813.986	28683
814.127	28333
814.268	28322
814.41	28265
814.551	28367
814.692	28310
814.833	28337
814.974	28363
815.115	28162
815.256	28230
815.397	28036
815.539	28036
815.68	28017
815.821	27991
815.962	28055
816.103	28143
816.244	27876
816.385	27907
816.526	27823
816.666	27618
816.807	27705
816.948	27572
817.089	27694
817.23	27785
817.371	27660
817.512	27583
817.653	27542
817.793	27443
817.934	27534
818.075	27576
818.216	27583
818.356	27466
818.497	27500
818.638	27348
818.778	27378
818.919	27321
819.06	27397
819.2	27386
819.341	27523
819.481	27496
819.622	27778
819.762	27823
819.903	27876
820.043	27835
820.184	27652
820.324	27644
820.465	27869
820.605	27644
820.746	27656
820.886	27447
821.026	27614
821.167	27603
821.307	27717
821.447	27587
821.588	27568
821.728	27462
821.868	27138
822.008	27077
822.149	26994
822.289	26994
822.429	26705
822.569	26891
822.709	26769
822.849	26670
822.99	26640
823.13	26583
823.27	26473
823.41	26412
823.55	26298
823.69	26358
823.83	26374
823.97	26351
824.11	26138
824.25	26164
824.389	26278
824.529	26317
824.669	26263
824.809	26339
824.949	26286
825.089	26298
825.228	26218
825.368	26096
825.508	25993
825.648	26058
825.787	26119
825.927	26039
826.067	26058
826.206	26001
826.346	26221
826.485	26142
826.625	26050
826.765	26256
826.904	26172
827.044	25864
827.183	25799
827.323	25742
827.462	25769
827.601	25746
827.741	25860
827.88	25780
828.02	25761
828.159	25799
828.298	25742
828.437	25769
828.577	25700
828.716	25864
828.855	25643
828.994	25438
829.134	25369
829.273	25575
829.412	25441
829.551	25540
829.69	25518
829.829	25502
829.968	25483
830.107	25556
830.246	25552
830.385	25331
830.524	25369
830.663	25293
830.802	25145
830.941	25110
831.08	25114
831.219	25183
831.357	25263
831.496	25392
831.635	25148
831.774	25038
831.913	24970
832.051	24989
832.19	24768
832.329	24852
832.467	24764
832.606	24707
832.744	24741
832.883	24639
833.022	24837
833.16	24730
833.299	24821
833.437	24776
833.576	24852
833.714	24913
833.852	24833
833.991	24856
834.129	24939
834.267	24897
834.406	24833
834.544	24977
834.682	24802
834.821	24768
834.959	24966
835.097	24753
835.235	24787
835.373	24726
835.511	24730
835.65	24521
835.788	24745
835.926	24380
836.064	24479
836.202	24422
836.34	24738
836.478	24658
836.615	24669
836.753	24582
836.891	24620
837.029	24722
837.167	24574
837.305	24601
837.443	24547
837.58	24509
837.718	24547
837.856	24433
837.993	24407
838.131	24429
838.269	24403
838.406	24357
838.544	24258
838.681	24163
838.819	24011
838.956	23992
839.094	24129
839.231	23946
839.369	24034
839.506	24391
839.643	24140
839.781	24011
839.918	23813
840.055	24045
840.193	23889
840.33	23980
840.467	23866
840.604	23809
840.742	24140
840.879	23771
841.016	23703
841.153	23722
841.29	23965
841.427	23786
841.564	23889
841.701	23794
841.838	23946
841.975	23745
842.112	23745
842.249	23760
842.385	23790
842.522	23855
842.659	23680
842.796	23554
842.933	23592
843.069	23570
843.206	23509
843.343	23653
843.479	23642
843.616	23630
843.752	23349
843.889	23433
844.025	23482
844.162	23356
844.298	23474
844.435	23425
844.571	23421
844.708	23497
844.844	23497
844.98	23505
845.117	23444
845.253	23303
845.389	23197
845.525	23334
845.661	23147
845.798	23079
845.934	23208
846.07	23083
846.206	23223
846.342	23200
846.478	23159
846.614	22790
846.75	22782
846.886	22934
847.022	22919
847.158	22801
847.294	22835
847.429	22759
847.565	22843
847.701	23003
847.837	22630
847.972	22451
848.108	22672
848.244	22694
848.379	22603
848.515	22344
848.65	22470
848.786	22500
848.921	22424
849.057	22421
849.192	22554
849.328	22409
849.463	22531
849.598	22276
849.734	22200
849.869	22303
850.004	22082
850.14	22207
850.275	22207
850.41	22177
850.545	22143
850.68	22139
850.815	22287
850.95	22215
851.085	22451
851.22	22284
851.355	22177
851.49	22177
851.625	22169
851.76	22196
851.895	22093
852.03	21968
852.165	22147
852.299	22291
852.434	22257
852.569	22158
852.703	22261
852.838	22284
852.973	22230
853.107	22405
853.242	22131
853.376	22029
853.511	21819
853.645	22032
853.78	22090
853.914	21987
854.048	22013
854.183	21998
854.317	22120
854.451	22280
854.585	22093
854.72	22021
854.854	22109
854.988	21991
855.122	22044
855.256	21922
855.39	22036
855.524	22051
855.658	22055
855.792	22025
855.926	22029
856.06	22074
856.194	22097
856.327	22006
856.461	21934
856.595	21907
856.729	21934
856.862	22059
856.996	22070
857.13	22070
857.263	21987
857.397	21987
857.53	21930
857.664	22051
857.797	22025
857.931	22253
858.064	21941
858.197	21983
858.331	22025
858.464	21857
858.597	21968
858.731	22063
858.864	22067
858.997	21975
859.13	22120
859.263	22002
859.396	22101
859.529	21991
859.662	22025
859.795	21888
859.928	22051
860.061	22067
860.194	22154
860.327	22105
860.46	22097
860.592	22139
860.725	22070
860.858	22215
860.99	21998
861.123	21911
861.256	21922
861.388	22036
861.521	22729
861.653	21945
861.786	21793
861.918	21884
862.05	21880
862.183	21983
862.315	21857
862.447	21876
862.58	21956
862.712	21652
862.844	21694
862.976	21682
863.108	21751
863.24	22234
863.372	21698
863.504	21732
863.636	21812
863.768	21690
863.9	21774
864.032	21641
864.164	21587
864.296	21736
864.428	21823
864.559	21899
864.691	21838
864.823	21614
864.954	21739
865.086	21717
865.217	21610
865.349	21557
865.48	21671
865.612	21515
865.743	21736
865.875	21587
866.006	21637
866.137	21462
866.269	21530
866.4	21534
866.531	21443
866.662	21458
866.793	21572
866.924	21481
867.055	21481
867.186	21545
867.317	21538
867.448	21469
867.579	21469
867.71	21351
867.841	21477
867.972	21542
868.103	21561
868.233	21515
868.364	21580
868.495	21698
868.625	21774
868.756	21667
868.886	21675
869.017	21717
869.147	21751
869.278	21926
869.408	21804
869.539	21827
869.669	21873
869.799	21835
869.929	21911
870.06	21953
870.19	22215
870.32	22128
870.45	22101
870.58	22070
870.71	22284
870.84	22177
870.97	22181
871.1	22219
871.23	22440
871.36	22421
871.489	22287
871.619	22360
871.749	22390
871.879	22417
872.008	22478
872.138	22424
872.267	22356
872.397	22337
872.526	22329
872.656	22344
872.785	22253
872.915	22417
873.044	22333
873.173	22531
873.303	22557
873.432	22554
873.561	22546
873.69	22485
873.819	22352
873.948	22428
874.077	22436
874.206	22337
874.335	22287
874.464	22653
874.593	22577
874.722	22569
874.851	22618
874.979	22748
875.108	22637
875.237	22683
875.365	22493
875.494	22752
875.623	22809
875.751	22596
875.88	22675
876.008	22790
876.136	22850
876.265	23121
876.393	23060
876.521	23105
876.65	23083
876.778	23105
876.906	22930
877.034	23041
877.162	22930
877.29	22930
877.418	23166
877.546	22949
877.674	22919
877.802	22991
877.93	22980
878.058	22923
878.185	22968
878.313	22961
878.441	22949
878.568	22786
878.696	22976
878.824	23033
878.951	23052
879.079	23083
879.206	23159
879.333	23064
879.461	23064
879.588	23086
879.715	23143
879.842	23284
879.97	23109
880.097	22934
880.224	22710
880.351	22900
880.478	22927
880.605	22805
880.732	22763
880.859	23014
880.986	22786
881.112	22831
881.239	22626
881.366	22428
881.493	22436
881.619	22352
881.746	22421
881.872	22261
881.999	22356
882.125	22348
882.252	22375
882.378	22360
882.505	22478
882.631	22295
882.757	22070
882.883	22166
883.01	22109
883.136	22074
883.262	21865
883.388	21846
883.514	22048
883.64	22105
883.766	21987
883.892	21876
884.018	21869
884.143	21945
884.269	22204
884.395	21778
884.52	21705
884.646	21576
884.772	21682
884.897	21564
885.023	21717
885.148	21701
885.274	21774
885.399	21766
885.524	21701
885.65	21709
885.775	21732
885.9	21667
886.025	21698
886.15	21709
886.275	21629
886.4	21538
886.525	21614
886.65	21667
886.775	21557
886.9	21804
887.025	21857
887.149	21698
887.274	21473
887.399	21454
887.523	21507
887.648	21458
887.773	21370
887.897	21447
888.021	21454
888.146	21329
888.27	21583
888.395	21511
888.519	21507
888.643	21397
888.767	21572
888.891	21283
889.015	21252
889.139	21268
889.263	21195
889.387	21272
889.511	21420
889.635	21329
889.759	21230
889.883	21249
890.006	21256
890.13	21325
890.254	21154
890.377	21180
890.501	21081
890.624	20990
890.748	21116
890.871	21005
890.995	20682
891.118	20826
891.241	20727
891.364	20830
891.488	21074
891.611	20765
891.734	20830
891.857	20758
891.98	20819
892.103	20819
892.226	20731
892.349	20826
892.471	20590
892.594	20800
892.717	20674
892.839	20716
892.962	20823
893.085	20815
893.207	20762
893.33	20526
893.452	20621
893.575	20640
893.697	20724
893.819	20929
893.941	20933
894.064	20933
894.186	20640
894.308	20648
894.43	20788
894.552	20800
894.674	20739
894.796	20488
894.918	20651
895.04	20689
895.161	20667
895.283	20724
895.405	20549
895.526	20678
895.648	20648
895.769	20667
895.891	20758
896.012	20708
896.134	20705
896.255	20590
896.376	20636
896.498	20762
896.619	20693
896.74	20720
896.861	20701
896.982	21009
897.103	21176
897.224	20883
897.345	20914
897.466	20902
897.587	20800
897.708	20960
897.828	20933
897.949	20944
898.07	20697
898.19	20880
898.311	20910
898.431	20845
898.552	20826
898.672	21043
898.792	20967
898.913	20834
899.033	20769
899.153	20746
899.273	20594
899.393	20727
899.513	20640
899.633	20571
899.753	20750
899.873	20583
899.993	20701
900.113	20564
900.232	20758
900.352	20488
900.472	20427
900.591	20370
900.711	20552
900.83	20408
900.95	20400
901.069	20492
901.189	20366
901.308	20092
901.427	20020
901.546	19917
901.665	19993
901.784	19917
901.904	19906
902.023	19837
902.141	19552
902.26	19506
902.379	19567
902.498	19460
902.617	19419
902.735	19483
902.854	19460
902.973	19373
903.091	19065
903.21	19103
903.328	19213
903.446	19061
903.565	18970
903.683	18951
903.801	18787
903.919	18867
904.038	18897
904.156	18802
904.274	18772
904.392	18745
904.51	18646
904.627	18494
904.745	18806
904.863	18787
904.981	18513
905.098	18479
905.216	18448
905.334	18479
905.451	18334
905.569	18357
905.686	18334
905.803	18270
905.921	18133
906.038	18308
906.155	18190
906.272	18091
906.389	18057
906.506	17912
906.623	17999
906.74	17840
906.857	17722
906.974	17805
907.091	18007
907.208	17988
907.324	18049
907.441	17855
907.557	17752
907.674	17779
907.79	17562
907.907	17558
908.023	17642
908.139	17619
908.256	17505
908.372	17554
908.488	17638
908.604	17402
908.72	17334
908.836	17444
908.952	17311
909.068	17341
909.184	17539
909.3	17402
909.415	17250
909.531	17349
909.647	17018
909.762	17083
909.878	17018
909.993	17086
910.108	17003
910.224	17121
910.339	17010
910.454	16908
910.57	16843
910.685	16733
910.8	16987
910.915	16972
911.03	16877
911.145	16702
911.259	16592
911.374	16698
911.489	16493
911.604	16405
911.718	16337
911.833	16356
911.947	16306
912.062	16268
912.176	16379
912.291	16443
912.405	16322
912.519	16588
912.633	16478
912.748	16402
912.862	16230
912.976	16185
913.09	16101
913.204	16200
913.318	16211
913.431	16242
913.545	16226
913.659	16226
913.772	16082
913.886	15964
914	15979
914.113	16051
914.226	16196
914.34	16032
914.453	15819
914.566	15987
914.68	15850
914.793	15766
914.906	15587
915.019	15606
915.132	15553
915.245	15557
915.358	15523
915.47	15599
915.583	15515
915.696	15561
915.809	15618
915.921	15717
916.034	15507
916.146	15416
916.259	15534
916.371	15473
916.483	15538
916.595	15370
916.708	15420
916.82	15439
916.932	15408
917.044	15348
917.156	15351
917.268	15249
917.38	15279
917.491	15230
917.603	15214
917.715	15222
917.826	15249
917.938	15131
918.049	15062
918.161	15081
918.272	15351
918.384	15195
918.495	15047
918.606	15009
918.717	14902
918.828	14986
918.939	14918
919.05	14796
919.161	14963
919.272	14655
919.383	14830
919.494	14975
919.604	15127
919.715	14948
919.826	14868
919.936	14899
920.047	14895
920.157	14902
920.267	15173
920.378	14899
920.488	14861
920.598	15055
920.708	15173
920.818	14929
920.928	15001
921.038	15252
921.148	15135
921.258	14914
921.368	14819
921.477	14659
921.587	14602
921.697	14507
921.806	14579
921.916	14484
922.025	14275
922.134	14328
922.244	14202
922.353	14313
922.462	14130
922.571	14077
922.68	13894
922.789	13963
922.898	14031
923.007	13921
923.116	13921
923.224	13811
923.333	13913
923.442	13769
923.55	13685
923.659	13677
923.767	13772
923.876	13605
923.984	13772
924.092	13571
924.201	13647
924.309	13639
924.417	13715
924.525	13601
924.633	13590
924.741	14522
924.849	13331
924.956	13529
925.064	13388
925.172	13255
925.279	13388
925.387	13289
925.494	13312
925.602	13434
925.709	13430
925.816	13240
925.924	13274
926.031	13335
926.138	13240
926.245	13301
926.352	13175
926.459	13324
926.566	13358
926.673	13175
926.779	13061
926.886	12985
926.993	12935
927.099	12943
927.206	12749
927.312	12825
927.419	12962
927.525	12878
927.631	12882
927.737	12749
927.843	12722
927.95	12525
928.056	12684
928.162	12730
928.267	12715
928.373	13228
928.479	12665
928.585	12506
928.69	12650
928.796	12749
928.901	12528
929.007	12490
929.112	12574
929.218	12391
929.323	12483
929.428	12365
929.533	12464
929.638	12346
929.743	12266
929.848	12323
929.953	12296
930.058	12197
930.163	12148
930.267	12140
930.372	12178
930.477	12072
930.581	12270
930.685	12019
930.79	11965
930.894	11965
930.998	11878
931.103	11977
931.207	11718
931.311	11638
931.415	11570
931.519	11315
931.623	11280
