Data from test_V78500241_2546.txt Node
Date: Fri Mar 25 15:59:26 CST 2022
User: usil
Spectrometer: V785-0024
Trigger mode: 0
Integration Time (sec): 4.000000E-1
Scans to average: 1
Nonlinearity correction enabled: false
Boxcar width: 0
Storing dark spectrum: false
XAxis mode: Wavelengths
Number of Pixels in Spectrum: 1024
>>>>>Begin Spectral Data<<<<<
801.071	28729
801.214	28755
801.356	28481
801.499	28466
801.641	28215
801.783	28303
801.926	28447
802.068	28261
802.211	28261
802.353	28158
802.496	28097
802.638	28082
802.78	28063
802.923	27926
803.065	27892
803.208	27934
803.35	27975
803.492	28223
803.635	28238
803.777	28109
803.919	28314
804.061	28508
804.204	28333
804.346	28223
804.488	28169
804.63	28249
804.773	28204
804.915	28356
805.057	28394
805.199	28272
805.341	28436
805.483	28527
805.626	28379
805.768	28352
805.91	28474
806.052	28527
806.194	28356
806.336	28596
806.478	28440
806.62	28554
806.762	28683
806.904	28793
807.046	28881
807.188	28949
807.33	28892
807.472	28869
807.614	28831
807.756	28866
807.898	28835
808.04	28603
808.182	28820
808.324	28862
808.465	28790
808.607	28866
808.749	29212
808.891	29025
809.033	29239
809.174	29204
809.316	29124
809.458	29162
809.6	29124
809.741	29197
809.883	29383
810.025	29436
810.166	29406
810.308	29516
810.45	29296
810.591	29353
810.733	29189
810.875	29121
811.016	29041
811.158	29014
811.299	29140
811.441	29452
811.582	29292
811.724	29128
811.865	29086
812.007	29090
812.148	29258
812.29	29299
812.431	29303
812.573	29364
812.714	29463
812.855	29710
812.997	29646
813.138	29916
813.279	29764
813.421	29684
813.562	29471
813.703	29444
813.845	29478
813.986	29231
814.127	28972
814.268	28797
814.41	28953
814.551	28740
814.692	28908
814.833	28850
814.974	28748
815.115	28900
815.256	28691
815.397	28729
815.539	28706
815.68	28630
815.821	28512
815.962	28702
816.103	28653
816.244	28405
816.385	28546
816.526	28299
816.666	28211
816.807	28044
816.948	28234
817.089	28284
817.23	28177
817.371	28086
817.512	28143
817.653	28070
817.793	28120
817.934	28234
818.075	28265
818.216	28322
818.356	28093
818.497	28025
818.638	27922
818.778	27918
818.919	27979
819.06	27994
819.2	28093
819.341	28086
819.481	28147
819.622	28223
819.762	28611
819.903	28459
820.043	28447
820.184	28177
820.324	28249
820.465	28386
820.605	28265
820.746	28207
820.886	28120
821.026	28284
821.167	28211
821.307	28261
821.447	28211
821.588	28173
821.728	28097
821.868	27861
822.008	27679
822.149	27751
822.289	27671
822.429	27374
822.569	27332
822.709	27283
822.849	27256
822.99	27230
823.13	27226
823.27	27142
823.41	27085
823.55	26842
823.69	27051
823.83	26937
823.97	26895
824.11	26830
824.25	26720
824.389	26716
824.529	26975
824.669	26762
824.809	26940
824.949	26857
825.089	26834
825.228	26872
825.368	26758
825.508	26564
825.648	26689
825.787	26716
825.927	26842
826.067	26705
826.206	26678
826.346	26693
826.485	26568
826.625	26697
826.765	26872
826.904	26648
827.044	26499
827.183	26404
827.323	26438
827.462	26355
827.601	26518
827.741	26332
827.88	26495
828.02	26298
828.159	26450
828.298	26453
828.437	26446
828.577	26256
828.716	26396
828.855	26377
828.994	26092
829.134	26008
829.273	26130
829.412	26126
829.551	26122
829.69	26031
829.829	26248
829.968	26240
830.107	26183
830.246	26225
830.385	26077
830.524	25959
830.663	25837
830.802	25689
830.941	25620
831.08	25696
831.219	25849
831.357	25761
831.496	25742
831.635	25689
831.774	25552
831.913	25464
832.051	25510
832.19	25384
832.329	25544
832.467	25400
832.606	25293
832.744	25320
832.883	25403
833.022	25327
833.16	25460
833.299	25434
833.437	25327
833.576	25464
833.714	25422
833.852	25388
833.991	25533
834.129	25575
834.267	25552
834.406	25499
834.544	25460
834.682	25563
834.821	25411
834.959	25529
835.097	25343
835.235	25514
835.373	25426
835.511	25175
835.65	25350
835.788	25377
835.926	25145
836.064	25129
836.202	25126
836.34	25293
836.478	25183
836.615	25202
836.753	25247
836.891	25270
837.029	25373
837.167	25152
837.305	25080
837.443	25263
837.58	25103
837.718	24943
837.856	25217
837.993	24928
838.131	24966
838.269	24996
838.406	24913
838.544	24783
838.681	24749
838.819	24753
838.956	24616
839.094	24517
839.231	24589
839.369	24715
839.506	24935
839.643	24825
839.781	24544
839.918	24479
840.055	24620
840.193	24532
840.33	24422
840.467	24532
840.604	24475
840.742	24741
840.879	24361
841.016	24361
841.153	24395
841.29	24551
841.427	24460
841.564	24479
841.701	24418
841.838	24365
841.975	24323
842.112	24494
842.249	24251
842.385	24308
842.522	24361
842.659	24270
842.796	24098
842.933	24030
843.069	24289
843.206	24201
843.343	24304
843.479	24258
843.616	24399
843.752	24083
843.889	23920
844.025	24178
844.162	23916
844.298	24087
844.435	23950
844.571	23809
844.708	24045
844.844	24045
844.98	24167
845.117	23988
845.253	23954
845.389	23889
845.525	23817
845.661	23672
845.798	23786
845.934	23771
846.07	23566
846.206	23843
846.342	23840
846.478	23699
846.614	23539
846.75	23315
846.886	23474
847.022	23520
847.158	23467
847.294	23455
847.429	23585
847.565	23406
847.701	23611
847.837	23223
847.972	23189
848.108	23189
848.244	23269
848.379	23071
848.515	23090
848.65	23052
848.786	22984
848.921	23052
849.057	23064
849.192	23067
849.328	23003
849.463	23048
849.598	22923
849.734	22896
849.869	22854
850.004	22752
850.14	22885
850.275	22835
850.41	22763
850.545	22729
850.68	22793
850.815	22748
850.95	22774
851.085	22984
851.22	22919
851.355	22915
851.49	22847
851.625	22774
851.76	22820
851.895	22649
852.03	22649
852.165	22873
852.299	22831
852.434	22850
852.569	22702
852.703	22744
852.838	22942
852.973	22976
853.107	22873
853.242	22687
853.376	22691
853.511	22527
853.645	22542
853.78	22645
853.914	22702
854.048	22660
854.183	22508
854.317	22656
854.451	22839
854.585	22607
854.72	22653
854.854	22733
854.988	22462
855.122	22596
855.256	22440
855.39	22542
855.524	22763
855.658	22584
855.792	22675
855.926	22577
856.06	22596
856.194	22599
856.327	22550
856.461	22630
856.595	22504
856.729	22573
856.862	22596
856.996	22622
857.13	22653
857.263	22763
857.397	22687
857.53	22542
857.664	22679
857.797	22626
857.931	22691
858.064	22649
858.197	22683
858.331	22508
858.464	22599
858.597	22485
858.731	22519
858.864	22569
858.997	22455
859.13	22592
859.263	22637
859.396	22660
859.529	22508
859.662	22565
859.795	22603
859.928	22554
860.061	22767
860.194	22824
860.327	22630
860.46	22599
860.592	22816
860.725	22702
860.858	22733
860.99	22588
861.123	22504
861.256	22691
861.388	22664
861.521	23140
861.653	22382
861.786	22341
861.918	22421
862.05	22527
862.183	22500
862.315	22485
862.447	22656
862.58	22474
862.712	22303
862.844	22306
862.976	22421
863.108	22337
863.24	22767
863.372	22276
863.504	22432
863.636	22333
863.768	22390
863.9	22413
864.032	22249
864.164	22352
864.296	22322
864.428	22230
864.559	22367
864.691	22417
864.823	22306
864.954	22310
865.086	22257
865.217	22211
865.349	22090
865.48	22070
865.612	22196
865.743	22318
865.875	22242
866.006	22147
866.137	22124
866.269	22207
866.4	22211
866.531	22120
866.662	22055
866.793	22044
866.924	22169
867.055	22105
867.186	22150
867.317	22124
867.448	21987
867.579	22029
867.71	22070
867.841	21876
867.972	22192
868.103	21979
868.233	22131
868.364	22143
868.495	22230
868.625	22356
868.756	22402
868.886	22234
869.017	22481
869.147	22436
869.278	22500
869.408	22417
869.539	22284
869.669	22398
869.799	22394
869.929	22451
870.06	22466
870.19	22729
870.32	22660
870.45	22752
870.58	22713
870.71	22854
870.84	22862
870.97	22748
871.1	22664
871.23	22892
871.36	22965
871.489	22820
871.619	22892
871.749	22858
871.879	22923
872.008	23121
872.138	22946
872.267	22999
872.397	22611
872.526	22778
872.656	22911
872.785	22774
872.915	23090
873.044	23048
873.173	23041
873.303	23003
873.432	22957
873.561	23033
873.69	22957
873.819	22942
873.948	23018
874.077	23025
874.206	22892
874.335	22995
874.464	23060
874.593	23143
874.722	23109
874.851	23113
874.979	23330
875.108	23296
875.237	23048
875.365	23143
875.494	23208
875.623	23113
875.751	23166
875.88	23185
876.008	23353
876.136	23364
876.265	23562
876.393	23714
876.521	23589
876.65	23752
876.778	23608
876.906	23608
877.034	23520
877.162	23478
877.29	23509
877.418	23589
877.546	23562
877.674	23467
877.802	23535
877.93	23444
878.058	23551
878.185	23440
878.313	23474
878.441	23539
878.568	23383
878.696	23368
878.824	23604
878.951	23585
879.079	23691
879.206	23817
879.333	23615
879.461	23440
879.588	23741
879.715	23695
879.842	23863
879.97	23493
880.097	23395
880.224	23356
880.351	23417
880.478	23486
880.605	23280
880.732	23330
880.859	23589
880.986	23356
881.112	23292
881.239	23212
881.366	23105
881.493	22824
881.619	22938
881.746	22885
881.872	22862
881.999	22999
882.125	22820
882.252	22892
882.378	22927
882.505	23003
882.631	22721
882.757	22626
882.883	22675
883.01	22470
883.136	22664
883.262	22489
883.388	22519
883.514	22596
883.64	22573
883.766	22504
883.892	22462
884.018	22440
884.143	22421
884.269	22580
884.395	22185
884.52	22238
884.646	22246
884.772	22116
884.897	22162
885.023	22204
885.148	22295
885.274	22333
885.399	22348
885.524	22207
885.65	22207
885.775	22131
885.9	22196
886.025	22306
886.15	22200
886.275	22082
886.4	22200
886.525	22143
886.65	22177
886.775	22101
886.9	22371
887.025	22466
887.149	22166
887.274	22101
887.399	21926
887.523	21907
887.648	21922
887.773	21816
887.897	22154
888.021	22070
888.146	21846
888.27	21994
888.395	22002
888.519	22006
888.643	21926
888.767	21953
888.891	21865
889.015	21705
889.139	21850
889.263	21827
889.387	21953
889.511	21876
889.635	21869
889.759	21781
889.883	21724
890.006	21793
890.13	21819
890.254	21671
890.377	21728
890.501	21538
890.624	21397
890.748	21458
890.871	21386
890.995	21268
891.118	21260
891.241	21378
891.364	21310
891.488	21450
891.611	21336
891.734	21401
891.857	21336
891.98	21313
892.103	21412
892.226	21298
892.349	21146
892.471	21055
892.594	21207
892.717	21154
892.839	21268
892.962	21321
893.085	21321
893.207	21070
893.33	21005
893.452	21112
893.575	21176
893.697	21302
893.819	21287
893.941	21287
894.064	21378
894.186	21146
894.308	21199
894.43	21256
894.552	21291
894.674	21233
894.796	21005
894.918	21138
895.04	21058
895.161	21275
895.283	21138
895.405	21169
895.526	21070
895.648	21157
895.769	21123
895.891	21184
896.012	21363
896.134	21298
896.255	21096
896.376	21157
896.498	21070
896.619	21214
896.74	21104
896.861	21146
896.982	21576
897.103	21606
897.224	21473
897.345	21294
897.466	21249
897.587	21336
897.708	21370
897.828	21412
897.949	21264
898.07	21135
898.19	21256
898.311	21412
898.431	21431
898.552	21435
898.672	21416
898.792	21344
898.913	21359
899.033	21256
899.153	21211
899.273	20994
899.393	21157
899.513	21146
899.633	21066
899.753	21100
899.873	21074
899.993	21039
900.113	21013
900.232	21123
900.352	20929
900.472	20948
900.591	20834
900.711	20921
900.83	20857
900.95	20910
901.069	20815
901.189	20769
901.308	20552
901.427	20461
901.546	20396
901.665	20423
901.784	20442
901.904	20313
902.023	20153
902.141	19955
902.26	20031
902.379	20020
902.498	20008
902.617	19967
902.735	19947
902.854	19791
902.973	19856
903.091	19670
903.21	19628
903.328	19567
903.446	19453
903.565	19354
903.683	19388
903.801	19304
903.919	19350
904.038	19240
904.156	19179
904.274	19213
904.392	19091
904.51	19050
904.627	19095
904.745	19118
904.863	19156
904.981	18935
905.098	18787
905.216	18905
905.334	18905
905.451	18776
905.569	18802
905.686	18913
905.803	18833
905.921	18688
906.038	18783
906.155	18612
906.272	18563
906.389	18661
906.506	18384
906.623	18311
906.74	18384
906.857	18243
906.974	18258
907.091	18395
907.208	18407
907.324	18361
907.441	18266
907.557	18197
907.674	18022
907.79	18030
907.907	18045
908.023	18144
908.139	18091
908.256	17992
908.372	18015
908.488	18030
908.604	17783
908.72	17691
908.836	17885
908.952	17748
909.068	17794
909.184	17863
909.3	17786
909.415	17764
909.531	17779
909.647	17452
909.762	17471
909.878	17406
909.993	17478
910.108	17433
910.224	17467
910.339	17334
910.454	17436
910.57	17220
910.685	17124
910.8	17406
910.915	17455
911.03	17341
911.145	17060
911.259	16942
911.374	17067
911.489	16915
911.604	16900
911.718	16831
911.833	16786
911.947	16656
912.062	16611
912.176	16729
912.291	16786
912.405	16778
912.519	16934
912.633	16820
912.748	16847
912.862	16687
912.976	16596
913.09	16470
913.204	16554
913.318	16596
913.431	16584
913.545	16645
913.659	16683
913.772	16558
913.886	16538
914	16371
914.113	16485
914.226	16504
914.34	16493
914.453	16207
914.566	16470
914.68	16207
914.793	16143
914.906	16105
915.019	15975
915.132	15857
915.245	15994
915.358	15987
915.47	15983
915.583	15975
915.696	15922
915.809	15998
915.921	15991
916.034	15880
916.146	15789
916.259	15911
916.371	15869
916.483	15827
916.595	15823
916.708	15835
916.82	15850
916.932	15781
917.044	15637
917.156	15591
917.268	15542
917.38	15629
917.491	15477
917.603	15557
917.715	15644
917.826	15705
917.938	15462
918.049	15389
918.161	15477
918.272	15606
918.384	15587
918.495	15572
918.606	15462
918.717	15195
918.828	15256
918.939	15431
919.05	15150
919.161	15374
919.272	15112
919.383	15146
919.494	15237
919.604	15500
919.715	15241
919.826	15157
919.936	15195
920.047	15310
920.157	15237
920.267	15332
920.378	15249
920.488	15161
920.598	15389
920.708	15469
920.818	15401
920.928	15310
921.038	15568
921.148	15542
921.258	15146
921.368	15180
921.477	15058
921.587	14979
921.697	14830
921.806	15020
921.916	14891
922.025	14678
922.134	14545
922.244	14644
922.353	14575
922.462	14431
922.571	14355
922.68	14343
922.789	14187
922.898	14275
923.007	14313
923.116	14309
923.224	14275
923.333	14164
923.442	14199
923.55	13978
923.659	14092
923.767	14096
923.876	14103
923.984	14043
924.092	13925
924.201	14001
924.309	13963
924.417	13989
924.525	13837
924.633	13936
924.741	14868
924.849	13788
924.956	13845
925.064	13715
925.172	13586
925.279	13689
925.387	13723
925.494	13624
925.602	13685
925.709	13643
925.816	13502
925.924	13632
926.031	13636
926.138	13525
926.245	13590
926.352	13506
926.459	13563
926.566	13616
926.673	13373
926.779	13362
926.886	13236
926.993	13118
927.099	13179
927.206	13190
927.312	13069
927.419	13221
927.525	13141
927.631	13206
927.737	13088
927.843	13034
927.95	12932
928.056	13034
928.162	12981
928.267	13042
928.373	13616
928.479	13095
928.585	12817
928.69	12947
928.796	12954
928.901	12859
929.007	12627
929.112	12810
929.218	12776
929.323	12711
929.428	12730
929.533	12840
929.638	12658
929.743	12662
929.848	12574
929.953	12650
930.058	12490
930.163	12388
930.267	12327
930.372	12407
930.477	12319
930.581	12464
930.685	12384
930.79	12228
930.894	12220
930.998	12209
931.103	12350
931.207	11958
931.311	11916
931.415	11809
931.519	11585
931.623	11566
