Data from test_V78500241_645.txt Node
Date: Fri Mar 25 15:46:16 CST 2022
User: usil
Spectrometer: V785-0024
Trigger mode: 0
Integration Time (sec): 4.000000E-1
Scans to average: 1
Nonlinearity correction enabled: false
Boxcar width: 0
Storing dark spectrum: false
XAxis mode: Wavelengths
Number of Pixels in Spectrum: 1024
>>>>>Begin Spectral Data<<<<<
801.071	27762
801.214	27599
801.356	27294
801.499	27195
801.641	27096
801.783	27180
801.926	27154
802.068	27005
802.211	26960
802.353	26971
802.496	26765
802.638	26746
802.78	26868
802.923	26815
803.065	26617
803.208	26823
803.35	26826
803.492	26845
803.635	26861
803.777	26842
803.919	27028
804.061	27283
804.204	26902
804.346	26823
804.488	26838
804.63	27062
804.773	26880
804.915	26944
805.057	27211
805.199	27047
805.341	27013
805.483	27093
805.626	27096
805.768	26918
805.91	27005
806.052	27070
806.194	26982
806.336	27214
806.478	27085
806.62	27131
806.762	27161
806.904	27378
807.046	27595
807.188	27542
807.33	27450
807.472	27507
807.614	27416
807.756	27439
807.898	27252
808.04	27351
808.182	27382
808.324	27245
808.465	27340
808.607	27538
808.749	27614
808.891	27827
809.033	27865
809.174	27808
809.316	27717
809.458	27720
809.6	27686
809.741	27812
809.883	27778
810.025	27785
810.166	28078
810.308	27972
810.45	27941
810.591	27911
810.733	27800
810.875	27564
811.016	27557
811.158	27698
811.299	27922
811.441	27941
811.582	27808
811.724	27660
811.865	27648
812.007	27675
812.148	27739
812.29	27713
812.431	27854
812.573	27994
812.714	28185
812.855	28147
812.997	28318
813.138	28318
813.279	28405
813.421	28196
813.562	28246
813.703	28063
813.845	27960
813.986	27633
814.127	27549
814.268	27386
814.41	27374
814.551	27355
814.692	27469
814.833	27176
814.974	27344
815.115	27306
815.256	27264
815.397	27298
815.539	27241
815.68	27108
815.821	27077
815.962	27214
816.103	27252
816.244	26979
816.385	26967
816.526	26918
816.666	26804
816.807	26663
816.948	26796
817.089	26910
817.23	26682
817.371	26678
817.512	26625
817.653	26587
817.793	26682
817.934	26762
818.075	26750
818.216	26716
818.356	26651
818.497	26518
818.638	26415
818.778	26415
818.919	26465
819.06	26495
819.2	26560
819.341	26731
819.481	26640
819.622	26853
819.762	27024
819.903	27043
820.043	26811
820.184	26804
820.324	26754
820.465	26921
820.605	26834
820.746	26826
820.886	26674
821.026	26804
821.167	26724
821.307	26823
821.447	26743
821.588	26667
821.728	26332
821.868	26427
822.008	26286
822.149	26142
822.289	26202
822.429	25898
822.569	25769
822.709	25830
822.849	25605
822.99	25647
823.13	25674
823.27	25586
823.41	25422
823.55	25301
823.69	25487
823.83	25457
823.97	25457
824.11	25274
824.25	25221
824.389	25236
824.529	25369
824.669	25289
824.809	25430
824.949	25430
825.089	25270
825.228	25320
825.368	25114
825.508	25175
825.648	25164
825.787	25202
825.927	25164
826.067	25107
826.206	25145
826.346	25183
826.485	25206
826.625	25168
826.765	25126
826.904	25168
827.044	24973
827.183	24856
827.323	24905
827.462	24973
827.601	24901
827.741	24764
827.88	24833
828.02	24726
828.159	24772
828.298	24821
828.437	24924
828.577	24867
828.716	25027
828.855	24760
828.994	24589
829.134	24692
829.273	24623
829.412	24544
829.551	24353
829.69	24585
829.829	24536
829.968	24525
830.107	24650
830.246	24536
830.385	24521
830.524	24395
830.663	24490
830.802	24247
830.941	24194
831.08	24209
831.219	24152
831.357	24186
831.496	24380
831.635	24057
831.774	24064
831.913	24011
832.051	23961
832.19	23969
832.329	24003
832.467	23916
832.606	23821
832.744	23790
832.883	23779
833.022	23847
833.16	23824
833.299	23798
833.437	23836
833.576	23912
833.714	23958
833.852	23832
833.991	23992
834.129	23904
834.267	24034
834.406	23882
834.544	24022
834.682	23935
834.821	23836
834.959	24011
835.097	23813
835.235	23988
835.373	23904
835.511	23840
835.65	23642
835.788	23752
835.926	23665
836.064	23509
836.202	23634
836.34	23775
836.478	23775
836.615	23722
836.753	23783
836.891	23695
837.029	23790
837.167	23771
837.305	23592
837.443	23509
837.58	23512
837.718	23672
837.856	23566
837.993	23573
838.131	23547
838.269	23581
838.406	23493
838.544	23448
838.681	23128
838.819	23185
838.956	23056
839.094	23060
839.231	23155
839.369	23258
839.506	23421
839.643	23299
839.781	23094
839.918	22976
840.055	23022
840.193	23052
840.33	23022
840.467	23033
840.604	23102
840.742	23277
840.879	22900
841.016	22942
841.153	22847
841.29	23109
841.427	22904
841.564	23071
841.701	23048
841.838	22919
841.975	22889
842.112	22927
842.249	22835
842.385	22824
842.522	22995
842.659	22778
842.796	22733
842.933	22774
843.069	22698
843.206	22645
843.343	22698
843.479	22706
843.616	22694
843.752	22584
843.889	22512
844.025	22462
844.162	22394
844.298	22462
844.435	22386
844.571	22489
844.708	22451
844.844	22679
844.98	22584
845.117	22626
845.253	22402
845.389	22272
845.525	22303
845.661	22280
845.798	22234
845.934	22337
846.07	22344
846.206	22261
846.342	22405
846.478	22268
846.614	22150
846.75	21945
846.886	21892
847.022	21994
847.158	21930
847.294	22040
847.429	22055
847.565	21846
847.701	22207
847.837	21675
847.972	21675
848.108	21812
848.244	21728
848.379	21576
848.515	21557
848.65	21458
848.786	21591
848.921	21549
849.057	21698
849.192	21701
849.328	21610
849.463	21515
849.598	21504
849.734	21378
849.869	21412
850.004	21272
850.14	21283
850.275	21363
850.41	21340
850.545	21268
850.68	21245
850.815	21374
850.95	21310
851.085	21443
851.22	21466
851.355	21412
851.49	21222
851.625	21138
851.76	21260
851.895	21116
852.03	21188
852.165	21321
852.299	21424
852.434	21344
852.569	21287
852.703	21287
852.838	21344
852.973	21420
853.107	21351
853.242	21207
853.376	21207
853.511	20998
853.645	21100
853.78	21252
853.914	21074
854.048	21062
854.183	21108
854.317	21085
854.451	21321
854.585	21119
854.72	21085
854.854	21222
854.988	20963
855.122	21093
855.256	20982
855.39	21123
855.524	21188
855.658	21184
855.792	21222
855.926	21211
856.06	21173
856.194	21195
856.327	21173
856.461	21051
856.595	21104
856.729	21051
856.862	21241
856.996	21081
857.13	21188
857.263	21226
857.397	21135
857.53	21055
857.664	21188
857.797	21272
857.931	21264
858.064	21108
858.197	21173
858.331	21055
858.464	21116
858.597	21058
858.731	21036
858.864	21043
858.997	21043
859.13	21157
859.263	21062
859.396	21214
859.529	21214
859.662	21020
859.795	21036
859.928	21165
860.061	21313
860.194	21325
860.327	21195
860.46	21085
860.592	21161
860.725	21310
860.858	21131
860.99	21100
861.123	21058
861.256	21047
861.388	21028
861.521	21842
861.653	20952
861.786	20902
861.918	20967
862.05	21032
862.183	21039
862.315	21150
862.447	21100
862.58	21070
862.712	20853
862.844	20853
862.976	20906
863.108	20792
863.24	21180
863.372	20792
863.504	20872
863.636	20853
863.768	20895
863.9	20842
864.032	20781
864.164	20739
864.296	20826
864.428	20941
864.559	20891
864.691	21005
864.823	20773
864.954	20788
865.086	20895
865.217	20819
865.349	20754
865.48	20735
865.612	20697
865.743	20906
865.875	20735
866.006	20765
866.137	20853
866.269	20823
866.4	20682
866.531	20686
866.662	20754
866.793	20773
866.924	20587
867.055	20743
867.186	20678
867.317	20609
867.448	20575
867.579	20697
867.71	20743
867.841	20674
867.972	20659
868.103	20629
868.233	20621
868.364	20587
868.495	20689
868.625	20902
868.756	20975
868.886	20933
869.017	20952
869.147	20982
869.278	21024
869.408	20960
869.539	20845
869.669	20948
869.799	20986
869.929	21028
870.06	20963
870.19	21066
870.32	21154
870.45	21397
870.58	21306
870.71	21397
870.84	21355
870.97	21241
871.1	21344
871.23	21530
871.36	21580
871.489	21279
871.619	21370
871.749	21603
871.879	21523
872.008	21652
872.138	21477
872.267	21431
872.397	21336
872.526	21214
872.656	21367
872.785	21405
872.915	21561
873.044	21633
873.173	21557
873.303	21488
873.432	21625
873.561	21591
873.69	21625
873.819	21675
873.948	21667
874.077	21599
874.206	21466
874.335	21466
874.464	21542
874.593	21816
874.722	21698
874.851	21736
874.979	21800
875.108	21747
875.237	21816
875.365	21690
875.494	21705
875.623	21747
875.751	21675
875.88	21816
876.008	21781
876.136	21987
876.265	22204
876.393	22356
876.521	22337
876.65	22207
876.778	22265
876.906	22116
877.034	22006
877.162	22204
877.29	22040
877.418	22086
877.546	22074
877.674	22185
877.802	22116
877.93	22173
878.058	22169
878.185	21964
878.313	22109
878.441	22105
878.568	21892
878.696	22051
878.824	22215
878.951	22230
879.079	22234
879.206	22375
879.333	22185
879.461	22097
879.588	22158
879.715	22390
879.842	22405
879.97	22253
880.097	21956
880.224	21937
880.351	22048
880.478	21941
880.605	21991
880.732	21865
880.859	22101
880.986	21789
881.112	21846
881.239	21812
881.366	21747
881.493	21679
881.619	21591
881.746	21553
881.872	21549
881.999	21420
882.125	21389
882.252	21614
882.378	21504
882.505	21667
882.631	21412
882.757	21233
882.883	21291
883.01	21192
883.136	21211
883.262	21150
883.388	21036
883.514	21249
883.64	21256
883.766	21093
883.892	21005
884.018	21047
884.143	21199
884.269	21184
884.395	20918
884.52	20838
884.646	20785
884.772	20777
884.897	20819
885.023	20857
885.148	20899
885.274	21039
885.399	20971
885.524	20762
885.65	20948
885.775	20929
885.9	20891
886.025	21074
886.15	20933
886.275	20781
886.4	20800
886.525	20708
886.65	20834
886.775	20609
886.9	20853
887.025	21104
887.149	20967
887.274	20716
887.399	20583
887.523	20693
887.648	20514
887.773	20590
887.897	20777
888.021	20644
888.146	20590
888.27	20705
888.395	20792
888.519	20594
888.643	20724
888.767	20629
888.891	20541
889.015	20541
889.139	20530
889.263	20305
889.387	20495
889.511	20530
889.635	20644
889.759	20438
889.883	20377
890.006	20495
890.13	20526
890.254	20271
890.377	20172
890.501	20244
890.624	20180
890.748	20240
890.871	20077
890.995	20035
891.118	19997
891.241	19997
891.364	20008
891.488	20130
891.611	19940
891.734	19902
891.857	20081
891.98	20020
892.103	20103
892.226	20043
892.349	19978
892.471	19803
892.594	19925
892.717	20039
892.839	19974
892.962	20046
893.085	20024
893.207	19871
893.33	19776
893.452	19849
893.575	19917
893.697	19860
893.819	20103
893.941	20081
894.064	19970
894.186	19818
894.308	19932
894.43	19944
894.552	20050
894.674	19947
894.796	19883
894.918	19917
895.04	19841
895.161	19940
895.283	19902
895.405	19791
895.526	19898
895.648	19868
895.769	19902
895.891	20016
896.012	19902
896.134	19928
896.255	19978
896.376	19921
896.498	19841
896.619	19967
896.74	19959
896.861	19986
896.982	20267
897.103	20355
897.224	20145
897.345	20138
897.466	20073
897.587	20206
897.708	20267
897.828	20073
897.949	20103
898.07	19898
898.19	20058
898.311	20199
898.431	20058
898.552	20153
898.672	20221
898.792	20183
898.913	20168
899.033	20149
899.153	19978
899.273	19890
899.393	19970
899.513	19925
899.633	19921
899.753	19928
899.873	19856
899.993	19898
900.113	19830
900.232	19887
900.352	19814
900.472	19734
900.591	19639
900.711	19647
900.83	19658
900.95	19814
901.069	19841
901.189	19578
901.308	19430
901.427	19240
901.546	19278
901.665	19297
901.784	19320
901.904	19145
902.023	19038
902.141	18935
902.26	18817
902.379	18878
902.498	18760
902.617	18734
902.735	18856
902.854	18779
902.973	18696
903.091	18475
903.21	18464
903.328	18448
903.446	18467
903.565	18281
903.683	18239
903.801	18228
903.919	18277
904.038	18285
904.156	18144
904.274	18079
904.392	17874
904.51	18022
904.627	17946
904.745	18144
904.863	17977
904.981	17863
905.098	17741
905.216	17756
905.334	17699
905.451	17843
905.569	17687
905.686	17691
905.803	17756
905.921	17429
906.038	17600
906.155	17471
906.272	17406
906.389	17444
906.506	17277
906.623	17242
906.74	17250
906.857	17227
906.974	17147
907.091	17269
907.208	17410
907.324	17239
907.441	17098
907.557	17003
907.674	17090
907.79	16938
907.907	16953
908.023	17045
908.139	16991
908.256	16968
908.372	16771
908.488	16809
908.604	16611
908.72	16615
908.836	16736
908.952	16660
909.068	16706
909.184	16778
909.3	16664
909.415	16584
909.531	16615
909.647	16360
909.762	16402
909.878	16390
909.993	16337
910.108	16265
910.224	16333
910.339	16451
910.454	16204
910.57	16162
910.685	16230
910.8	16531
910.915	16367
911.03	16177
911.145	16128
911.259	15960
911.374	15960
911.489	15960
911.604	15846
911.718	15759
911.833	15755
911.947	15736
912.062	15530
912.176	15644
912.291	15671
912.405	15686
912.519	15907
912.633	15937
912.748	15766
912.862	15717
912.976	15515
913.09	15424
913.204	15447
913.318	15625
913.431	15724
913.545	15610
913.659	15644
913.772	15435
913.886	15458
914	15279
914.113	15397
914.226	15428
914.34	15363
914.453	15241
914.566	15431
914.68	15233
914.793	15218
914.906	15047
915.019	14986
915.132	14857
915.245	14998
915.358	14998
915.47	14933
915.583	14899
915.696	14944
915.809	15051
915.921	15024
916.034	14880
916.146	14754
916.259	14838
916.371	14948
916.483	14826
916.595	14769
916.708	14826
916.82	14785
916.932	14792
917.044	14762
917.156	14731
917.268	14610
917.38	14564
917.491	14632
917.603	14670
917.715	14659
917.826	14648
917.938	14579
918.049	14396
918.161	14610
918.272	14777
918.384	14705
918.495	14461
918.606	14309
918.717	14393
918.828	14465
918.939	14332
919.05	14263
919.161	14389
919.272	14065
919.383	14206
919.494	14328
919.604	14610
919.715	14431
919.826	14183
919.936	14256
920.047	14408
920.157	14370
920.267	14511
920.378	14400
920.488	14294
920.598	14552
920.708	14674
920.818	14476
920.928	14389
921.038	14629
921.148	14545
921.258	14393
921.368	14176
921.477	14111
921.587	14092
921.697	13928
921.806	14065
921.916	13978
922.025	13734
922.134	13723
922.244	13620
922.353	13856
922.462	13662
922.571	13651
922.68	13369
922.789	13407
922.898	13388
923.007	13384
923.116	13415
923.224	13400
923.333	13468
923.442	13179
923.55	13194
923.659	13179
923.767	13339
923.876	13236
923.984	13187
924.092	13122
924.201	13179
924.309	13114
924.417	13114
924.525	13061
924.633	13137
924.741	13845
924.849	12882
924.956	12993
925.064	12844
925.172	12787
925.279	12772
925.387	12859
925.494	12890
925.602	12973
925.709	12871
925.816	12776
925.924	12783
926.031	12890
926.138	12726
926.245	12810
926.352	12665
926.459	12749
926.566	12837
926.673	12658
926.779	12578
926.886	12559
926.993	12407
927.099	12517
927.206	12338
927.312	12380
927.419	12365
927.525	12380
927.631	12376
927.737	12266
927.843	12239
927.95	12068
928.056	12247
928.162	12182
928.267	12194
928.373	12894
928.479	12270
928.585	11999
928.69	12163
928.796	12159
928.901	12136
929.007	11889
929.112	12060
929.218	12083
929.323	11950
929.428	12049
929.533	12060
929.638	11790
929.743	11893
929.848	11920
929.953	11859
930.058	11847
930.163	11649
930.267	11596
930.372	11767
930.477	11589
930.581	11851
930.685	11661
930.79	11638
930.894	11539
930.998	11444
931.103	11577
931.207	11273
931.311	11151
931.415	11109
931.519	10908
931.623	10892
