Data from test_V78500241_1041.txt Node
Date: Fri Mar 25 15:49:00 CST 2022
User: usil
Spectrometer: V785-0024
Trigger mode: 0
Integration Time (sec): 4.000000E-1
Scans to average: 1
Nonlinearity correction enabled: false
Boxcar width: 0
Storing dark spectrum: false
XAxis mode: Wavelengths
Number of Pixels in Spectrum: 1024
>>>>>Begin Spectral Data<<<<<
801.071	27907
801.214	27854
801.356	27416
801.499	27427
801.641	27416
801.783	27511
801.926	27401
802.068	27336
802.211	27264
802.353	27150
802.496	27066
802.638	26864
802.78	27028
802.923	26952
803.065	26914
803.208	26868
803.35	26891
803.492	27039
803.635	27112
803.777	27017
803.919	27131
804.061	27477
804.204	27207
804.346	27138
804.488	27135
804.63	27165
804.773	27085
804.915	27195
805.057	27302
805.199	27074
805.341	27302
805.483	27306
805.626	27279
805.768	27291
805.91	27268
806.052	27355
806.194	27325
806.336	27515
806.478	27393
806.62	27439
806.762	27420
806.904	27549
807.046	27827
807.188	27682
807.33	27679
807.472	27835
807.614	27713
807.756	27705
807.898	27629
808.04	27717
808.182	27405
808.324	27530
808.465	27694
808.607	27705
808.749	28048
808.891	28017
809.033	28257
809.174	28036
809.316	27838
809.458	28055
809.6	27991
809.741	28017
809.883	28116
810.025	28284
810.166	28322
810.308	28192
810.45	28238
810.591	28112
810.733	27899
810.875	27972
811.016	27907
811.158	27884
811.299	28082
811.441	28192
811.582	28173
811.724	28070
811.865	27945
812.007	27968
812.148	27895
812.29	27991
812.431	28287
812.573	28265
812.714	28344
812.855	28481
812.997	28626
813.138	28729
813.279	28523
813.421	28622
813.562	28398
813.703	28470
813.845	28131
813.986	27949
814.127	27831
814.268	27644
814.41	27610
814.551	27553
814.692	27713
814.833	27637
814.974	27488
815.115	27766
815.256	27561
815.397	27462
815.539	27526
815.68	27450
815.821	27348
815.962	27302
816.103	27363
816.244	27447
816.385	27287
816.526	27279
816.666	27184
816.807	27039
816.948	27085
817.089	27070
817.23	27077
817.371	27005
817.512	27070
817.653	27058
817.793	26849
817.934	26967
818.075	27058
818.216	26994
818.356	27020
818.497	26727
818.638	26701
818.778	26693
818.919	26807
819.06	26769
819.2	26872
819.341	26998
819.481	26838
819.622	27214
819.762	27291
819.903	27283
820.043	27146
820.184	26853
820.324	27180
820.465	27028
820.605	27055
820.746	27119
820.886	26990
821.026	27036
821.167	27096
821.307	27161
821.447	26963
821.588	26975
821.728	26750
821.868	26640
822.008	26571
822.149	26492
822.289	26602
822.429	26195
822.569	26122
822.709	26122
822.849	25875
822.99	26069
823.13	25955
823.27	25879
823.41	25826
823.55	25715
823.69	25845
823.83	25841
823.97	25772
824.11	25510
824.25	25559
824.389	25556
824.529	25723
824.669	25700
824.809	25776
824.949	25677
825.089	25658
825.228	25708
825.368	25483
825.508	25521
825.648	25499
825.787	25479
825.927	25419
826.067	25457
826.206	25411
826.346	25499
826.485	25533
826.625	25415
826.765	25601
826.904	25453
827.044	25331
827.183	25263
827.323	25217
827.462	25259
827.601	25278
827.741	25221
827.88	25126
828.02	25088
828.159	25236
828.298	25187
828.437	25236
828.577	25126
828.716	25213
828.855	25156
828.994	24837
829.134	24897
829.273	24890
829.412	24909
829.551	24741
829.69	24935
829.829	24867
829.968	24985
830.107	24932
830.246	24875
830.385	24833
830.524	24798
830.663	24711
830.802	24654
830.941	24464
831.08	24376
831.219	24627
831.357	24669
831.496	24684
831.635	24452
831.774	24456
831.913	24365
832.051	24334
832.19	24186
832.329	24292
832.467	24213
832.606	24178
832.744	24083
832.883	24155
833.022	24064
833.16	24258
833.299	24220
833.437	24167
833.576	24216
833.714	24174
833.852	24281
833.991	24361
834.129	24300
834.267	24308
834.406	24243
834.544	24304
834.682	24254
834.821	24136
834.959	24410
835.097	24110
835.235	24213
835.373	24186
835.511	24148
835.65	24068
835.788	24140
835.926	23954
836.064	23874
836.202	23840
836.34	24068
836.478	24171
836.615	24041
836.753	24030
836.891	24209
837.029	23988
837.167	23935
837.305	24026
837.443	23840
837.58	23920
837.718	23965
837.856	23939
837.993	23965
838.131	23817
838.269	23760
838.406	23756
838.544	23596
838.681	23391
838.819	23535
838.956	23474
839.094	23322
839.231	23493
839.369	23528
839.506	23604
839.643	23543
839.781	23280
839.918	23440
840.055	23341
840.193	23311
840.33	23178
840.467	23360
840.604	23387
840.742	23562
840.879	23071
841.016	23128
841.153	23254
841.29	23402
841.427	23178
841.564	23341
841.701	23288
841.838	23261
841.975	23067
842.112	23174
842.249	23014
842.385	22991
842.522	23254
842.659	23124
842.796	23064
842.933	22984
843.069	22968
843.206	22847
843.343	23067
843.479	23056
843.616	22999
843.752	22881
843.889	22748
844.025	22927
844.162	22736
844.298	22862
844.435	22828
844.571	22736
844.708	22828
844.844	22999
844.98	22938
845.117	22946
845.253	22691
845.389	22729
845.525	22763
845.661	22683
845.798	22546
845.934	22660
846.07	22531
846.206	22565
846.342	22672
846.478	22523
846.614	22333
846.75	22272
846.886	22306
847.022	22459
847.158	22287
847.294	22196
847.429	22310
847.565	22185
847.701	22462
847.837	21922
847.972	21968
848.108	22044
848.244	22074
848.379	21873
848.515	21884
848.65	21987
848.786	21930
848.921	21899
849.057	22093
849.192	21926
849.328	21915
849.463	21941
849.598	21804
849.734	21804
849.869	21827
850.004	21660
850.14	21644
850.275	21656
850.41	21682
850.545	21762
850.68	21603
850.815	21724
850.95	21633
851.085	21800
851.22	21701
851.355	21644
851.49	21751
851.625	21614
851.76	21564
851.895	21408
852.03	21500
852.165	21663
852.299	21682
852.434	21618
852.569	21633
852.703	21530
852.838	21774
852.973	21854
853.107	21774
853.242	21648
853.376	21568
853.511	21389
853.645	21340
853.78	21663
853.914	21549
854.048	21435
854.183	21511
854.317	21389
854.451	21720
854.585	21450
854.72	21412
854.854	21587
854.988	21386
855.122	21507
855.256	21291
855.39	21507
855.524	21564
855.658	21431
855.792	21511
855.926	21564
856.06	21614
856.194	21618
856.327	21485
856.461	21363
856.595	21363
856.729	21538
856.862	21549
856.996	21557
857.13	21462
857.263	21618
857.397	21542
857.53	21374
857.664	21408
857.797	21549
857.931	21770
858.064	21534
858.197	21564
858.331	21321
858.464	21420
858.597	21348
858.731	21363
858.864	21416
858.997	21447
859.13	21583
859.263	21530
859.396	21587
859.529	21378
859.662	21416
859.795	21435
859.928	21473
860.061	21671
860.194	21576
860.327	21526
860.46	21545
860.592	21488
860.725	21591
860.858	21580
860.99	21504
861.123	21462
861.256	21302
861.388	21568
861.521	22234
861.653	21332
861.786	21370
861.918	21272
862.05	21469
862.183	21348
862.315	21405
862.447	21450
862.58	21389
862.712	21150
862.844	21241
862.976	21272
863.108	21294
863.24	21694
863.372	20990
863.504	21146
863.636	21058
863.768	21340
863.9	21150
864.032	21199
864.164	21135
864.296	21104
864.428	21313
864.559	21275
864.691	21252
864.823	21199
864.954	21161
865.086	21096
865.217	21108
865.349	21020
865.48	21089
865.612	21066
865.743	21157
865.875	21066
866.006	21001
866.137	21024
866.269	21062
866.4	21093
866.531	20956
866.662	21013
866.793	21066
866.924	20975
867.055	21127
867.186	21039
867.317	21001
867.448	20876
867.579	20941
867.71	21032
867.841	20826
867.972	20960
868.103	20956
868.233	20948
868.364	21138
868.495	21123
868.625	21279
868.756	21226
868.886	21203
869.017	21283
869.147	21454
869.278	21294
869.408	21256
869.539	21161
869.669	21397
869.799	21294
869.929	21424
870.06	21332
870.19	21728
870.32	21519
870.45	21701
870.58	21481
870.71	21797
870.84	21762
870.97	21644
871.1	21625
871.23	21804
871.36	21873
871.489	21762
871.619	21812
871.749	21903
871.879	21819
872.008	21945
872.138	21888
872.267	21861
872.397	21808
872.526	21652
872.656	21610
872.785	21614
872.915	21873
873.044	21895
873.173	21827
873.303	21979
873.432	21857
873.561	21994
873.69	21759
873.819	21880
873.948	21991
874.077	21926
874.206	21930
874.335	21823
874.464	22010
874.593	22051
874.722	22036
874.851	22055
874.979	22101
875.108	22196
875.237	22158
875.365	21987
875.494	21911
875.623	22200
875.751	22166
875.88	22090
876.008	22257
876.136	22219
876.265	22500
876.393	22535
876.521	22599
876.65	22584
876.778	22519
876.906	22344
877.034	22398
877.162	22356
877.29	22363
877.418	22512
877.546	22474
877.674	22337
877.802	22341
877.93	22462
878.058	22344
878.185	22356
878.313	22432
878.441	22512
878.568	22249
878.696	22303
878.824	22516
878.951	22398
879.079	22706
879.206	22801
879.333	22687
879.461	22485
879.588	22512
879.715	22573
879.842	22656
879.97	22485
880.097	22367
880.224	22158
880.351	22367
880.478	22215
880.605	22128
880.732	22207
880.859	22504
880.986	22322
881.112	22204
881.239	22143
881.366	21827
881.493	21892
881.619	21888
881.746	21956
881.872	21888
881.999	21857
882.125	21667
882.252	21899
882.378	21884
882.505	21945
882.631	21709
882.757	21564
882.883	21481
883.01	21660
883.136	21507
883.262	21435
883.388	21397
883.514	21530
883.64	21591
883.766	21488
883.892	21325
884.018	21382
884.143	21492
884.269	21530
884.395	21393
884.52	21199
884.646	21294
884.772	21074
884.897	20998
885.023	21203
885.148	21222
885.274	21298
885.399	21302
885.524	21119
885.65	21241
885.775	21256
885.9	21184
886.025	21283
886.15	21192
886.275	21230
886.4	21131
886.525	21161
886.65	21028
886.775	21138
886.9	21237
887.025	21435
887.149	21036
887.274	20971
887.399	20941
887.523	20895
887.648	20845
887.773	20849
887.897	20998
888.021	20956
888.146	20880
888.27	20971
888.395	21108
888.519	20902
888.643	21020
888.767	20899
888.891	20902
889.015	20769
889.139	20777
889.263	20785
889.387	20849
889.511	20823
889.635	20864
889.759	20754
889.883	20655
890.006	20727
890.13	20902
890.254	20689
890.377	20587
890.501	20526
890.624	20393
890.748	20549
890.871	20446
890.995	20301
891.118	20309
891.241	20294
891.364	20172
891.488	20393
891.611	20267
891.734	20259
891.857	20385
891.98	20263
892.103	20298
892.226	20431
892.349	20092
892.471	20039
892.594	20313
892.717	20374
892.839	20183
892.962	20305
893.085	20328
893.207	20187
893.33	20012
893.452	20054
893.575	20271
893.697	20229
893.819	20313
893.941	20431
894.064	20313
894.186	20142
894.308	20153
894.43	20324
894.552	20278
894.674	20381
894.796	20058
894.918	20145
895.04	20084
895.161	20324
895.283	20233
895.405	20149
895.526	20191
895.648	20240
895.769	20168
895.891	20286
896.012	20218
896.134	20172
896.255	20096
896.376	20168
896.498	20126
896.619	20271
896.74	20157
896.861	20218
896.982	20473
897.103	20720
897.224	20339
897.345	20419
897.466	20419
897.587	20461
897.708	20602
897.828	20476
897.949	20374
898.07	20278
898.19	20412
898.311	20499
898.431	20427
898.552	20396
898.672	20530
898.792	20469
898.913	20461
899.033	20237
899.153	20145
899.273	20145
899.393	20275
899.513	20164
899.633	20225
899.753	20157
899.873	20199
899.993	20210
900.113	20077
900.232	20115
900.352	20180
900.472	20073
900.591	19883
900.711	20035
900.83	19864
900.95	20050
901.069	20001
901.189	19898
901.308	19559
901.427	19559
901.546	19582
901.665	19605
901.784	19556
901.904	19381
902.023	19202
902.141	19118
902.26	19004
902.379	19133
902.498	19107
902.617	19019
902.735	19137
902.854	19031
902.973	19012
903.091	18768
903.21	18768
903.328	18722
903.446	18650
903.565	18448
903.683	18532
903.801	18315
903.919	18467
904.038	18422
904.156	18308
904.274	18426
904.392	18232
904.51	18270
904.627	18281
904.745	18311
904.863	18357
904.981	18121
905.098	17885
905.216	17977
905.334	18022
905.451	18045
905.569	17836
905.686	17999
905.803	18068
905.921	17767
906.038	17920
906.155	17817
906.272	17577
906.389	17798
906.506	17497
906.623	17501
906.74	17516
906.857	17429
906.974	17501
907.091	17585
907.208	17611
907.324	17558
907.441	17318
907.557	17315
907.674	17239
907.79	17200
907.907	17102
908.023	17200
908.139	17102
908.256	17166
908.372	17174
908.488	16991
908.604	16957
908.72	16949
908.836	16984
908.952	16938
909.068	16953
909.184	17121
909.3	16938
909.415	16866
909.531	16934
909.647	16687
909.762	16641
909.878	16561
909.993	16721
910.108	16603
910.224	16649
910.339	16523
910.454	16516
910.57	16432
910.685	16360
910.8	16725
910.915	16580
911.03	16436
911.145	16276
911.259	16158
911.374	16295
911.489	16185
911.604	16150
911.718	15983
911.833	15907
911.947	15937
912.062	15823
912.176	16002
912.291	15987
912.405	16074
912.519	16204
912.633	16150
912.748	16029
912.862	15991
912.976	15781
913.09	15751
913.204	15778
913.318	15709
913.431	15831
913.545	15774
913.659	15755
913.772	15717
913.886	15576
914	15564
914.113	15637
914.226	15694
914.34	15606
914.453	15469
914.566	15576
914.68	15450
914.793	15523
914.906	15283
915.019	15268
915.132	15093
915.245	15131
915.358	15119
915.47	15264
915.583	15123
915.696	15176
915.809	15252
915.921	15363
916.034	15043
916.146	15097
916.259	15142
916.371	15180
916.483	15077
916.595	15043
916.708	15192
916.82	15123
916.932	15036
917.044	15005
917.156	15020
917.268	14899
917.38	14906
917.491	14876
917.603	14906
917.715	15028
917.826	14853
917.938	14845
918.049	14697
918.161	14864
918.272	14952
918.384	14906
918.495	14849
918.606	14613
918.717	14625
918.828	14701
918.939	14579
919.05	14583
919.161	14682
919.272	14431
919.383	14503
919.494	14629
919.604	14872
919.715	14560
919.826	14495
919.936	14480
920.047	14693
920.157	14610
920.267	14792
920.378	14564
920.488	14533
920.598	14834
920.708	14899
920.818	14689
920.928	14720
921.038	14868
921.148	14804
921.258	14640
921.368	14415
921.477	14385
921.587	14305
921.697	14084
921.806	14358
921.916	14252
922.025	14065
922.134	13925
922.244	14031
922.353	13925
922.462	13837
922.571	13761
922.68	13677
922.789	13540
922.898	13590
923.007	13480
923.116	13643
923.224	13567
923.333	13616
923.442	13304
923.55	13365
923.659	13487
923.767	13457
923.876	13438
923.984	13487
924.092	13362
924.201	13426
924.309	13373
924.417	13369
924.525	13358
924.633	13251
924.741	13993
924.849	13114
924.956	13244
925.064	13168
925.172	12939
925.279	13050
925.387	13031
925.494	12981
925.602	13183
925.709	13065
925.816	12901
925.924	12985
926.031	13080
926.138	12939
926.245	13042
926.352	12916
926.459	12973
926.566	13027
926.673	12993
926.779	12768
926.886	12776
926.993	12612
927.099	12696
927.206	12544
927.312	12631
927.419	12673
927.525	12681
927.631	12578
927.737	12433
927.843	12471
927.95	12300
928.056	12342
928.162	12384
928.267	12513
928.373	12985
928.479	12483
928.585	12247
928.69	12365
928.796	12437
928.901	12266
929.007	12163
929.112	12292
929.218	12338
929.323	12209
929.428	12155
929.533	12273
929.638	12098
929.743	12125
929.848	12117
929.953	12159
930.058	11977
930.163	11851
930.267	11832
930.372	12019
930.477	11813
930.581	11980
930.685	11885
930.79	11714
930.894	11805
930.998	11600
931.103	11809
931.207	11467
931.311	11406
931.415	11292
931.519	11113
931.623	10991
