Data from test_V78500241_3357.txt Node
Date: Fri Mar 25 16:05:03 CST 2022
User: usil
Spectrometer: V785-0024
Trigger mode: 0
Integration Time (sec): 4.000000E-1
Scans to average: 1
Nonlinearity correction enabled: false
Boxcar width: 0
Storing dark spectrum: false
XAxis mode: Wavelengths
Number of Pixels in Spectrum: 1024
>>>>>Begin Spectral Data<<<<<
801.071	28938
801.214	29025
801.356	28801
801.499	28672
801.641	28645
801.783	28641
801.926	28641
802.068	28679
802.211	28618
802.353	28592
802.496	28497
802.638	28417
802.78	28386
802.923	28223
803.065	28169
803.208	28280
803.35	28314
803.492	28573
803.635	28736
803.777	28424
803.919	28721
804.061	28965
804.204	28634
804.346	28577
804.488	28546
804.63	28557
804.773	28538
804.915	28683
805.057	28824
805.199	28683
805.341	28713
805.483	28782
805.626	28771
805.768	28622
805.91	28820
806.052	28835
806.194	28725
806.336	28877
806.478	28774
806.62	28801
806.762	28965
806.904	29124
807.046	29315
807.188	29223
807.33	29223
807.472	29280
807.614	29166
807.756	29170
807.898	29113
808.04	29140
808.182	28968
808.324	29079
808.465	29155
808.607	29341
808.749	29436
808.891	29558
809.033	29619
809.174	29573
809.316	29440
809.458	29497
809.6	29512
809.741	29577
809.883	29718
810.025	29786
810.166	29870
810.308	29832
810.45	29722
810.591	29760
810.733	29589
810.875	29505
811.016	29577
811.158	29341
811.299	29691
811.441	29695
811.582	29551
811.724	29668
811.865	29497
812.007	29452
812.148	29627
812.29	29707
812.431	29722
812.573	29855
812.714	29931
812.855	30057
812.997	30197
813.138	30239
813.279	30205
813.421	30026
813.562	30018
813.703	29832
813.845	29745
813.986	29558
814.127	29387
814.268	29265
814.41	29258
814.551	29353
814.692	29280
814.833	29170
814.974	29227
815.115	29147
815.256	28987
815.397	29071
815.539	29124
815.68	29037
815.821	28968
815.962	29113
816.103	29109
816.244	29098
816.385	28930
816.526	28847
816.666	28599
816.807	28607
816.948	28519
817.089	28748
817.23	28531
817.371	28557
817.512	28584
817.653	28546
817.793	28493
817.934	28466
818.075	28580
818.216	28500
818.356	28554
818.497	28432
818.638	28318
818.778	28379
818.919	28322
819.06	28379
819.2	28481
819.341	28656
819.481	28538
819.622	28862
819.762	29071
819.903	28839
820.043	28778
820.184	28691
820.324	28782
820.465	28752
820.605	28900
820.746	28618
820.886	28698
821.026	28603
821.167	28668
821.307	28713
821.447	28516
821.588	28573
821.728	28443
821.868	28246
822.008	28162
822.149	28097
822.289	28185
822.429	27789
822.569	27743
822.709	27774
822.849	27633
822.99	27469
823.13	27488
823.27	27549
823.41	27473
823.55	27283
823.69	27523
823.83	27302
823.97	27245
824.11	27272
824.25	27329
824.389	27161
824.529	27374
824.669	27287
824.809	27363
824.949	27310
825.089	27367
825.228	27382
825.368	27203
825.508	27085
825.648	27127
825.787	27222
825.927	27256
826.067	27081
826.206	27104
826.346	27268
826.485	27195
826.625	27116
826.765	27302
826.904	27332
827.044	26902
827.183	26990
827.323	26918
827.462	26754
827.601	26773
827.741	26849
827.88	26815
828.02	26788
828.159	26781
828.298	26864
828.437	26807
828.577	26659
828.716	26777
828.855	26754
828.994	26583
829.134	26404
829.273	26686
829.412	26552
829.551	26590
829.69	26469
829.829	26594
829.968	26686
830.107	26689
830.246	26659
830.385	26469
830.524	26492
830.663	26495
830.802	26252
830.941	26164
831.08	26126
831.219	26199
831.357	26263
831.496	26431
831.635	26187
831.774	26058
831.913	26050
832.051	25993
832.19	25898
832.329	25932
832.467	25833
832.606	25776
832.744	25719
832.883	25795
833.022	25662
833.16	25849
833.299	25852
833.437	25852
833.576	25898
833.714	25993
833.852	25906
833.991	25837
834.129	25989
834.267	25974
834.406	25944
834.544	25932
834.682	25928
834.821	25902
834.959	26119
835.097	25837
835.235	25966
835.373	25883
835.511	25841
835.65	25662
835.788	25780
835.926	25681
836.064	25521
836.202	25559
836.34	25708
836.478	25818
836.615	25814
836.753	25784
836.891	25765
837.029	25776
837.167	25681
837.305	25685
837.443	25430
837.58	25529
837.718	25620
837.856	25563
837.993	25388
838.131	25483
838.269	25293
838.406	25362
838.544	25350
838.681	25179
838.819	25126
838.956	25046
839.094	24977
839.231	25008
839.369	25099
839.506	25491
839.643	25270
839.781	24989
839.918	24871
840.055	25084
840.193	25050
840.33	24806
840.467	24954
840.604	24844
840.742	25076
840.879	24817
841.016	24844
841.153	24764
841.29	24973
841.427	25004
841.564	24985
841.701	24928
841.838	24776
841.975	24734
842.112	24795
842.249	24802
842.385	24684
842.522	24905
842.659	24627
842.796	24612
842.933	24692
843.069	24601
843.206	24722
843.343	24719
843.479	24639
843.616	24692
843.752	24464
843.889	24414
844.025	24525
844.162	24426
844.298	24483
844.435	24391
844.571	24433
844.708	24388
844.844	24566
844.98	24517
845.117	24441
845.253	24395
845.389	24277
845.525	24327
845.661	24330
845.798	24091
845.934	24243
846.07	24144
846.206	24076
846.342	24220
846.478	24171
846.614	23988
846.75	23802
846.886	23969
847.022	23946
847.158	23863
847.294	23817
847.429	23992
847.565	23783
847.701	24030
847.837	23642
847.972	23619
848.108	23775
848.244	23741
848.379	23516
848.515	23535
848.65	23547
848.786	23444
848.921	23535
849.057	23558
849.192	23649
849.328	23429
849.463	23604
849.598	23539
849.734	23353
849.869	23429
850.004	23349
850.14	23265
850.275	23159
850.41	23155
850.545	23155
850.68	23204
850.815	23307
850.95	23193
851.085	23372
851.22	23387
851.355	23322
851.49	23258
851.625	23280
851.76	23250
851.895	23235
852.03	23048
852.165	23299
852.299	23242
852.434	23254
852.569	23178
852.703	23330
852.838	23318
852.973	23318
853.107	23322
853.242	23159
853.376	23231
853.511	23018
853.645	23003
853.78	23227
853.914	23022
854.048	23033
854.183	23102
854.317	23140
854.451	23189
854.585	22965
854.72	23121
854.854	23178
854.988	23060
855.122	23052
855.256	22965
855.39	22972
855.524	23079
855.658	23117
855.792	23090
855.926	23109
856.06	23109
856.194	23025
856.327	22968
856.461	23003
856.595	22949
856.729	23010
856.862	23223
856.996	23067
857.13	23083
857.263	23174
857.397	23155
857.53	23075
857.664	22957
857.797	23174
857.931	23216
858.064	23102
858.197	23147
858.331	23018
858.464	22877
858.597	22889
858.731	23010
858.864	23022
858.997	22923
859.13	23079
859.263	22987
859.396	23162
859.529	22873
859.662	23044
859.795	23041
859.928	23064
860.061	23216
860.194	23356
860.327	23090
860.46	23025
860.592	23151
860.725	23288
860.858	23170
860.99	23037
861.123	22877
861.256	23056
861.388	23056
861.521	23684
861.653	22869
861.786	22911
861.918	22740
862.05	22949
862.183	22919
862.315	23037
862.447	23044
862.58	22927
862.712	22767
862.844	22759
862.976	22778
863.108	22801
863.24	23159
863.372	22630
863.504	22664
863.636	22763
863.768	22797
863.9	22717
864.032	22637
864.164	22694
864.296	22626
864.428	23060
864.559	22713
864.691	22790
864.823	22748
864.954	22698
865.086	22733
865.217	22626
865.349	22618
865.48	22691
865.612	22641
865.743	22736
865.875	22691
866.006	22561
866.137	22634
866.269	22474
866.4	22649
866.531	22637
866.662	22424
866.793	22478
866.924	22653
867.055	22424
867.186	22668
867.317	22497
867.448	22531
867.579	22474
867.71	22523
867.841	22557
867.972	22565
868.103	22500
868.233	22554
868.364	22527
868.495	22660
868.625	22805
868.756	22980
868.886	22725
869.017	22748
869.147	22908
869.278	22839
869.408	22679
869.539	22812
869.669	22824
869.799	22858
869.929	22987
870.06	22858
870.19	23143
870.32	23113
870.45	23113
870.58	23094
870.71	23223
870.84	23273
870.97	23231
871.1	23337
871.23	23433
871.36	23337
871.489	23258
871.619	23337
871.749	23368
871.879	23376
872.008	23478
872.138	23448
872.267	23410
872.397	23223
872.526	23098
872.656	23166
872.785	23277
872.915	23440
873.044	23429
873.173	23539
873.303	23486
873.432	23512
873.561	23554
873.69	23436
873.819	23326
873.948	23444
874.077	23353
874.206	23410
874.335	23436
874.464	23528
874.593	23703
874.722	23653
874.851	23718
874.979	23672
875.108	23653
875.237	23691
875.365	23474
875.494	23638
875.623	23661
875.751	23653
875.88	23661
876.008	23714
876.136	23729
876.265	23969
876.393	24102
876.521	24079
876.65	24102
876.778	24045
876.906	23813
877.034	23908
877.162	23908
877.29	23851
877.418	23920
877.546	24022
877.674	23984
877.802	23935
877.93	23954
878.058	23756
878.185	23760
878.313	23904
878.441	23847
878.568	23836
878.696	23882
878.824	24015
878.951	23954
879.079	24102
879.206	24064
879.333	24129
879.461	23923
879.588	24140
879.715	24159
879.842	24300
879.97	24015
880.097	23760
880.224	23718
880.351	23745
880.478	23859
880.605	23794
880.732	23870
880.859	23870
880.986	23885
881.112	23828
881.239	23745
881.366	23585
881.493	23585
881.619	23299
881.746	23387
881.872	23326
881.999	23356
882.125	23261
882.252	23296
882.378	23330
882.505	23402
882.631	23044
882.757	23140
882.883	23014
883.01	22942
883.136	22949
883.262	22858
883.388	22923
883.514	22991
883.64	22923
883.766	22847
883.892	22828
884.018	22786
884.143	22820
884.269	22915
884.395	22831
884.52	22565
884.646	22649
884.772	22618
884.897	22580
885.023	22580
885.148	22672
885.274	22748
885.399	22706
885.524	22656
885.65	22611
885.775	22645
885.9	22588
886.025	22713
886.15	22683
886.275	22618
886.4	22565
886.525	22660
886.65	22500
886.775	22645
886.9	22767
887.025	22717
887.149	22504
887.274	22382
887.399	22394
887.523	22306
887.648	22500
887.773	22310
887.897	22417
888.021	22466
888.146	22360
888.27	22344
888.395	22398
888.519	22379
888.643	22512
888.767	22322
888.891	22234
889.015	22200
889.139	22188
889.263	22162
889.387	22242
889.511	22424
889.635	22287
889.759	22090
889.883	22211
890.006	22147
890.13	22192
890.254	22044
890.377	22040
890.501	21876
890.624	21945
890.748	21850
890.871	21823
890.995	21713
891.118	21709
891.241	21736
891.364	21747
891.488	21892
891.611	21625
891.734	21682
891.857	21751
891.98	21720
892.103	21774
892.226	21823
892.349	21534
892.471	21519
892.594	21682
892.717	21625
892.839	21439
892.962	21568
893.085	21739
893.207	21564
893.33	21393
893.452	21469
893.575	21599
893.697	21519
893.819	21660
893.941	21690
894.064	21656
894.186	21542
894.308	21492
894.43	21641
894.552	21625
894.674	21637
894.796	21386
894.918	21511
895.04	21530
895.161	21637
895.283	21515
895.405	21488
895.526	21507
895.648	21549
895.769	21583
895.891	21644
896.012	21488
896.134	21637
896.255	21485
896.376	21542
896.498	21530
896.619	21466
896.74	21614
896.861	21545
896.982	21911
897.103	21861
897.224	21816
897.345	21629
897.466	21774
897.587	21717
897.708	21770
897.828	21835
897.949	21660
898.07	21576
898.19	21694
898.311	21857
898.431	21671
898.552	21804
898.672	21720
898.792	21663
898.913	21724
899.033	21595
899.153	21591
899.273	21313
899.393	21530
899.513	21294
899.633	21431
899.753	21462
899.873	21424
899.993	21412
900.113	21473
900.232	21321
900.352	21313
900.472	21302
900.591	21108
900.711	21348
900.83	21245
900.95	21260
901.069	21260
901.189	21013
901.308	20933
901.427	20716
901.546	20750
901.665	20823
901.784	20804
901.904	20530
902.023	20434
902.141	20298
902.26	20263
902.379	20366
902.498	20206
902.617	20237
902.735	20374
902.854	20237
902.973	20122
903.091	20027
903.21	19940
903.328	19845
903.446	19845
903.565	19734
903.683	19708
903.801	19647
903.919	19731
904.038	19582
904.156	19403
904.274	19559
904.392	19483
904.51	19514
904.627	19457
904.745	19476
904.863	19533
904.981	19198
905.098	19118
905.216	19122
905.334	19168
905.451	19179
905.569	19065
905.686	19244
905.803	19091
905.921	18973
906.038	18951
906.155	19023
906.272	18810
906.389	18939
906.506	18734
906.623	18646
906.74	18574
906.857	18475
906.974	18570
907.091	18696
907.208	18886
907.324	18753
907.441	18654
907.557	18308
907.674	18395
907.79	18365
907.907	18323
908.023	18456
908.139	18380
908.256	18327
908.372	18296
908.488	18311
908.604	18121
908.72	18072
908.836	18064
908.952	18034
909.068	18121
909.184	18235
909.3	18019
909.415	18159
909.531	18064
909.647	17882
909.762	17828
909.878	17843
909.993	17767
910.108	17672
910.224	17646
910.339	17718
910.454	17520
910.57	17524
910.685	17547
910.8	17771
910.915	17699
911.03	17505
911.145	17421
911.259	17318
911.374	17368
911.489	17280
911.604	17265
911.718	17174
911.833	17117
911.947	17064
912.062	17003
912.176	17105
912.291	17010
912.405	17025
912.519	17235
912.633	17197
912.748	17025
912.862	17029
912.976	16923
913.09	16778
913.204	16968
913.318	16820
913.431	16965
913.545	17056
913.659	16991
913.772	16816
913.886	16763
914	16687
914.113	16736
914.226	16713
914.34	16733
914.453	16443
914.566	16733
914.68	16466
914.793	16440
914.906	16284
915.019	16306
915.132	16272
915.245	16238
915.358	16185
915.47	16215
915.583	16185
915.696	16246
915.809	16371
915.921	16325
916.034	16242
916.146	16093
916.259	16116
916.371	16192
916.483	16116
916.595	16097
916.708	16071
916.82	16086
916.932	15937
917.044	15991
917.156	15926
917.268	15804
917.38	15857
917.491	15865
917.603	15747
917.715	15895
917.826	15895
917.938	15850
918.049	15724
918.161	15759
918.272	15873
918.384	15865
918.495	15778
918.606	15663
918.717	15477
918.828	15549
918.939	15580
919.05	15561
919.161	15557
919.272	15401
919.383	15401
919.494	15603
919.604	15682
919.715	15603
919.826	15412
919.936	15572
920.047	15549
920.157	15603
920.267	15724
920.378	15603
920.488	15477
920.598	15641
920.708	15857
920.818	15625
920.928	15572
921.038	15827
921.148	15682
921.258	15485
921.368	15397
921.477	15393
921.587	15233
921.697	15123
921.806	15272
921.916	15150
922.025	14918
922.134	14819
922.244	14819
922.353	14937
922.462	14811
922.571	14636
922.68	14568
922.789	14495
922.898	14552
923.007	14465
923.116	14556
923.224	14476
923.333	14431
923.442	14393
923.55	14278
923.659	14408
923.767	14328
923.876	14267
923.984	14339
924.092	14233
924.201	14218
924.309	14168
924.417	14176
924.525	14214
924.633	14054
924.741	15112
924.849	13879
924.956	14050
925.064	13894
925.172	13830
925.279	13864
925.387	13818
925.494	13784
925.602	13978
925.709	13902
925.816	13788
925.924	13841
926.031	13856
926.138	13795
926.245	13871
926.352	13662
926.459	13811
926.566	13841
926.673	13658
926.779	13537
926.886	13616
926.993	13422
927.099	13396
927.206	13308
927.312	13221
927.419	13377
927.525	13415
927.631	13445
927.737	13259
927.843	13213
927.95	13118
928.056	13240
928.162	13198
928.267	13278
928.373	13757
928.479	13259
928.585	13050
928.69	13057
928.796	13198
928.901	13031
929.007	12837
929.112	13004
929.218	13012
929.323	12894
929.428	12924
929.533	12981
929.638	12821
929.743	12764
929.848	12863
929.953	12757
930.058	12863
930.163	12627
930.267	12555
930.372	12749
930.477	12475
930.581	12806
930.685	12563
930.79	12460
930.894	12502
930.998	12410
931.103	12559
931.207	12277
931.311	12026
931.415	12011
931.519	11798
931.623	11737
