Data from test_V78500241_26.txt Node
Date: Fri Mar 25 15:41:58 CST 2022
User: usil
Spectrometer: V785-0024
Trigger mode: 0
Integration Time (sec): 4.000000E-1
Scans to average: 1
Nonlinearity correction enabled: false
Boxcar width: 0
Storing dark spectrum: false
XAxis mode: Wavelengths
Number of Pixels in Spectrum: 1024
>>>>>Begin Spectral Data<<<<<
801.071	27268
801.214	27165
801.356	26986
801.499	26914
801.641	26735
801.783	26667
801.926	26811
802.068	26640
802.211	26613
802.353	26659
802.496	26282
802.638	26145
802.78	26259
802.923	26145
803.065	26077
803.208	26202
803.35	26134
803.492	26202
803.635	26282
803.777	26229
803.919	26336
804.061	26594
804.204	26259
804.346	26138
804.488	26054
804.63	26016
804.773	26039
804.915	26088
805.057	26191
805.199	26050
805.341	26263
805.483	26282
805.626	26161
805.768	26267
805.91	26218
806.052	26199
806.194	26092
806.336	26377
806.478	26370
806.62	26309
806.762	26450
806.904	26438
807.046	26530
807.188	26606
807.33	26522
807.472	26545
807.614	26564
807.756	26594
807.898	26252
808.04	26142
808.182	26259
808.324	26309
808.465	26343
808.607	26480
808.749	26659
808.891	26785
809.033	26788
809.174	26621
809.316	26579
809.458	26560
809.6	26720
809.741	26678
809.883	26727
810.025	26842
810.166	26754
810.308	26849
810.45	26743
810.591	26739
810.733	26533
810.875	26587
811.016	26377
811.158	26423
811.299	26674
811.441	26663
811.582	26571
811.724	26602
811.865	26499
812.007	26465
812.148	26396
812.29	26526
812.431	26651
812.573	26826
812.714	26758
812.855	26811
812.997	27116
813.138	27192
813.279	27195
813.421	26956
813.562	26864
813.703	26830
813.845	26583
813.986	26339
814.127	26126
814.268	26024
814.41	26145
814.551	26065
814.692	26202
814.833	25963
814.974	25944
815.115	25982
815.256	25925
815.397	25830
815.539	25856
815.68	25833
815.821	25609
815.962	25776
816.103	25693
816.244	25567
816.385	25449
816.526	25445
816.666	25259
816.807	25164
816.948	25232
817.089	25187
817.23	25274
817.371	25152
817.512	25114
817.653	25084
817.793	25061
817.934	25042
818.075	25110
818.216	24935
818.356	24954
818.497	24916
818.638	24627
818.778	24730
818.919	24730
819.06	24726
819.2	24837
819.341	24840
819.481	24810
819.622	25084
819.762	25289
819.903	25232
820.043	25084
820.184	25145
820.324	24924
820.465	25187
820.605	24992
820.746	25050
820.886	24913
821.026	24966
821.167	24806
821.307	24962
821.447	24970
821.588	24806
821.728	24635
821.868	24597
822.008	24365
822.149	24228
822.289	24407
822.429	24163
822.569	24011
822.709	23980
822.849	23707
822.99	23870
823.13	23836
823.27	23695
823.41	23665
823.55	23440
823.69	23623
823.83	23505
823.97	23455
824.11	23337
824.25	23349
824.389	23341
824.529	23406
824.669	23353
824.809	23478
824.949	23387
825.089	23531
825.228	23280
825.368	23250
825.508	23140
825.648	23166
825.787	23128
825.927	23189
826.067	23136
826.206	23033
826.346	23181
826.485	23090
826.625	23071
826.765	23132
826.904	23143
827.044	22805
827.183	22820
827.323	22733
827.462	22752
827.601	22828
827.741	22698
827.88	22694
828.02	22675
828.159	22687
828.298	22843
828.437	22679
828.577	22679
828.716	22839
828.855	22729
828.994	22493
829.134	22489
829.273	22409
829.412	22280
829.551	22367
829.69	22508
829.829	22371
829.968	22447
830.107	22500
830.246	22451
830.385	22405
830.524	22314
830.663	22120
830.802	22029
830.941	22070
831.08	22006
831.219	22112
831.357	22029
831.496	22276
831.635	21850
831.774	21975
831.913	21827
832.051	21911
832.19	21774
832.329	21842
832.467	21583
832.606	21496
832.744	21545
832.883	21720
833.022	21572
833.16	21603
833.299	21610
833.437	21564
833.576	21679
833.714	21511
833.852	21766
833.991	21583
834.129	21770
834.267	21622
834.406	21519
834.544	21568
834.682	21660
834.821	21660
834.959	21816
835.097	21568
835.235	21690
835.373	21618
835.511	21625
835.65	21344
835.788	21435
835.926	21325
836.064	21214
836.202	21230
836.34	21469
836.478	21591
836.615	21340
836.753	21420
836.891	21481
837.029	21412
837.167	21348
837.305	21496
837.443	21321
837.58	21370
837.718	21454
837.856	21287
837.993	21260
838.131	21237
838.269	21211
838.406	21104
838.544	21127
838.681	20986
838.819	20834
838.956	20762
839.094	20716
839.231	20849
839.369	20872
839.506	21195
839.643	21001
839.781	20788
839.918	20575
840.055	20663
840.193	20602
840.33	20598
840.467	20632
840.604	20735
840.742	20921
840.879	20537
841.016	20537
841.153	20629
841.29	20648
841.427	20629
841.564	20686
841.701	20602
841.838	20602
841.975	20454
842.112	20579
842.249	20370
842.385	20370
842.522	20511
842.659	20385
842.796	20290
842.933	20298
843.069	20317
843.206	20126
843.343	20377
843.479	20393
843.616	20332
843.752	20073
843.889	20016
844.025	20077
844.162	20081
844.298	20229
844.435	20008
844.571	20001
844.708	20111
844.844	20294
844.98	20214
845.117	20161
845.253	19894
845.389	19940
845.525	19887
845.661	19864
845.798	19780
845.934	19814
846.07	19696
846.206	19742
846.342	19928
846.478	19791
846.614	19575
846.75	19605
846.886	19453
847.022	19620
847.158	19601
847.294	19556
847.429	19556
847.565	19346
847.701	19719
847.837	19369
847.972	19152
848.108	19358
848.244	19156
848.379	19152
848.515	19065
848.65	19050
848.786	19019
848.921	19099
849.057	19103
849.192	19148
849.328	19152
849.463	19122
849.598	19019
849.734	18905
849.869	18905
850.004	18867
850.14	18669
850.275	18745
850.41	18677
850.545	18726
850.68	18673
850.815	18707
850.95	18817
851.085	18993
851.22	18810
851.355	18829
851.49	18719
851.625	18669
851.76	18741
851.895	18597
852.03	18673
852.165	18779
852.299	18894
852.434	18840
852.569	18837
852.703	18795
852.838	18814
852.973	18840
853.107	18787
853.242	18745
853.376	18563
853.511	18532
853.645	18570
853.78	18654
853.914	18608
854.048	18464
854.183	18627
854.317	18490
854.451	18726
854.585	18574
854.72	18574
854.854	18563
854.988	18513
855.122	18517
855.256	18334
855.39	18585
855.524	18688
855.658	18604
855.792	18677
855.926	18521
856.06	18582
856.194	18639
856.327	18540
856.461	18464
856.595	18585
856.729	18555
856.862	18578
856.996	18471
857.13	18544
857.263	18692
857.397	18616
857.53	18506
857.664	18578
857.797	18616
857.931	18608
858.064	18540
858.197	18570
858.331	18582
858.464	18311
858.597	18403
858.731	18441
858.864	18467
858.997	18506
859.13	18521
859.263	18513
859.396	18574
859.529	18403
859.662	18441
859.795	18426
859.928	18509
860.061	18547
860.194	18654
860.327	18551
860.46	18498
860.592	18528
860.725	18585
860.858	18570
860.99	18464
861.123	18346
861.256	18372
861.388	18498
861.521	19012
861.653	18357
861.786	18330
861.918	18357
862.05	18460
862.183	18532
862.315	18574
862.447	18684
862.58	18456
862.712	18311
862.844	18182
862.976	18384
863.108	18300
863.24	18506
863.372	18186
863.504	18186
863.636	18239
863.768	18095
863.9	18186
864.032	18102
864.164	18053
864.296	18251
864.428	18311
864.559	18296
864.691	18167
864.823	18270
864.954	18235
865.086	18228
865.217	18087
865.349	18106
865.48	18148
865.612	18091
865.743	18224
865.875	18041
866.006	18030
866.137	18144
866.269	18190
866.4	18076
866.531	18049
866.662	18110
866.793	18159
866.924	18053
867.055	18114
867.186	18076
867.317	18060
867.448	17916
867.579	18106
867.71	18060
867.841	17980
867.972	18114
868.103	18007
868.233	18133
868.364	18102
868.495	18220
868.625	18239
868.756	18365
868.886	18262
869.017	18292
869.147	18376
869.278	18376
869.408	18300
869.539	18365
869.669	18441
869.799	18372
869.929	18372
870.06	18376
870.19	18578
870.32	18604
870.45	18688
870.58	18757
870.71	18760
870.84	18806
870.97	18700
871.1	18726
871.23	18837
871.36	18973
871.489	18798
871.619	18928
871.749	18894
871.879	18905
872.008	18981
872.138	19038
872.267	18924
872.397	18848
872.526	18814
872.656	18882
872.785	18696
872.915	18890
873.044	19190
873.173	18939
873.303	19031
873.432	19042
873.561	19000
873.69	19027
873.819	19042
873.948	19061
874.077	18966
874.206	18951
874.335	19046
874.464	19160
874.593	19297
874.722	19190
874.851	19171
874.979	19289
875.108	19327
875.237	19168
875.365	19263
875.494	19270
875.623	19346
875.751	19247
875.88	19320
876.008	19453
876.136	19499
876.265	19700
876.393	19860
876.521	19761
876.65	19693
876.778	19723
876.906	19605
877.034	19620
877.162	19613
877.29	19483
877.418	19666
877.546	19662
877.674	19620
877.802	19620
877.93	19529
878.058	19597
878.185	19559
878.313	19616
878.441	19628
878.568	19449
878.696	19499
878.824	19772
878.951	19632
879.079	19841
879.206	19887
879.333	19731
879.461	19712
879.588	19727
879.715	19795
879.842	19811
879.97	19632
880.097	19480
880.224	19415
880.351	19422
880.478	19533
880.605	19430
880.732	19419
880.859	19731
880.986	19521
881.112	19422
881.239	19392
881.366	19255
881.493	19084
881.619	19080
881.746	19099
881.872	19038
881.999	19099
882.125	19053
882.252	19171
882.378	19061
882.505	19209
882.631	18939
882.757	19008
882.883	18932
883.01	18909
883.136	18829
883.262	18897
883.388	18795
883.514	18886
883.64	18920
883.766	18947
883.892	18673
884.018	18597
884.143	18814
884.269	18901
884.395	18608
884.52	18620
884.646	18532
884.772	18429
884.897	18391
885.023	18517
885.148	18597
885.274	18612
885.399	18555
885.524	18509
885.65	18532
885.775	18532
885.9	18467
886.025	18601
886.15	18506
886.275	18407
886.4	18361
886.525	18437
886.65	18391
886.775	18441
886.9	18528
887.025	18783
887.149	18483
887.274	18220
887.399	18327
887.523	18205
887.648	18247
887.773	18174
887.897	18418
888.021	18285
888.146	18247
888.27	18376
888.395	18433
888.519	18376
888.643	18418
888.767	18380
888.891	18076
889.015	18087
889.139	18174
889.263	18030
889.387	18148
889.511	18315
889.635	18209
889.759	18003
889.883	18045
890.006	18163
890.13	18190
890.254	17912
890.377	17984
890.501	17859
890.624	17771
890.748	17855
890.871	17855
890.995	17680
891.118	17585
891.241	17718
891.364	17596
891.488	17897
891.611	17676
891.734	17710
891.857	17657
891.98	17657
892.103	17836
892.226	17779
892.349	17684
892.471	17543
892.594	17676
892.717	17764
892.839	17745
892.962	17649
893.085	17805
893.207	17748
893.33	17581
893.452	17566
893.575	17828
893.697	17680
893.819	17847
893.941	17779
894.064	17794
894.186	17661
894.308	17520
894.43	17828
894.552	17958
894.674	17817
894.796	17589
894.918	17592
895.04	17634
895.161	17790
895.283	17764
895.405	17676
895.526	17718
895.648	17760
895.769	17771
895.891	17638
896.012	17847
896.134	17809
896.255	17821
896.376	17809
896.498	17866
896.619	17893
896.74	17760
896.861	17893
896.982	18201
897.103	18361
897.224	18121
897.345	17980
897.466	18007
897.587	17988
897.708	18106
897.828	18095
897.949	17954
898.07	17794
898.19	17916
898.311	17958
898.431	18011
898.552	17958
898.672	18060
898.792	18068
898.913	18022
899.033	17790
899.153	17863
899.273	17642
899.393	17707
899.513	17707
899.633	17805
899.753	17722
899.873	17836
899.993	17836
900.113	17638
900.232	17707
900.352	17646
900.472	17653
900.591	17543
900.711	17516
900.83	17592
900.95	17608
901.069	17661
901.189	17528
901.308	17387
901.427	17204
901.546	17178
901.665	17242
901.784	17204
901.904	17067
902.023	17025
902.141	16850
902.26	16679
902.379	16862
902.498	16656
902.617	16664
902.735	16713
902.854	16801
902.973	16698
903.091	16398
903.21	16455
903.328	16428
903.446	16436
903.565	16268
903.683	16303
903.801	16143
903.919	16268
904.038	16166
904.156	15987
904.274	16116
904.392	15945
904.51	16048
904.627	15953
904.745	15991
904.863	16158
904.981	15774
905.098	15637
905.216	15739
905.334	15717
905.451	15610
905.569	15625
905.686	15774
905.803	15682
905.921	15549
906.038	15568
906.155	15374
906.272	15348
906.389	15374
906.506	15218
906.623	15272
906.74	15237
906.857	15024
906.974	15085
907.091	15272
907.208	15340
907.324	15256
907.441	15100
907.557	14925
907.674	14952
907.79	14918
907.907	14819
908.023	14853
908.139	14910
908.256	14868
908.372	14796
908.488	14727
908.604	14629
908.72	14583
908.836	14575
908.952	14644
909.068	14598
909.184	14689
909.3	14537
909.415	14659
909.531	14499
909.647	14454
909.762	14362
909.878	14404
909.993	14339
910.108	14313
910.224	14278
910.339	14343
910.454	14172
910.57	14164
910.685	14069
910.8	14328
910.915	14263
911.03	14180
911.145	13997
911.259	13944
911.374	13944
911.489	13883
911.604	13940
911.718	13769
911.833	13700
911.947	13609
912.062	13483
912.176	13738
912.291	13738
912.405	13693
912.519	13928
912.633	13932
912.748	13788
912.862	13723
912.976	13487
913.09	13430
913.204	13457
913.318	13499
913.431	13586
913.545	13636
913.659	13571
913.772	13575
913.886	13453
914	13350
914.113	13487
914.226	13495
914.34	13422
914.453	13343
914.566	13400
914.68	13297
914.793	13331
914.906	13110
915.019	13008
915.132	13000
915.245	13034
915.358	13023
915.47	12993
915.583	13072
915.696	13179
915.809	13183
915.921	13221
916.034	12962
916.146	12920
916.259	12924
916.371	13091
916.483	13019
916.595	12829
916.708	12905
916.82	12973
916.932	12890
917.044	12909
917.156	12787
917.268	12753
917.38	12844
917.491	12757
917.603	12783
917.715	12909
917.826	12829
917.938	12753
918.049	12620
918.161	12757
918.272	12859
918.384	12928
918.495	12715
918.606	12547
918.717	12540
918.828	12585
918.939	12616
919.05	12521
919.161	12464
919.272	12285
919.383	12376
919.494	12612
919.604	12669
919.715	12498
919.826	12460
919.936	12509
920.047	12604
920.157	12578
920.267	12848
920.378	12616
920.488	12528
920.598	12829
920.708	12863
920.818	12627
920.928	12700
921.038	12783
921.148	12825
921.258	12540
921.368	12407
921.477	12254
921.587	12228
921.697	12163
921.806	12357
921.916	12148
922.025	12015
922.134	11992
922.244	11980
922.353	12098
922.462	11885
922.571	11779
922.68	11688
922.789	11596
922.898	11672
923.007	11535
923.116	11634
923.224	11615
923.333	11482
923.442	11554
923.55	11391
923.659	11474
923.767	11551
923.876	11376
923.984	11429
924.092	11402
924.201	11429
924.309	11497
924.417	11463
924.525	11345
924.633	11376
924.741	12228
924.849	11197
924.956	11273
925.064	11235
925.172	11075
925.279	11159
925.387	11136
925.494	11102
925.602	11322
925.709	11242
925.816	11109
925.924	11098
926.031	11235
926.138	11162
926.245	11193
926.352	10957
926.459	11174
926.566	11193
926.673	11067
926.779	11022
926.886	10927
926.993	10771
927.099	10862
927.206	10683
927.312	10759
927.419	10774
927.525	10793
927.631	10812
927.737	10649
927.843	10554
927.95	10538
928.056	10607
928.162	10664
928.267	10630
928.373	11364
928.479	10694
928.585	10440
928.69	10596
928.796	10672
928.901	10462
929.007	10375
929.112	10569
929.218	10440
929.323	10424
929.428	10375
929.533	10516
929.638	10284
929.743	10310
929.848	10462
929.953	10363
930.058	10188
930.163	10101
930.267	10044
930.372	10287
930.477	10150
930.581	10310
930.685	10051
930.79	9991
930.894	10090
930.998	10002
931.103	10086
931.207	9717
931.311	9713
931.415	9663
931.519	9363
931.623	9344
