Data from test_V78500241_1403.txt Node
Date: Fri Mar 25 15:51:31 CST 2022
User: usil
Spectrometer: V785-0024
Trigger mode: 0
Integration Time (sec): 4.000000E-1
Scans to average: 1
Nonlinearity correction enabled: false
Boxcar width: 0
Storing dark spectrum: false
XAxis mode: Wavelengths
Number of Pixels in Spectrum: 1024
>>>>>Begin Spectral Data<<<<<
801.071	28086
801.214	27960
801.356	27690
801.499	27701
801.641	27713
801.783	27370
801.926	27663
802.068	27538
802.211	27526
802.353	27401
802.496	27363
802.638	27291
802.78	27218
802.923	27233
803.065	26967
803.208	27104
803.35	27363
803.492	27374
803.635	27492
803.777	27165
803.919	27492
804.061	27755
804.204	27614
804.346	27389
804.488	27340
804.63	27427
804.773	27313
804.915	27420
805.057	27572
805.199	27447
805.341	27534
805.483	27458
805.626	27545
805.768	27545
805.91	27599
806.052	27633
806.194	27454
806.336	27751
806.478	27572
806.62	27663
806.762	27637
806.904	27797
807.046	27979
807.188	28029
807.33	28116
807.472	28109
807.614	27880
807.756	27926
807.898	27994
808.04	27850
808.182	27880
808.324	27823
808.465	28002
808.607	28116
808.749	28253
808.891	28268
809.033	28382
809.174	28253
809.316	28188
809.458	28329
809.6	28246
809.741	28253
809.883	28409
810.025	28523
810.166	28470
810.308	28717
810.45	28371
810.591	28329
810.733	28226
810.875	28291
811.016	28116
811.158	28143
811.299	28348
811.441	28204
811.582	28257
811.724	28124
811.865	28158
812.007	28261
812.148	28166
812.29	28299
812.431	28401
812.573	28550
812.714	28512
812.855	28733
812.997	28911
813.138	29018
813.279	28862
813.421	28759
813.562	28596
813.703	28656
813.845	28542
813.986	28188
814.127	28032
814.268	27903
814.41	27949
814.551	27846
814.692	27983
814.833	27991
814.974	27823
815.115	27804
815.256	27770
815.397	27713
815.539	27838
815.68	27766
815.821	27755
815.962	27766
816.103	27739
816.244	27534
816.385	27397
816.526	27500
816.666	27389
816.807	27184
816.948	27359
817.089	27131
817.23	27336
817.371	27116
817.512	27222
817.653	27233
817.793	27127
817.934	27131
818.075	27264
818.216	27211
818.356	27188
818.497	27127
818.638	26963
818.778	26948
818.919	26990
819.06	27036
819.2	26998
819.341	27218
819.481	27161
819.622	27355
819.762	27542
819.903	27454
820.043	27427
820.184	27359
820.324	27401
820.465	27313
820.605	27272
820.746	27230
820.886	27237
821.026	27154
821.167	27188
821.307	27405
821.447	27214
821.588	27100
821.728	27055
821.868	26963
822.008	26872
822.149	26777
822.289	26750
822.429	26484
822.569	26488
822.709	26419
822.849	26206
822.99	26149
823.13	26206
823.27	26218
823.41	26012
823.55	25925
823.69	26134
823.83	25970
823.97	25963
824.11	25951
824.25	25906
824.389	25807
824.529	25875
824.669	25913
824.809	25906
824.949	25963
825.089	25849
825.228	25932
825.368	25799
825.508	25712
825.648	25635
825.787	25757
825.927	25696
826.067	25597
826.206	25674
826.346	25719
826.485	25723
826.625	25723
826.765	25879
826.904	25803
827.044	25449
827.183	25559
827.323	25343
827.462	25449
827.601	25331
827.741	25464
827.88	25559
828.02	25232
828.159	25415
828.298	25453
828.437	25506
828.577	25365
828.716	25445
828.855	25373
828.994	25110
829.134	25175
829.273	25103
829.412	25278
829.551	25095
829.69	25046
829.829	25168
829.968	25221
830.107	25263
830.246	25103
830.385	24992
830.524	25114
830.663	24833
830.802	24810
830.941	24623
831.08	24582
831.219	24764
831.357	24817
831.496	25000
831.635	24726
831.774	24703
831.913	24696
832.051	24528
832.19	24418
832.329	24544
832.467	24521
832.606	24448
832.744	24281
832.883	24437
833.022	24464
833.16	24315
833.299	24445
833.437	24528
833.576	24490
833.714	24486
833.852	24540
833.991	24570
834.129	24555
834.267	24536
834.406	24582
834.544	24498
834.682	24410
834.821	24422
834.959	24536
835.097	24426
835.235	24475
835.373	24456
835.511	24330
835.65	24258
835.788	24456
835.926	24289
836.064	24129
836.202	24155
836.34	24391
836.478	24296
836.615	24327
836.753	24418
836.891	24342
837.029	24266
837.167	24167
837.305	24232
837.443	24224
837.58	24018
837.718	24232
837.856	24125
837.993	23984
838.131	24079
838.269	23992
838.406	24087
838.544	23946
838.681	23748
838.819	23790
838.956	23703
839.094	23596
839.231	23615
839.369	23786
839.506	24003
839.643	23790
839.781	23668
839.918	23551
840.055	23596
840.193	23436
840.33	23486
840.467	23528
840.604	23539
840.742	23836
840.879	23383
841.016	23463
841.153	23463
841.29	23699
841.427	23463
841.564	23520
841.701	23505
841.838	23471
841.975	23414
842.112	23379
842.249	23391
842.385	23345
842.522	23402
842.659	23391
842.796	23239
842.933	23292
843.069	23128
843.206	23330
843.343	23284
843.479	23250
843.616	23353
843.752	22984
843.889	23170
844.025	23197
844.162	23029
844.298	23128
844.435	22957
844.571	23071
844.708	22965
844.844	23189
844.98	23159
845.117	23105
845.253	23052
845.389	22930
845.525	22980
845.661	22953
845.798	22805
845.934	22774
846.07	22824
846.206	22828
846.342	22858
846.478	22793
846.614	22569
846.75	22360
846.886	22478
847.022	22531
847.158	22512
847.294	22603
847.429	22653
847.565	22577
847.701	22645
847.837	22261
847.972	22314
848.108	22413
848.244	22314
848.379	22093
848.515	22044
848.65	22040
848.786	22063
848.921	22116
849.057	22219
849.192	22177
849.328	22059
849.463	22124
849.598	22070
849.734	22044
849.869	21979
850.004	21953
850.14	21915
850.275	21823
850.41	21701
850.545	21800
850.68	21762
850.815	21953
850.95	21800
851.085	22025
851.22	22021
851.355	21846
851.49	21888
851.625	21869
851.76	21857
851.895	21816
852.03	21705
852.165	21892
852.299	21831
852.434	22017
852.569	21895
852.703	21884
852.838	21915
852.973	22010
853.107	22051
853.242	21751
853.376	21679
853.511	21572
853.645	21736
853.78	21739
853.914	21656
854.048	21587
854.183	21732
854.317	21728
854.451	21895
854.585	21694
854.72	21686
854.854	21637
854.988	21633
855.122	21709
855.256	21732
855.39	21644
855.524	21686
855.658	21759
855.792	21644
855.926	21663
856.06	21785
856.194	21930
856.327	21701
856.461	21591
856.595	21618
856.729	21618
856.862	21774
856.996	21656
857.13	21724
857.263	21785
857.397	21770
857.53	21591
857.664	21679
857.797	21766
857.931	21861
858.064	21671
858.197	21808
858.331	21751
858.464	21652
858.597	21507
858.731	21698
858.864	21709
858.997	21515
859.13	21816
859.263	21663
859.396	21698
859.529	21587
859.662	21751
859.795	21614
859.928	21610
860.061	21823
860.194	21861
860.327	21701
860.46	21679
860.592	21831
860.725	21831
860.858	21652
860.99	21679
861.123	21599
861.256	21694
861.388	21686
861.521	22405
861.653	21572
861.786	21397
861.918	21515
862.05	21553
862.183	21625
862.315	21656
862.447	21603
862.58	21606
862.712	21412
862.844	21340
862.976	21538
863.108	21416
863.24	21842
863.372	21283
863.504	21431
863.636	21374
863.768	21462
863.9	21382
864.032	21363
864.164	21401
864.296	21332
864.428	21458
864.559	21462
864.691	21488
864.823	21367
864.954	21424
865.086	21370
865.217	21252
865.349	21222
865.48	21389
865.612	21310
865.743	21412
865.875	21340
866.006	21272
866.137	21272
866.269	21135
866.4	21264
866.531	21275
866.662	21180
866.793	21378
866.924	21268
867.055	21249
867.186	21237
867.317	21161
867.448	21123
867.579	21237
867.71	21173
867.841	21123
867.972	21138
868.103	21184
868.233	21157
868.364	21169
868.495	21298
868.625	21374
868.756	21462
868.886	21389
869.017	21450
869.147	21587
869.278	21534
869.408	21469
869.539	21496
869.669	21519
869.799	21450
869.929	21583
870.06	21553
870.19	21846
870.32	21698
870.45	21728
870.58	21835
870.71	21869
870.84	22059
870.97	21797
871.1	21922
871.23	21975
871.36	22070
871.489	21968
871.619	22002
871.749	22082
871.879	22048
872.008	22158
872.138	22051
872.267	22192
872.397	21979
872.526	21903
872.656	21888
872.785	21876
872.915	22169
873.044	22097
873.173	22192
873.303	22086
873.432	22109
873.561	22177
873.69	22112
873.819	22070
873.948	22112
874.077	22131
874.206	21953
874.335	22032
874.464	22257
874.593	22329
874.722	22379
874.851	22329
874.979	22257
875.108	22253
875.237	22402
875.365	22143
875.494	22360
875.623	22284
875.751	22223
875.88	22314
876.008	22299
876.136	22523
876.265	22793
876.393	22786
876.521	22679
876.65	22664
876.778	22717
876.906	22641
877.034	22755
877.162	22611
877.29	22508
877.418	22603
877.546	22782
877.674	22599
877.802	22592
877.93	22542
878.058	22634
878.185	22455
878.313	22436
878.441	22634
878.568	22466
878.696	22573
878.824	22641
878.951	22736
879.079	22748
879.206	22938
879.333	22889
879.461	22717
879.588	22713
879.715	22809
879.842	22942
879.97	22759
880.097	22542
880.224	22485
880.351	22538
880.478	22512
880.605	22398
880.732	22306
880.859	22668
880.986	22527
881.112	22440
881.239	22257
881.366	22207
881.493	22204
881.619	22074
881.746	22112
881.872	22074
881.999	21983
882.125	21934
882.252	22002
882.378	22055
882.505	22154
882.631	21956
882.757	21747
882.883	21823
883.01	21728
883.136	21800
883.262	21629
883.388	21507
883.514	21698
883.64	21797
883.766	21766
883.892	21401
884.018	21549
884.143	21633
884.269	21800
884.395	21416
884.52	21291
884.646	21374
884.772	21252
884.897	21230
885.023	21401
885.148	21420
885.274	21408
885.399	21523
885.524	21294
885.65	21412
885.775	21405
885.9	21458
886.025	21481
886.15	21515
886.275	21165
886.4	21211
886.525	21260
886.65	21237
886.775	21325
886.9	21526
887.025	21519
887.149	21336
887.274	21150
887.399	21039
887.523	21199
887.648	21116
887.773	21047
887.897	21237
888.021	21154
888.146	21165
888.27	21195
888.395	21237
888.519	21214
888.643	21207
888.767	21180
888.891	21062
889.015	20880
889.139	21055
889.263	20956
889.387	20967
889.511	21176
889.635	21024
889.759	21017
889.883	20861
890.006	20899
890.13	21005
890.254	20899
890.377	20819
890.501	20686
890.624	20807
890.748	20838
890.871	20575
890.995	20530
891.118	20370
891.241	20476
891.364	20495
891.488	20651
891.611	20560
891.734	20522
891.857	20530
891.98	20423
892.103	20511
892.226	20530
892.349	20480
892.471	20206
892.594	20393
892.717	20366
892.839	20271
892.962	20492
893.085	20473
893.207	20434
893.33	20309
893.452	20271
893.575	20476
893.697	20355
893.819	20594
893.941	20602
894.064	20541
894.186	20290
894.308	20385
894.43	20362
894.552	20461
894.674	20530
894.796	20320
894.918	20370
895.04	20355
895.161	20412
895.283	20545
895.405	20343
895.526	20332
895.648	20423
895.769	20427
895.891	20427
896.012	20598
896.134	20454
896.255	20377
896.376	20351
896.498	20377
896.619	20438
896.74	20415
896.861	20522
896.982	20682
897.103	20872
897.224	20792
897.345	20590
897.466	20511
897.587	20640
897.708	20674
897.828	20575
897.949	20556
898.07	20377
898.19	20495
898.311	20556
898.431	20549
898.552	20636
898.672	20731
898.792	20651
898.913	20648
899.033	20381
899.153	20446
899.273	20351
899.393	20317
899.513	20332
899.633	20328
899.753	20305
899.873	20267
899.993	20317
900.113	20210
900.232	20320
900.352	20313
900.472	20145
900.591	20138
900.711	20183
900.83	19997
900.95	20183
901.069	20145
901.189	19936
901.308	19849
901.427	19723
901.546	19780
901.665	19746
901.784	19776
901.904	19578
902.023	19438
902.141	19282
902.26	19263
902.379	19293
902.498	19137
902.617	19137
902.735	19304
902.854	19110
902.973	19194
903.091	18901
903.21	18878
903.328	18905
903.446	18677
903.565	18639
903.683	18726
903.801	18589
903.919	18578
904.038	18681
904.156	18490
904.274	18486
904.392	18422
904.51	18304
904.627	18376
904.745	18540
904.863	18513
904.981	18247
905.098	18197
905.216	18076
905.334	18144
905.451	18144
905.569	18133
905.686	18117
905.803	18015
905.921	17958
906.038	18015
906.155	17870
906.272	17866
906.389	17859
906.506	17676
906.623	17722
906.74	17718
906.857	17615
906.974	17570
907.091	17748
907.208	17760
907.324	17745
907.441	17596
907.557	17379
907.674	17387
907.79	17311
907.907	17429
908.023	17356
908.139	17334
908.256	17303
908.372	17341
908.488	17223
908.604	17132
908.72	17048
908.836	17029
908.952	17136
909.068	17124
909.184	17181
909.3	17102
909.415	17121
909.531	17010
909.647	16805
909.762	16877
909.878	16702
909.993	16729
910.108	16797
910.224	16755
910.339	16782
910.454	16637
910.57	16527
910.685	16569
910.8	16790
910.915	16748
911.03	16618
911.145	16333
911.259	16405
911.374	16306
911.489	16284
911.604	16249
911.718	16025
911.833	16090
911.947	16040
912.062	15991
912.176	16112
912.291	16249
912.405	16158
912.519	16204
912.633	16287
912.748	16226
912.862	16169
912.976	15926
913.09	15827
913.204	15854
913.318	15994
913.431	16010
913.545	15926
913.659	16021
913.772	15892
913.886	15660
914	15804
914.113	15770
914.226	15953
914.34	15869
914.453	15724
914.566	15671
914.68	15614
914.793	15549
914.906	15386
915.019	15283
915.132	15245
915.245	15340
915.358	15386
915.47	15222
915.583	15332
915.696	15340
915.809	15420
915.921	15428
916.034	15294
916.146	15310
916.259	15173
916.371	15272
916.483	15291
916.595	15146
916.708	15192
916.82	15051
916.932	15058
917.044	15142
917.156	15020
917.268	15093
917.38	14933
917.491	15013
917.603	15013
917.715	15036
917.826	14994
917.938	14876
918.049	14781
918.161	14956
918.272	15081
918.384	14956
918.495	14963
918.606	14800
918.717	14663
918.828	14765
918.939	14758
919.05	14583
919.161	14708
919.272	14556
919.383	14610
919.494	14765
919.604	14895
919.715	14735
919.826	14644
919.936	14621
920.047	14811
920.157	14708
920.267	14880
920.378	14845
920.488	14590
920.598	14792
920.708	14948
920.818	14781
920.928	14788
921.038	14998
921.148	14921
921.258	14743
921.368	14621
921.477	14419
921.587	14400
921.697	14290
921.806	14507
921.916	14191
922.025	14187
922.134	14183
922.244	13970
922.353	14157
922.462	13951
922.571	13879
922.68	13639
922.789	13712
922.898	13681
923.007	13594
923.116	13742
923.224	13715
923.333	13597
923.442	13578
923.55	13434
923.659	13594
923.767	13552
923.876	13384
923.984	13533
924.092	13468
924.201	13506
924.309	13350
924.417	13491
924.525	13293
924.633	13339
924.741	14172
924.849	13228
924.956	13362
925.064	13145
925.172	13099
925.279	13046
925.387	13107
925.494	13069
925.602	13232
925.709	13171
925.816	13053
925.924	13076
926.031	13164
926.138	13103
926.245	13061
926.352	12924
926.459	13019
926.566	13069
926.673	12966
926.779	12772
926.886	12856
926.993	12772
927.099	12658
927.206	12559
927.312	12608
927.419	12772
927.525	12665
927.631	12681
927.737	12555
927.843	12506
927.95	12429
928.056	12464
928.162	12604
928.267	12509
928.373	13137
928.479	12566
928.585	12365
928.69	12426
928.796	12528
928.901	12281
929.007	12239
929.112	12327
929.218	12296
929.323	12178
929.428	12235
929.533	12365
929.638	12095
929.743	12216
929.848	12148
929.953	12224
930.058	12041
930.163	11935
930.267	11923
930.372	12049
930.477	11828
930.581	12019
930.685	11916
930.79	11760
930.894	11878
930.998	11756
931.103	11878
931.207	11539
931.311	11406
931.415	11414
931.519	11128
931.623	11174
