Data from test_V78500241_3139.txt Node
Date: Fri Mar 25 16:03:32 CST 2022
User: usil
Spectrometer: V785-0024
Trigger mode: 0
Integration Time (sec): 4.000000E-1
Scans to average: 1
Nonlinearity correction enabled: false
Boxcar width: 0
Storing dark spectrum: false
XAxis mode: Wavelengths
Number of Pixels in Spectrum: 1024
>>>>>Begin Spectral Data<<<<<
801.071	28744
801.214	28573
801.356	28432
801.499	28367
801.641	28306
801.783	28246
801.926	28421
802.068	28188
802.211	28048
802.353	28059
802.496	27918
802.638	27850
802.78	27876
802.923	27819
803.065	27705
803.208	27934
803.35	27953
803.492	27941
803.635	28181
803.777	28101
803.919	28169
804.061	28485
804.204	28078
804.346	28078
804.488	28135
804.63	28120
804.773	28070
804.915	28226
805.057	28341
805.199	28086
805.341	28200
805.483	28371
805.626	28371
805.768	28090
805.91	28322
806.052	28314
806.194	28360
806.336	28398
806.478	28405
806.62	28280
806.762	28573
806.904	28778
807.046	28896
807.188	28782
807.33	28748
807.472	28919
807.614	28885
807.756	28927
807.898	28584
808.04	28512
808.182	28557
808.324	28611
808.465	28687
808.607	28896
808.749	28976
808.891	29067
809.033	29212
809.174	29003
809.316	28953
809.458	29018
809.6	28911
809.741	29083
809.883	29109
810.025	29220
810.166	29250
810.308	29341
810.45	29246
810.591	29265
810.733	29044
810.875	28972
811.016	28793
811.158	28908
811.299	29178
811.441	29197
811.582	29204
811.724	28972
811.865	28904
812.007	28991
812.148	29117
812.29	29193
812.431	29136
812.573	29353
812.714	29474
812.855	29528
812.997	29627
813.138	29760
813.279	29615
813.421	29596
813.562	29512
813.703	29353
813.845	29159
813.986	28915
814.127	28854
814.268	28733
814.41	28698
814.551	28641
814.692	28797
814.833	28683
814.974	28679
815.115	28725
815.256	28538
815.397	28615
815.539	28557
815.68	28500
815.821	28481
815.962	28436
816.103	28542
816.244	28497
816.385	28428
816.526	28371
816.666	28215
816.807	28055
816.948	28120
817.089	28063
817.23	28067
817.371	27983
817.512	28017
817.653	28169
817.793	27960
817.934	28044
818.075	28143
818.216	28124
818.356	28063
818.497	27816
818.638	27838
818.778	27778
818.919	27819
819.06	27975
819.2	27968
819.341	27941
819.481	27895
819.622	28253
819.762	28413
819.903	28234
820.043	28299
820.184	28204
820.324	28162
820.465	28158
820.605	28257
820.746	28234
820.886	28040
821.026	28116
821.167	28090
821.307	28284
821.447	28196
821.588	28051
821.728	27945
821.868	27641
822.008	27534
822.149	27481
822.289	27583
822.429	27336
822.569	27268
822.709	27233
822.849	27036
822.99	27157
823.13	26948
823.27	26933
823.41	26876
823.55	26758
823.69	26933
823.83	26849
823.97	26777
824.11	26724
824.25	26648
824.389	26697
824.529	26636
824.669	26651
824.809	26800
824.949	26621
825.089	26838
825.228	26644
825.368	26507
825.508	26480
825.648	26522
825.787	26533
825.927	26609
826.067	26587
826.206	26606
826.346	26583
826.485	26625
826.625	26537
826.765	26613
826.904	26663
827.044	26385
827.183	26442
827.323	26183
827.462	26294
827.601	26370
827.741	26282
827.88	26225
828.02	26267
828.159	26298
828.298	26282
828.437	26320
828.577	26244
828.716	26332
828.855	26206
828.994	26126
829.134	25913
829.273	26024
829.412	25966
829.551	25978
829.69	25909
829.829	25997
829.968	26031
830.107	25989
830.246	26069
830.385	25921
830.524	25864
830.663	25643
830.802	25696
830.941	25544
831.08	25609
831.219	25628
831.357	25540
831.496	25875
831.635	25639
831.774	25567
831.913	25400
832.051	25453
832.19	25392
832.329	25518
832.467	25297
832.606	25145
832.744	25084
832.883	25320
833.022	25190
833.16	25255
833.299	25297
833.437	25259
833.576	25384
833.714	25350
833.852	25369
833.991	25362
834.129	25346
834.267	25403
834.406	25343
834.544	25354
834.682	25316
834.821	25285
834.959	25499
835.097	25327
835.235	25392
835.373	25259
835.511	25244
835.65	25198
835.788	25076
835.926	25034
836.064	24943
836.202	25023
836.34	25145
836.478	25259
836.615	25240
836.753	25031
836.891	25076
837.029	25179
837.167	25042
837.305	24928
837.443	24901
837.58	25008
837.718	24966
837.856	24958
837.993	24928
838.131	24886
838.269	24848
838.406	24810
838.544	24840
838.681	24654
838.819	24612
838.956	24437
839.094	24509
839.231	24460
839.369	24669
839.506	24829
839.643	24574
839.781	24547
839.918	24395
840.055	24528
840.193	24395
840.33	24391
840.467	24334
840.604	24426
840.742	24582
840.879	24011
841.016	24273
841.153	24235
841.29	24376
841.427	24273
841.564	24388
841.701	24270
841.838	24327
841.975	24251
842.112	24178
842.249	24152
842.385	24205
842.522	24467
842.659	24224
842.796	24114
842.933	24087
843.069	24068
843.206	24015
843.343	24201
843.479	24155
843.616	24110
843.752	23733
843.889	23920
844.025	23946
844.162	23794
844.298	23977
844.435	23786
844.571	23764
844.708	23889
844.844	23965
844.98	24007
845.117	23984
845.253	23668
845.389	23752
845.525	23646
845.661	23646
845.798	23638
845.934	23600
846.07	23573
846.206	23680
846.342	23672
846.478	23512
846.614	23524
846.75	23204
846.886	23425
847.022	23261
847.158	23383
847.294	23326
847.429	23353
847.565	23341
847.701	23627
847.837	23044
847.972	22984
848.108	23155
848.244	23159
848.379	22957
848.515	22892
848.65	22927
848.786	22892
848.921	22896
849.057	23033
849.192	23018
849.328	22869
849.463	22892
849.598	22854
849.734	22885
849.869	22774
850.004	22656
850.14	22653
850.275	22687
850.41	22596
850.545	22561
850.68	22653
850.815	22626
850.95	22660
851.085	22908
851.22	22786
851.355	22759
851.49	22683
851.625	22611
851.76	22660
851.895	22641
852.03	22607
852.165	22649
852.299	22721
852.434	22672
852.569	22622
852.703	22603
852.838	22717
852.973	22831
853.107	22793
853.242	22546
853.376	22379
853.511	22478
853.645	22360
853.78	22523
853.914	22466
854.048	22527
854.183	22440
854.317	22497
854.451	22618
854.585	22500
854.72	22462
854.854	22573
854.988	22451
855.122	22512
855.256	22489
855.39	22557
855.524	22561
855.658	22531
855.792	22596
855.926	22535
856.06	22485
856.194	22497
856.327	22497
856.461	22394
856.595	22417
856.729	22409
856.862	22535
856.996	22622
857.13	22497
857.263	22584
857.397	22554
857.53	22466
857.664	22470
857.797	22603
857.931	22599
858.064	22474
858.197	22538
858.331	22462
858.464	22440
858.597	22310
858.731	22455
858.864	22367
858.997	22462
859.13	22531
859.263	22462
859.396	22550
859.529	22428
859.662	22478
859.795	22504
859.928	22607
860.061	22687
860.194	22675
860.327	22538
860.46	22538
860.592	22523
860.725	22710
860.858	22561
860.99	22565
861.123	22474
861.256	22485
861.388	22489
861.521	23090
861.653	22405
861.786	22276
861.918	22360
862.05	22440
862.183	22356
862.315	22459
862.447	22299
862.58	22402
862.712	22173
862.844	22284
862.976	22295
863.108	22329
863.24	22672
863.372	22131
863.504	22173
863.636	22226
863.768	22162
863.9	22128
864.032	22135
864.164	22242
864.296	22325
864.428	22363
864.559	22329
864.691	22185
864.823	22226
864.954	22166
865.086	22158
865.217	22128
865.349	21991
865.48	22036
865.612	22025
865.743	22207
865.875	22067
866.006	22044
866.137	22048
866.269	22124
866.4	22078
866.531	21998
866.662	21941
866.793	21956
866.924	21979
867.055	22112
867.186	22051
867.317	21960
867.448	21892
867.579	21975
867.71	21895
867.841	21937
867.972	22169
868.103	22013
868.233	22082
868.364	22017
868.495	22204
868.625	22090
868.756	22314
868.886	22173
869.017	22276
869.147	22314
869.278	22360
869.408	22131
869.539	22177
869.669	22291
869.799	22310
869.929	22417
870.06	22284
870.19	22538
870.32	22519
870.45	22580
870.58	22618
870.71	22706
870.84	22637
870.97	22630
871.1	22630
871.23	22919
871.36	22706
871.489	22706
871.619	22812
871.749	22869
871.879	22839
872.008	23018
872.138	22919
872.267	22900
872.397	22740
872.526	22637
872.656	22721
872.785	22580
872.915	22946
873.044	22900
873.173	22866
873.303	22782
873.432	22942
873.561	22934
873.69	22877
873.819	22782
873.948	23003
874.077	22759
874.206	22885
874.335	22809
874.464	22896
874.593	23143
874.722	22995
874.851	23124
874.979	23121
875.108	23105
875.237	22934
875.365	22900
875.494	23105
875.623	23170
875.751	23029
875.88	23029
876.008	23181
876.136	23311
876.265	23356
876.393	23585
876.521	23585
876.65	23577
876.778	23444
876.906	23387
877.034	23414
877.162	23436
877.29	23376
877.418	23463
877.546	23410
877.674	23341
877.802	23368
877.93	23220
878.058	23265
878.185	23337
878.313	23307
878.441	23452
878.568	23124
878.696	23303
878.824	23395
878.951	23493
879.079	23646
879.206	23634
879.333	23482
879.461	23387
879.588	23577
879.715	23535
879.842	23703
879.97	23463
880.097	23223
880.224	23189
880.351	23273
880.478	23398
880.605	23151
880.732	23155
880.859	23364
880.986	23265
881.112	23227
881.239	23128
881.366	23056
881.493	22968
881.619	22805
881.746	22835
881.872	22683
881.999	22835
882.125	22767
882.252	22752
882.378	22771
882.505	22957
882.631	22710
882.757	22523
882.883	22599
883.01	22413
883.136	22523
883.262	22363
883.388	22348
883.514	22329
883.64	22645
883.766	22421
883.892	22219
884.018	22226
884.143	22344
884.269	22542
884.395	22211
884.52	22166
884.646	22154
884.772	21975
884.897	22006
885.023	22025
885.148	22162
885.274	22249
885.399	22131
885.524	22006
885.65	22055
885.775	22147
885.9	22143
886.025	22226
886.15	22162
886.275	22032
886.4	21975
886.525	22090
886.65	21827
886.775	21945
886.9	22090
887.025	22310
887.149	21994
887.274	21937
887.399	21869
887.523	21778
887.648	21800
887.773	21842
887.897	21854
888.021	21998
888.146	21827
888.27	21903
888.395	21892
888.519	21922
888.643	21918
888.767	21888
888.891	21751
889.015	21618
889.139	21800
889.263	21751
889.387	21755
889.511	21926
889.635	21743
889.759	21595
889.883	21690
890.006	21553
890.13	21652
890.254	21667
890.377	21648
890.501	21389
890.624	21310
890.748	21401
890.871	21214
890.995	21173
891.118	21245
891.241	21275
891.364	21249
891.488	21454
891.611	21142
891.734	21233
891.857	21256
891.98	21218
892.103	21169
892.226	21131
892.349	21116
892.471	20963
892.594	21047
892.717	21009
892.839	21127
892.962	21150
893.085	21207
893.207	21123
893.33	20952
893.452	21074
893.575	21138
893.697	21070
893.819	21203
893.941	21275
894.064	21214
894.186	21074
894.308	20956
894.43	21135
894.552	21317
894.674	21138
894.796	20960
894.918	20998
895.04	21089
895.161	21176
895.283	21062
895.405	21154
895.526	21039
895.648	20925
895.769	21096
895.891	21157
896.012	21203
896.134	21184
896.255	21096
896.376	20880
896.498	20975
896.619	21074
896.74	21138
896.861	21249
896.982	21382
897.103	21583
897.224	21435
897.345	21306
897.466	21203
897.587	21298
897.708	21367
897.828	21321
897.949	21169
898.07	21116
898.19	21310
898.311	21298
898.431	21131
898.552	21291
898.672	21306
898.792	21291
898.913	21260
899.033	21245
899.153	21062
899.273	20857
899.393	21100
899.513	21051
899.633	21013
899.753	21077
899.873	20838
899.993	20979
900.113	20849
900.232	20925
900.352	20910
900.472	20842
900.591	20590
900.711	20727
900.83	20708
900.95	20906
901.069	20815
901.189	20651
901.308	20442
901.427	20396
901.546	20218
901.665	20202
901.784	20362
901.904	20278
902.023	20111
902.141	20024
902.26	19811
902.379	19856
902.498	19898
902.617	19784
902.735	19769
902.854	19894
902.973	19765
903.091	19476
903.21	19548
903.328	19369
903.446	19339
903.565	19206
903.683	19381
903.801	19126
903.919	19247
904.038	19122
904.156	19031
904.274	19202
904.392	19053
904.51	18981
904.627	18996
904.745	19107
904.863	19145
904.981	18798
905.098	18681
905.216	18840
905.334	18673
905.451	18722
905.569	18707
905.686	18833
905.803	18677
905.921	18536
906.038	18536
906.155	18509
906.272	18563
906.389	18471
906.506	18247
906.623	18239
906.74	18262
906.857	18129
906.974	18121
907.091	18289
907.208	18403
907.324	18258
907.441	18129
907.557	18015
907.674	17988
907.79	17824
907.907	17984
908.023	17920
908.139	17916
908.256	17969
908.372	17775
908.488	17760
908.604	17722
908.72	17634
908.836	17710
908.952	17657
909.068	17745
909.184	17790
909.3	17729
909.415	17661
909.531	17691
909.647	17402
909.762	17379
909.878	17296
909.993	17387
910.108	17334
910.224	17318
910.339	17356
910.454	17216
910.57	17193
910.685	17045
910.8	17417
910.915	17299
911.03	17193
911.145	17052
911.259	16961
911.374	16889
911.489	16805
911.604	16774
911.718	16733
911.833	16660
911.947	16679
912.062	16519
912.176	16691
912.291	16706
912.405	16698
912.519	16843
912.633	16790
912.748	16774
912.862	16622
912.976	16519
913.09	16440
913.204	16512
913.318	16474
913.431	16607
913.545	16531
913.659	16672
913.772	16394
913.886	16314
914	16276
914.113	16299
914.226	16375
914.34	16268
914.453	16128
914.566	16413
914.68	16150
914.793	16086
914.906	15899
915.019	15842
915.132	15797
915.245	15873
915.358	15823
915.47	15899
915.583	15835
915.696	15876
915.809	15991
915.921	15975
916.034	15766
916.146	15812
916.259	15774
916.371	15854
916.483	15842
916.595	15720
916.708	15743
916.82	15690
916.932	15603
917.044	15690
917.156	15610
917.268	15530
917.38	15538
917.491	15466
917.603	15530
917.715	15595
917.826	15572
917.938	15405
918.049	15340
918.161	15428
918.272	15504
918.384	15454
918.495	15348
918.606	15306
918.717	15199
918.828	15226
918.939	15222
919.05	15131
919.161	15195
919.272	15051
919.383	15108
919.494	15226
919.604	15389
919.715	15214
919.826	15211
919.936	15184
920.047	15176
920.157	15207
920.267	15382
920.378	15241
920.488	15043
920.598	15355
920.708	15435
920.818	15302
920.928	15382
921.038	15530
921.148	15367
921.258	15161
921.368	15036
921.477	14918
921.587	14891
921.697	14792
921.806	14880
921.916	14750
922.025	14556
922.134	14564
922.244	14503
922.353	14571
922.462	14400
922.571	14332
922.68	14195
922.789	14187
922.898	14252
923.007	14065
923.116	14244
923.224	14172
923.333	14138
923.442	14016
923.55	13978
923.659	13936
923.767	13967
923.876	13936
923.984	14035
924.092	13879
924.201	13917
924.309	13822
924.417	13837
924.525	13845
924.633	13879
924.741	14682
924.849	13666
924.956	13807
925.064	13624
925.172	13499
925.279	13571
925.387	13567
925.494	13582
925.602	13689
925.709	13605
925.816	13407
925.924	13521
926.031	13552
926.138	13487
926.245	13510
926.352	13362
926.459	13544
926.566	13499
926.673	13388
926.779	13297
926.886	13240
926.993	13095
927.099	13129
927.206	13042
927.312	13061
927.419	13164
927.525	13019
927.631	13099
927.737	12993
927.843	12920
927.95	12837
928.056	12939
928.162	12905
928.267	12951
928.373	13575
928.479	13053
928.585	12658
928.69	12890
928.796	12878
928.901	12814
929.007	12650
929.112	12787
929.218	12631
929.323	12627
929.428	12566
929.533	12639
929.638	12471
929.743	12525
929.848	12517
929.953	12540
930.058	12422
930.163	12369
930.267	12292
930.372	12414
930.477	12254
930.581	12479
930.685	12292
930.79	12133
930.894	12235
930.998	12197
931.103	12350
931.207	11893
931.311	11889
931.415	11718
931.519	11471
931.623	11562
