Data from test_V78500241_3558.txt Node
Date: Fri Mar 25 16:06:26 CST 2022
User: usil
Spectrometer: V785-0024
Trigger mode: 0
Integration Time (sec): 4.000000E-1
Scans to average: 1
Nonlinearity correction enabled: false
Boxcar width: 0
Storing dark spectrum: false
XAxis mode: Wavelengths
Number of Pixels in Spectrum: 1024
>>>>>Begin Spectral Data<<<<<
801.071	28942
801.214	28923
801.356	28717
801.499	28656
801.641	28436
801.783	28466
801.926	28607
802.068	28588
802.211	28428
802.353	28531
802.496	28314
802.638	28204
802.78	28185
802.923	28169
803.065	28090
803.208	28226
803.35	28272
803.492	28276
803.635	28527
803.777	28489
803.919	28481
804.061	28843
804.204	28493
804.346	28432
804.488	28421
804.63	28413
804.773	28455
804.915	28512
805.057	28584
805.199	28409
805.341	28550
805.483	28653
805.626	28561
805.768	28538
805.91	28668
806.052	28706
806.194	28561
806.336	28744
806.478	28725
806.62	28698
806.762	28725
806.904	28949
807.046	29170
807.188	29025
807.33	29124
807.472	29246
807.614	29113
807.756	29083
807.898	28984
808.04	28858
808.182	28797
808.324	29147
808.465	28946
808.607	29136
808.749	29455
808.891	29337
809.033	29463
809.174	29315
809.316	29261
809.458	29379
809.6	29368
809.741	29528
809.883	29524
810.025	29710
810.166	29566
810.308	29589
810.45	29630
810.591	29524
810.733	29425
810.875	29471
811.016	29227
811.158	29356
811.299	29337
811.441	29429
811.582	29543
811.724	29368
811.865	29356
812.007	29379
812.148	29307
812.29	29493
812.431	29486
812.573	29760
812.714	29878
812.855	29828
812.997	29999
813.138	30201
813.279	30041
813.421	29977
813.562	29748
813.703	29786
813.845	29646
813.986	29368
814.127	29170
814.268	29022
814.41	29064
814.551	29094
814.692	29136
814.833	29022
814.974	29067
815.115	29086
815.256	29044
815.397	28896
815.539	28953
815.68	28908
815.821	28778
815.962	28809
816.103	28946
816.244	28717
816.385	28596
816.526	28721
816.666	28542
816.807	28401
816.948	28497
817.089	28500
817.23	28379
817.371	28333
817.512	28265
817.653	28303
817.793	28215
817.934	28348
818.075	28375
818.216	28299
818.356	28390
818.497	28333
818.638	28192
818.778	28086
818.919	28109
819.06	28371
819.2	28284
819.341	28280
819.481	28436
819.622	28653
819.762	28733
819.903	28877
820.043	28786
820.184	28561
820.324	28466
820.465	28557
820.605	28550
820.746	28462
820.886	28421
821.026	28485
821.167	28516
821.307	28577
821.447	28424
821.588	28348
821.728	28181
821.868	28063
822.008	27930
822.149	27838
822.289	27876
822.429	27625
822.569	27622
822.709	27568
822.849	27492
822.99	27545
823.13	27291
823.27	27233
823.41	27138
823.55	27135
823.69	27336
823.83	27169
823.97	27207
824.11	27020
824.25	26952
824.389	27131
824.529	27085
824.669	26998
824.809	27192
824.949	27180
825.089	27074
825.228	27096
825.368	26826
825.508	26891
825.648	26929
825.787	26998
825.927	26963
826.067	26845
826.206	26910
826.346	27112
826.485	27043
826.625	26944
826.765	26994
826.904	26979
827.044	26754
827.183	26781
827.323	26564
827.462	26720
827.601	26777
827.741	26613
827.88	26785
828.02	26537
828.159	26442
828.298	26587
828.437	26701
828.577	26606
828.716	26765
828.855	26602
828.994	26301
829.134	26271
829.273	26370
829.412	26294
829.551	26275
829.69	26385
829.829	26396
829.968	26476
830.107	26396
830.246	26317
830.385	26271
830.524	26275
830.663	26168
830.802	26195
830.941	25997
831.08	25902
831.219	26043
831.357	26081
831.496	26164
831.635	25928
831.774	25803
831.913	25784
832.051	25849
832.19	25780
832.329	25776
832.467	25666
832.606	25662
832.744	25605
832.883	25582
833.022	25563
833.16	25510
833.299	25620
833.437	25594
833.576	25647
833.714	25639
833.852	25719
833.991	25674
834.129	25860
834.267	25719
834.406	25750
834.544	25457
834.682	25685
834.821	25685
834.959	25803
835.097	25616
835.235	25639
835.373	25628
835.511	25689
835.65	25609
835.788	25655
835.926	25312
836.064	25350
836.202	25232
836.34	25499
836.478	25556
836.615	25449
836.753	25434
836.891	25670
837.029	25491
837.167	25365
837.305	25430
837.443	25415
837.58	25324
837.718	25304
837.856	25369
837.993	25278
838.131	25282
838.269	25198
838.406	25164
838.544	25160
838.681	24928
838.819	24886
838.956	24848
839.094	24764
839.231	24844
839.369	24958
839.506	25346
839.643	25084
839.781	24741
839.918	24844
840.055	24848
840.193	24776
840.33	24734
840.467	24772
840.604	24764
840.742	24920
840.879	24616
841.016	24757
841.153	24688
841.29	24757
841.427	24650
841.564	24776
841.701	24620
841.838	24650
841.975	24623
842.112	24700
842.249	24528
842.385	24353
842.522	24715
842.659	24509
842.796	24429
842.933	24464
843.069	24441
843.206	24342
843.343	24627
843.479	24490
843.616	24536
843.752	24323
843.889	24300
844.025	24426
844.162	24182
844.298	24346
844.435	24292
844.571	24209
844.708	24224
844.844	24418
844.98	24418
845.117	24414
845.253	24205
845.389	24091
845.525	24098
845.661	24102
845.798	24018
845.934	23980
846.07	23969
846.206	24098
846.342	24106
846.478	23923
846.614	23783
846.75	23634
846.886	23623
847.022	23794
847.158	23676
847.294	23756
847.429	23676
847.565	23547
847.701	24072
847.837	23448
847.972	23414
848.108	23425
848.244	23356
848.379	23307
848.515	23254
848.65	23227
848.786	23181
848.921	23265
849.057	23433
849.192	23337
849.328	23288
849.463	23258
849.598	23284
849.734	23174
849.869	23227
850.004	23121
850.14	23083
850.275	23162
850.41	23067
850.545	22957
850.68	23136
850.815	23140
850.95	23071
851.085	23246
851.22	23181
851.355	23079
851.49	23067
851.625	22934
851.76	22946
851.895	22957
852.03	23022
852.165	23029
852.299	23159
852.434	23037
852.569	23003
852.703	23143
852.838	23109
852.973	23178
853.107	23136
853.242	23044
853.376	22824
853.511	22828
853.645	22740
853.78	22987
853.914	22805
854.048	22797
854.183	22793
854.317	22930
854.451	23109
854.585	22828
854.72	22961
854.854	22957
854.988	22717
855.122	22877
855.256	22729
855.39	22904
855.524	23006
855.658	22949
855.792	22850
855.926	22881
856.06	22965
856.194	22934
856.327	22877
856.461	22984
856.595	22687
856.729	22843
856.862	22896
856.996	22908
857.13	22987
857.263	23056
857.397	22961
857.53	22862
857.664	22957
857.797	22793
857.931	23109
858.064	22946
858.197	22911
858.331	22881
858.464	22725
858.597	22691
858.731	22801
858.864	22885
858.997	22877
859.13	22911
859.263	22873
859.396	22968
859.529	22824
859.662	22767
859.795	22911
859.928	22805
860.061	23083
860.194	23041
860.327	23014
860.46	22984
860.592	22949
860.725	23052
860.858	22957
860.99	22820
861.123	22904
861.256	22934
861.388	22873
861.521	23592
861.653	22721
861.786	22607
861.918	22702
862.05	22801
862.183	22831
862.315	22896
862.447	22820
862.58	22767
862.712	22668
862.844	22596
862.976	22687
863.108	22565
863.24	23102
863.372	22447
863.504	22538
863.636	22493
863.768	22557
863.9	22538
864.032	22500
864.164	22538
864.296	22618
864.428	22740
864.559	22603
864.691	22660
864.823	22603
864.954	22580
865.086	22489
865.217	22447
865.349	22325
865.48	22455
865.612	22390
865.743	22679
865.875	22508
866.006	22508
866.137	22390
866.269	22390
866.4	22554
866.531	22344
866.662	22276
866.793	22348
866.924	22356
867.055	22481
867.186	22382
867.317	22337
867.448	22337
867.579	22363
867.71	22344
867.841	22268
867.972	22344
868.103	22398
868.233	22371
868.364	22447
868.495	22497
868.625	22607
868.756	22641
868.886	22538
869.017	22565
869.147	22698
869.278	22710
869.408	22584
869.539	22637
869.669	22668
869.799	22649
869.929	22740
870.06	22611
870.19	22801
870.32	23018
870.45	22957
870.58	22828
870.71	23041
870.84	23060
870.97	22995
871.1	23025
871.23	23159
871.36	23113
871.489	23090
871.619	23109
871.749	23159
871.879	23136
872.008	23299
872.138	23258
872.267	23200
872.397	23029
872.526	22885
872.656	23044
872.785	23014
872.915	23216
873.044	23337
873.173	23109
873.303	23261
873.432	23178
873.561	23242
873.69	23337
873.819	23197
873.948	23204
874.077	23360
874.206	23246
874.335	23185
874.464	23261
874.593	23421
874.722	23391
874.851	23417
874.979	23436
875.108	23493
875.237	23349
875.365	23239
875.494	23353
875.623	23467
875.751	23463
875.88	23391
876.008	23528
876.136	23630
876.265	23859
876.393	23965
876.521	23859
876.65	23897
876.778	23912
876.906	23821
877.034	23710
877.162	23676
877.29	23653
877.418	23687
877.546	23771
877.674	23764
877.802	23809
877.93	23824
878.058	23676
878.185	23623
878.313	23714
878.441	23798
878.568	23562
878.696	23767
878.824	23714
878.951	23817
879.079	23939
879.206	23999
879.333	23874
879.461	23775
879.588	23775
879.715	23992
879.842	24087
879.97	23878
880.097	23589
880.224	23623
880.351	23634
880.478	23596
880.605	23528
880.732	23558
880.859	23920
880.986	23680
881.112	23600
881.239	23493
881.366	23337
881.493	23227
881.619	23143
881.746	23189
881.872	23113
881.999	23079
882.125	23086
882.252	23109
882.378	23075
882.505	23170
882.631	22999
882.757	22847
882.883	23006
883.01	22816
883.136	22748
883.262	22599
883.388	22637
883.514	22953
883.64	22782
883.766	22679
883.892	22493
884.018	22668
884.143	22694
884.269	22763
884.395	22519
884.52	22371
884.646	22504
884.772	22352
884.897	22367
885.023	22440
885.148	22443
885.274	22626
885.399	22554
885.524	22432
885.65	22451
885.775	22592
885.9	22462
886.025	22500
886.15	22436
886.275	22478
886.4	22447
886.525	22447
886.65	22291
886.775	22379
886.9	22508
887.025	22485
887.149	22299
887.274	22329
887.399	22029
887.523	22318
887.648	22150
887.773	22109
887.897	22249
888.021	22185
888.146	22230
888.27	22284
888.395	22287
888.519	22318
888.643	22242
888.767	22124
888.891	22185
889.015	22021
889.139	21994
889.263	21941
889.387	22055
889.511	22147
889.635	21994
889.759	22013
889.883	21975
890.006	21983
890.13	21968
890.254	21892
890.377	21682
890.501	21743
890.624	21717
890.748	21747
890.871	21557
890.995	21580
891.118	21538
891.241	21473
891.364	21523
891.488	21614
891.611	21610
891.734	21568
891.857	21561
891.98	21523
892.103	21599
892.226	21507
892.349	21412
892.471	21298
892.594	21435
892.717	21408
892.839	21279
892.962	21435
893.085	21568
893.207	21401
893.33	21294
893.452	21321
893.575	21462
893.697	21401
893.819	21561
893.941	21545
894.064	21458
894.186	21355
894.308	21241
894.43	21435
894.552	21458
894.674	21481
894.796	21313
894.918	21291
895.04	21351
895.161	21469
895.283	21469
895.405	21336
895.526	21359
895.648	21363
895.769	21450
895.891	21382
896.012	21340
896.134	21370
896.255	21249
896.376	21283
896.498	21344
896.619	21397
896.74	21435
896.861	21469
896.982	21694
897.103	21831
897.224	21618
897.345	21545
897.466	21534
897.587	21641
897.708	21728
897.828	21576
897.949	21549
898.07	21447
898.19	21424
898.311	21595
898.431	21534
898.552	21492
898.672	21625
898.792	21682
898.913	21622
899.033	21462
899.153	21325
899.273	21135
899.393	21195
899.513	21332
899.633	21428
899.753	21256
899.873	21241
899.993	21367
900.113	21275
900.232	21268
900.352	21104
900.472	21093
900.591	21165
900.711	21123
900.83	20826
900.95	21180
901.069	21089
901.189	21009
901.308	20731
901.427	20640
901.546	20636
901.665	20644
901.784	20625
901.904	20454
902.023	20412
902.141	20187
902.26	20195
902.379	20278
902.498	20065
902.617	20043
902.735	20065
902.854	20077
902.973	20012
903.091	19750
903.21	19776
903.328	19811
903.446	19597
903.565	19552
903.683	19655
903.801	19514
903.919	19525
904.038	19521
904.156	19400
904.274	19331
904.392	19335
904.51	19213
904.627	19365
904.745	19400
904.863	19358
904.981	19118
905.098	18928
905.216	18985
905.334	19069
905.451	18981
905.569	18966
905.686	19065
905.803	19008
905.921	18821
906.038	18833
906.155	18738
906.272	18593
906.389	18692
906.506	18464
906.623	18494
906.74	18604
906.857	18399
906.974	18498
907.091	18593
907.208	18627
907.324	18631
907.441	18388
907.557	18220
907.674	18247
907.79	18266
907.907	18209
908.023	18209
908.139	18209
908.256	18041
908.372	18045
908.488	18072
908.604	17980
908.72	17798
908.836	17912
908.952	17901
909.068	17950
909.184	17954
909.3	17859
909.415	17878
909.531	17897
909.647	17695
909.762	17733
909.878	17600
909.993	17604
910.108	17630
910.224	17551
910.339	17478
910.454	17463
910.57	17444
910.685	17334
910.8	17748
910.915	17551
911.03	17364
911.145	17296
911.259	17216
911.374	17151
911.489	17121
911.604	17014
911.718	16957
911.833	16991
911.947	16740
912.062	16752
912.176	16896
912.291	16995
912.405	16949
912.519	17159
912.633	17121
912.748	16987
912.862	16927
912.976	16831
913.09	16660
913.204	16656
913.318	16816
913.431	16812
913.545	16786
913.659	16778
913.772	16729
913.886	16565
914	16474
914.113	16622
914.226	16668
914.34	16573
914.453	16394
914.566	16523
914.68	16390
914.793	16478
914.906	16200
915.019	16139
915.132	16048
915.245	16093
915.358	16185
915.47	16143
915.583	16150
915.696	16097
915.809	16154
915.921	16177
916.034	15991
916.146	15975
916.259	16006
916.371	16013
916.483	16002
916.595	15941
916.708	15968
916.82	15903
916.932	15827
917.044	15895
917.156	15812
917.268	15747
917.38	15804
917.491	15610
917.603	15682
917.715	15808
917.826	15778
917.938	15671
918.049	15545
918.161	15732
918.272	15800
918.384	15682
918.495	15622
918.606	15496
918.717	15408
918.828	15542
918.939	15488
919.05	15428
919.161	15466
919.272	15245
919.383	15291
919.494	15466
919.604	15618
919.715	15408
919.826	15428
919.936	15462
920.047	15469
920.157	15310
920.267	15568
920.378	15370
920.488	15321
920.598	15530
920.708	15637
920.818	15629
920.928	15492
921.038	15629
921.148	15599
921.258	15294
921.368	15317
921.477	15142
921.587	15093
921.697	15005
921.806	15085
921.916	14929
922.025	14788
922.134	14754
922.244	14663
922.353	14823
922.462	14682
922.571	14518
922.68	14396
922.789	14454
922.898	14488
923.007	14343
923.116	14374
923.224	14404
923.333	14339
923.442	14271
923.55	14225
923.659	14168
923.767	14351
923.876	14157
923.984	14240
924.092	14065
924.201	14096
924.309	14187
924.417	14016
924.525	14016
924.633	14046
924.741	14910
924.849	13860
924.956	13978
925.064	13811
925.172	13696
925.279	13704
925.387	13769
925.494	13712
925.602	13841
925.709	13799
925.816	13590
925.924	13620
926.031	13814
926.138	13655
926.245	13693
926.352	13518
926.459	13674
926.566	13746
926.673	13655
926.779	13480
926.886	13533
926.993	13396
927.099	13460
927.206	13259
927.312	13206
927.419	13312
927.525	13183
927.631	13312
927.737	13145
927.843	13152
927.95	13019
928.056	13084
928.162	13149
928.267	13114
928.373	13677
928.479	13156
928.585	12890
928.69	13065
928.796	13065
928.901	12996
929.007	12814
929.112	12920
929.218	12833
929.323	12871
929.428	12772
929.533	12913
929.638	12738
929.743	12787
929.848	12722
929.953	12764
930.058	12688
930.163	12467
930.267	12509
930.372	12570
930.477	12414
930.581	12578
930.685	12483
930.79	12369
930.894	12391
930.998	12311
931.103	12426
931.207	12125
931.311	12068
931.415	11931
931.519	11657
931.623	11672
