Data from test_V78500241_331.txt Node
Date: Fri Mar 25 15:44:05 CST 2022
User: usil
Spectrometer: V785-0024
Trigger mode: 0
Integration Time (sec): 4.000000E-1
Scans to average: 1
Nonlinearity correction enabled: false
Boxcar width: 0
Storing dark spectrum: false
XAxis mode: Wavelengths
Number of Pixels in Spectrum: 1024
>>>>>Begin Spectral Data<<<<<
801.071	29885
801.214	29942
801.356	29459
801.499	29562
801.641	29531
801.783	29490
801.926	29600
802.068	29482
802.211	29197
802.353	29303
802.496	29132
802.638	29079
802.78	29025
802.923	28984
803.065	29029
803.208	29033
803.35	29216
803.492	29212
803.635	29086
803.777	29189
803.919	29307
804.061	29623
804.204	29383
804.346	29379
804.488	29341
804.63	29360
804.773	29239
804.915	29334
805.057	29493
805.199	29299
805.341	29372
805.483	29581
805.626	29512
805.768	29318
805.91	29391
806.052	29444
806.194	29368
806.336	29509
806.478	29585
806.62	29292
806.762	29524
806.904	29691
807.046	29920
807.188	29935
807.33	29821
807.472	29920
807.614	29691
807.756	29817
807.898	29649
808.04	29684
808.182	29596
808.324	29775
808.465	29668
808.607	29862
808.749	30159
808.891	30155
809.033	30239
809.174	30125
809.316	30045
809.458	30053
809.6	30064
809.741	30251
809.883	30327
810.025	30308
810.166	30365
810.308	30334
810.45	30308
810.591	30429
810.733	30129
810.875	30083
811.016	30083
811.158	30003
811.299	30365
811.441	30380
811.582	30353
811.724	30178
811.865	30216
812.007	30011
812.148	30140
812.29	30053
812.431	30178
812.573	30353
812.714	30498
812.855	30612
812.997	30814
813.138	30928
813.279	30783
813.421	30661
813.562	30669
813.703	30452
813.845	30281
813.986	30083
814.127	29927
814.268	29824
814.41	29756
814.551	29566
814.692	29946
814.833	29653
814.974	29771
815.115	29760
815.256	29592
815.397	29551
815.539	29653
815.68	29642
815.821	29566
815.962	29543
816.103	29520
816.244	29444
816.385	29296
816.526	29318
816.666	29121
816.807	29025
816.948	28976
817.089	29261
817.23	29098
817.371	29037
817.512	28987
817.653	28984
817.793	29010
817.934	29022
818.075	29037
818.216	29083
818.356	28892
818.497	28980
818.638	28660
818.778	28771
818.919	28694
819.06	28740
819.2	28888
819.341	29018
819.481	29003
819.622	29105
819.762	29334
819.903	29402
820.043	29181
820.184	29151
820.324	28904
820.465	29159
820.605	29094
820.746	28995
820.886	29079
821.026	29124
821.167	28976
821.307	29155
821.447	29029
821.588	28934
821.728	28736
821.868	28603
822.008	28424
822.149	28379
822.289	28443
822.429	28166
822.569	28242
822.709	27994
822.849	28017
822.99	28025
823.13	27850
823.27	27846
823.41	27549
823.55	27534
823.69	27747
823.83	27686
823.97	27534
824.11	27572
824.25	27549
824.389	27545
824.529	27690
824.669	27576
824.809	27644
824.949	27542
825.089	27523
825.228	27549
825.368	27435
825.508	27313
825.648	27332
825.787	27370
825.927	27462
826.067	27317
826.206	27351
826.346	27306
826.485	27435
826.625	27378
826.765	27424
826.904	27397
827.044	27142
827.183	27214
827.323	27180
827.462	27104
827.601	27055
827.741	26971
827.88	27199
828.02	27001
828.159	27043
828.298	26982
828.437	27173
828.577	26887
828.716	27112
828.855	26940
828.994	26689
829.134	26667
829.273	26811
829.412	26716
829.551	26678
829.69	26727
829.829	26727
829.968	26765
830.107	26621
830.246	26716
830.385	26727
830.524	26667
830.663	26495
830.802	26495
830.941	26438
831.08	26191
831.219	26256
831.357	26442
831.496	26461
831.635	26225
831.774	26172
831.913	26176
832.051	26218
832.19	26096
832.329	26149
832.467	26001
832.606	25947
832.744	25944
832.883	25852
833.022	25913
833.16	25932
833.299	25955
833.437	25928
833.576	25966
833.714	25951
833.852	25940
833.991	25989
834.129	26065
834.267	26050
834.406	25868
834.544	26142
834.682	25909
834.821	25822
834.959	25989
835.097	25940
835.235	26035
835.373	25826
835.511	25898
835.65	25784
835.788	25788
835.926	25635
836.064	25666
836.202	25765
836.34	25784
836.478	25894
836.615	25803
836.753	25704
836.891	25772
837.029	25696
837.167	25670
837.305	25597
837.443	25635
837.58	25502
837.718	25674
837.856	25529
837.993	25407
838.131	25613
838.269	25419
838.406	25460
838.544	25483
838.681	25110
838.819	25282
838.956	24996
839.094	24977
839.231	25065
839.369	25171
839.506	25407
839.643	25221
839.781	24920
839.918	24970
840.055	24935
840.193	24985
840.33	24810
840.467	24909
840.604	25057
840.742	25206
840.879	24772
841.016	24928
841.153	24837
841.29	25031
841.427	24840
841.564	24798
841.701	24901
841.838	24787
841.975	24779
842.112	24810
842.249	24650
842.385	24570
842.522	24722
842.659	24631
842.796	24441
842.933	24597
843.069	24601
843.206	24509
843.343	24639
843.479	24547
843.616	24574
843.752	24334
843.889	24422
844.025	24399
844.162	24369
844.298	24452
844.435	24254
844.571	24334
844.708	24350
844.844	24460
844.98	24323
845.117	24494
845.253	24266
845.389	24144
845.525	24281
845.661	24174
845.798	23969
845.934	24136
846.07	24007
846.206	23969
846.342	24300
846.478	24106
846.614	23798
846.75	23707
846.886	23756
847.022	23805
847.158	23889
847.294	23676
847.429	23649
847.565	23687
847.701	23931
847.837	23455
847.972	23299
848.108	23531
848.244	23501
848.379	23349
848.515	23334
848.65	23318
848.786	23360
848.921	23250
849.057	23395
849.192	23356
849.328	23368
849.463	23299
849.598	23292
849.734	23220
849.869	23033
850.004	23143
850.14	23136
850.275	22957
850.41	22972
850.545	22957
850.68	22980
850.815	23105
850.95	23010
851.085	23220
851.22	23162
851.355	22957
851.49	23018
851.625	22930
851.76	23075
851.895	22987
852.03	22904
852.165	23098
852.299	23132
852.434	23197
852.569	22991
852.703	23018
852.838	23033
852.973	23056
853.107	23159
853.242	23048
853.376	22866
853.511	22767
853.645	22828
853.78	23018
853.914	22854
854.048	22698
854.183	22786
854.317	22923
854.451	22908
854.585	22816
854.72	22850
854.854	22908
854.988	22774
855.122	22869
855.256	22771
855.39	22786
855.524	22999
855.658	22759
855.792	22805
855.926	22733
856.06	22793
856.194	22908
856.327	22721
856.461	22744
856.595	22771
856.729	22759
856.862	22957
856.996	22820
857.13	22839
857.263	22976
857.397	22869
857.53	22839
857.664	22866
857.797	22908
857.931	23029
858.064	22938
858.197	22831
858.331	22858
858.464	22820
858.597	22782
858.731	22710
858.864	22717
858.997	22755
859.13	22733
859.263	22801
859.396	22904
859.529	22774
859.662	22778
859.795	22824
859.928	22759
860.061	22995
860.194	23064
860.327	22847
860.46	22748
860.592	22786
860.725	22946
860.858	22961
860.99	22831
861.123	22630
861.256	22649
861.388	22733
861.521	23531
861.653	22729
861.786	22588
861.918	22725
862.05	22694
862.183	22774
862.315	22664
862.447	22801
862.58	22771
862.712	22519
862.844	22519
862.976	22664
863.108	22626
863.24	22919
863.372	22379
863.504	22508
863.636	22394
863.768	22481
863.9	22390
864.032	22272
864.164	22443
864.296	22386
864.428	22409
864.559	22538
864.691	22417
864.823	22538
864.954	22322
865.086	22367
865.217	22306
865.349	22329
865.48	22230
865.612	22382
865.743	22470
865.875	22348
866.006	22295
866.137	22344
866.269	22329
866.4	22261
866.531	22211
866.662	22215
866.793	22177
866.924	22246
867.055	22318
867.186	22268
867.317	22253
867.448	22196
867.579	22249
867.71	22116
867.841	22150
867.972	22280
868.103	22230
868.233	22253
868.364	22280
868.495	22337
868.625	22478
868.756	22630
868.886	22436
869.017	22542
869.147	22618
869.278	22634
869.408	22527
869.539	22527
869.669	22527
869.799	22527
869.929	22645
870.06	22694
870.19	22713
870.32	22778
870.45	22729
870.58	22923
870.71	23010
870.84	22976
870.97	22809
871.1	22797
871.23	23185
871.36	23090
871.489	22972
871.619	23018
871.749	22987
871.879	23037
872.008	23147
872.138	23155
872.267	22968
872.397	23018
872.526	22919
872.656	22984
872.785	22908
872.915	23140
873.044	23121
873.173	23025
873.303	23090
873.432	23265
873.561	23162
873.69	23174
873.819	23117
873.948	23185
874.077	23109
874.206	22961
874.335	23086
874.464	23155
874.593	23284
874.722	23261
874.851	23360
874.979	23341
875.108	23391
875.237	23273
875.365	23174
875.494	23364
875.623	23284
875.751	23311
875.88	23326
876.008	23406
876.136	23455
876.265	23775
876.393	23714
876.521	23722
876.65	23866
876.778	23646
876.906	23646
877.034	23672
877.162	23646
877.29	23699
877.418	23604
877.546	23722
877.674	23638
877.802	23520
877.93	23676
878.058	23680
878.185	23520
878.313	23520
878.441	23699
878.568	23406
878.696	23520
878.824	23596
878.951	23733
879.079	23893
879.206	23969
879.333	23779
879.461	23665
879.588	23870
879.715	23798
879.842	23893
879.97	23661
880.097	23379
880.224	23600
880.351	23452
880.478	23543
880.605	23421
880.732	23493
880.859	23836
880.986	23486
881.112	23497
881.239	23284
881.366	23185
881.493	23124
881.619	22961
881.746	22991
881.872	22987
881.999	23075
882.125	23010
882.252	23071
882.378	23067
882.505	23083
882.631	22908
882.757	22816
882.883	22892
883.01	22721
883.136	22736
883.262	22626
883.388	22656
883.514	22713
883.64	22771
883.766	22706
883.892	22459
884.018	22493
884.143	22717
884.269	22790
884.395	22478
884.52	22196
884.646	22390
884.772	22291
884.897	22246
885.023	22363
885.148	22417
885.274	22577
885.399	22432
885.524	22363
885.65	22367
885.775	22409
885.9	22402
886.025	22489
886.15	22436
886.275	22363
886.4	22188
886.525	22333
886.65	22337
886.775	22287
886.9	22466
887.025	22512
887.149	22344
887.274	22177
887.399	22131
887.523	22215
887.648	22143
887.773	22010
887.897	22192
888.021	22082
888.146	22010
888.27	22185
888.395	22177
888.519	22109
888.643	22021
888.767	22154
888.891	21964
889.015	21937
889.139	21926
889.263	21819
889.387	22124
889.511	22109
889.635	21869
889.759	21785
889.883	21835
890.006	21842
890.13	21876
890.254	21762
890.377	21937
890.501	21644
890.624	21557
890.748	21720
890.871	21523
890.995	21367
891.118	21332
891.241	21481
891.364	21431
891.488	21576
891.611	21443
891.734	21504
891.857	21701
891.98	21416
892.103	21492
892.226	21412
892.349	21329
892.471	21146
892.594	21367
892.717	21298
892.839	21374
892.962	21492
893.085	21416
893.207	21268
893.33	21207
893.452	21230
893.575	21355
893.697	21272
893.819	21481
893.941	21485
894.064	21382
894.186	21386
894.308	21256
894.43	21477
894.552	21466
894.674	21188
894.796	21252
894.918	21192
895.04	21252
895.161	21298
895.283	21310
895.405	21135
895.526	21294
895.648	21233
895.769	21321
895.891	21435
896.012	21500
896.134	21275
896.255	21294
896.376	21329
896.498	21260
896.619	21393
896.74	21252
896.861	21374
896.982	21481
897.103	21823
897.224	21580
897.345	21618
897.466	21420
897.587	21610
897.708	21641
897.828	21637
897.949	21439
898.07	21268
898.19	21412
898.311	21466
898.431	21393
898.552	21534
898.672	21401
898.792	21576
898.913	21492
899.033	21378
899.153	21272
899.273	21104
899.393	21226
899.513	21405
899.633	21173
899.753	21089
899.873	20986
899.993	21230
900.113	21104
900.232	21009
900.352	20994
900.472	20982
900.591	20876
900.711	20967
900.83	20864
900.95	21108
901.069	21081
901.189	20925
901.308	20697
901.427	20461
901.546	20571
901.665	20526
901.784	20511
901.904	20324
902.023	20275
902.141	20126
902.26	20027
902.379	20119
902.498	19951
902.617	20020
902.735	20077
902.854	20001
902.973	19906
903.091	19727
903.21	19677
903.328	19704
903.446	19548
903.565	19472
903.683	19449
903.801	19228
903.919	19388
904.038	19388
904.156	19232
904.274	19301
904.392	19202
904.51	19187
904.627	19247
904.745	19240
904.863	19198
904.981	19038
905.098	18863
905.216	18840
905.334	18920
905.451	18757
905.569	18852
905.686	18947
905.803	18806
905.921	18646
906.038	18882
906.155	18612
906.272	18445
906.389	18479
906.506	18338
906.623	18483
906.74	18365
906.857	18304
906.974	18266
907.091	18357
907.208	18528
907.324	18410
907.441	18277
907.557	17980
907.674	18026
907.79	18068
907.907	18098
908.023	18102
908.139	18030
908.256	18011
908.372	18015
908.488	17889
908.604	17794
908.72	17760
908.836	17802
908.952	17695
909.068	17843
909.184	17805
909.3	17843
909.415	17767
909.531	17684
909.647	17497
909.762	17551
909.878	17486
909.993	17455
910.108	17398
910.224	17296
910.339	17497
910.454	17223
910.57	17197
910.685	17242
910.8	17414
910.915	17509
911.03	17258
911.145	16976
911.259	17071
911.374	17052
911.489	17014
911.604	16957
911.718	16721
911.833	16843
911.947	16801
912.062	16596
912.176	16862
912.291	16740
912.405	16740
912.519	16881
912.633	16885
912.748	16687
912.862	16691
912.976	16637
913.09	16386
913.204	16538
913.318	16561
913.431	16580
913.545	16618
913.659	16656
913.772	16512
913.886	16382
914	16276
914.113	16474
914.226	16531
914.34	16360
914.453	16265
914.566	16322
914.68	16173
914.793	16158
914.906	15983
915.019	15972
915.132	15903
915.245	15956
915.358	16006
915.47	15922
915.583	15918
915.696	15937
915.809	16086
915.921	15994
916.034	15949
916.146	15842
916.259	15766
916.371	15895
916.483	15797
916.595	15755
916.708	15743
916.82	15633
916.932	15675
917.044	15682
917.156	15610
917.268	15492
917.38	15534
917.491	15507
917.603	15625
917.715	15561
917.826	15603
917.938	15549
918.049	15344
918.161	15382
918.272	15717
918.384	15561
918.495	15450
918.606	15329
918.717	15173
918.828	15291
918.939	15370
919.05	15192
919.161	15241
919.272	14960
919.383	15097
919.494	15260
919.604	15405
919.715	15249
919.826	15093
919.936	15211
920.047	15275
920.157	15184
920.267	15336
920.378	15176
920.488	15104
920.598	15382
920.708	15553
920.818	15241
920.928	15249
921.038	15443
921.148	15405
921.258	15184
921.368	15085
921.477	14971
921.587	14883
921.697	14765
921.806	14899
921.916	14853
922.025	14587
922.134	14571
922.244	14465
922.353	14537
922.462	14514
922.571	14385
922.68	14221
922.789	14142
922.898	14240
923.007	14145
923.116	14187
923.224	14138
923.333	14088
923.442	13982
923.55	13906
923.659	13936
923.767	14035
923.876	13898
923.984	13967
924.092	13944
924.201	13967
924.309	13970
924.417	13894
924.525	13833
924.633	13868
924.741	14621
924.849	13616
924.956	13788
925.064	13609
925.172	13597
925.279	13575
925.387	13575
925.494	13544
925.602	13647
925.709	13624
925.816	13464
925.924	13651
926.031	13632
926.138	13434
926.245	13468
926.352	13320
926.459	13537
926.566	13381
926.673	13350
926.779	13289
926.886	13228
926.993	13114
927.099	13095
927.206	13012
927.312	13050
927.419	13072
927.525	13091
927.631	13107
927.737	13012
927.843	12947
927.95	12791
928.056	12909
928.162	12985
928.267	12966
928.373	13597
928.479	12935
928.585	12719
928.69	12973
928.796	12871
928.901	12722
929.007	12654
929.112	12840
929.218	12688
929.323	12631
929.428	12547
929.533	12757
929.638	12585
929.743	12593
929.848	12563
929.953	12490
930.058	12384
930.163	12334
930.267	12247
930.372	12380
930.477	12163
930.581	12456
930.685	12334
930.79	12258
930.894	12148
930.998	12034
931.103	12285
931.207	11939
931.311	11790
931.415	11737
931.519	11585
931.623	11520
