Data from test_V78500241_2984.txt Node
Date: Fri Mar 25 16:02:28 CST 2022
User: usil
Spectrometer: V785-0024
Trigger mode: 0
Integration Time (sec): 4.000000E-1
Scans to average: 1
Nonlinearity correction enabled: false
Boxcar width: 0
Storing dark spectrum: false
XAxis mode: Wavelengths
Number of Pixels in Spectrum: 1024
>>>>>Begin Spectral Data<<<<<
801.071	28455
801.214	28314
801.356	28124
801.499	28082
801.641	27865
801.783	27857
801.926	27994
802.068	27854
802.211	27766
802.353	27789
802.496	27701
802.638	27751
802.78	27675
802.923	27496
803.065	27614
803.208	27606
803.35	27709
803.492	27789
803.635	27823
803.777	27831
803.919	27819
804.061	28211
804.204	27755
804.346	27747
804.488	27728
804.63	27869
804.773	27827
804.915	27975
805.057	28090
805.199	27941
805.341	28010
805.483	28025
805.626	27964
805.768	27945
805.91	28055
806.052	28181
806.194	27968
806.336	28261
806.478	28040
806.62	28124
806.762	28162
806.904	28169
807.046	28580
807.188	28417
807.33	28459
807.472	28557
807.614	28413
807.756	28554
807.898	28367
808.04	28215
808.182	28268
808.324	28306
808.465	28413
808.607	28428
808.749	28622
808.891	28782
809.033	28900
809.174	28710
809.316	28691
809.458	28626
809.6	28668
809.741	28759
809.883	28923
810.025	28968
810.166	28790
810.308	29086
810.45	28927
810.591	28938
810.733	28771
810.875	28691
811.016	28584
811.158	28641
811.299	28881
811.441	28786
811.582	28961
811.724	28653
811.865	28637
812.007	28881
812.148	28862
812.29	28729
812.431	29003
812.573	29006
812.714	29246
812.855	29322
812.997	29261
813.138	29524
813.279	29391
813.421	29212
813.562	29364
813.703	29025
813.845	28877
813.986	28546
814.127	28588
814.268	28287
814.41	28542
814.551	28462
814.692	28466
814.833	28318
814.974	28348
815.115	28417
815.256	28356
815.397	28348
815.539	28394
815.68	28177
815.821	28048
815.962	28356
816.103	28211
816.244	28002
816.385	28013
816.526	28036
816.666	27823
816.807	27637
816.948	27724
817.089	27903
817.23	27770
817.371	27785
817.512	27736
817.653	27739
817.793	27720
817.934	27755
818.075	27717
818.216	27644
818.356	27568
818.497	27458
818.638	27431
818.778	27534
818.919	27462
819.06	27576
819.2	27713
819.341	27759
819.481	27717
819.622	27987
819.762	28013
819.903	27975
820.043	27899
820.184	27838
820.324	28025
820.465	27979
820.605	27797
820.746	27953
820.886	27720
821.026	27903
821.167	27918
821.307	27812
821.447	27755
821.588	27660
821.728	27595
821.868	27256
822.008	27214
822.149	27214
822.289	27272
822.429	26944
822.569	26979
822.709	26902
822.849	26819
822.99	26644
823.13	26625
823.27	26788
823.41	26648
823.55	26366
823.69	26495
823.83	26583
823.97	26549
824.11	26412
824.25	26347
824.389	26278
824.529	26438
824.669	26389
824.809	26453
824.949	26305
825.089	26461
825.228	26484
825.368	26256
825.508	26309
825.648	26248
825.787	26225
825.927	26290
826.067	26126
826.206	26286
826.346	26355
826.485	26355
826.625	26320
826.765	26415
826.904	26389
827.044	26077
827.183	26035
827.323	25879
827.462	26008
827.601	26012
827.741	25928
827.88	26115
828.02	25879
828.159	26001
828.298	25856
828.437	26077
828.577	25826
828.716	26054
828.855	25871
828.994	25696
829.134	25715
829.273	25746
829.412	25712
829.551	25658
829.69	25567
829.829	25677
829.968	25639
830.107	25879
830.246	25727
830.385	25571
830.524	25457
830.663	25422
830.802	25240
830.941	25247
831.08	25156
831.219	25194
831.357	25255
831.496	25537
831.635	25316
831.774	25263
831.913	25266
832.051	25160
832.19	25061
832.329	25057
832.467	24905
832.606	24863
832.744	24878
832.883	24802
833.022	24795
833.16	25015
833.299	25031
833.437	24943
833.576	25027
833.714	25027
833.852	25137
833.991	24977
834.129	25103
834.267	25141
834.406	24996
834.544	24966
834.682	25019
834.821	25008
834.959	25107
835.097	24973
835.235	24951
835.373	24913
835.511	25019
835.65	24791
835.788	24871
835.926	24726
836.064	24604
836.202	24620
836.34	24962
836.478	24970
836.615	24745
836.753	24787
836.891	24882
837.029	24840
837.167	24719
837.305	24635
837.443	24620
837.58	24585
837.718	24791
837.856	24654
837.993	24566
838.131	24654
838.269	24467
838.406	24612
838.544	24380
838.681	24281
838.819	24334
838.956	24190
839.094	24087
839.231	24091
839.369	24357
839.506	24437
839.643	24338
839.781	24155
839.918	24045
840.055	24159
840.193	24038
840.33	24106
840.467	24003
840.604	24064
840.742	24194
840.879	23767
841.016	23988
841.153	23916
841.29	24057
841.427	23999
841.564	24201
841.701	23999
841.838	24034
841.975	23939
842.112	23920
842.249	23939
842.385	23813
842.522	24026
842.659	23817
842.796	23840
842.933	23885
843.069	23729
843.206	23722
843.343	23927
843.479	23764
843.616	23714
843.752	23543
843.889	23615
844.025	23748
844.162	23478
844.298	23657
844.435	23558
844.571	23516
844.708	23676
844.844	23741
844.98	23680
845.117	23714
845.253	23551
845.389	23440
845.525	23516
845.661	23330
845.798	23261
845.934	23364
846.07	23223
846.206	23379
846.342	23402
846.478	23250
846.614	23044
846.75	22915
846.886	23003
847.022	23056
847.158	22991
847.294	23132
847.429	23010
847.565	23056
847.701	23185
847.837	22752
847.972	22717
848.108	22854
848.244	22828
848.379	22725
848.515	22607
848.65	22611
848.786	22542
848.921	22573
849.057	22824
849.192	22744
849.328	22557
849.463	22649
849.598	22394
849.734	22493
849.869	22466
850.004	22421
850.14	22280
850.275	22428
850.41	22322
850.545	22481
850.68	22413
850.815	22455
850.95	22314
851.085	22599
851.22	22451
851.355	22322
851.49	22360
851.625	22230
851.76	22352
851.895	22246
852.03	22306
852.165	22356
852.299	22436
852.434	22333
852.569	22402
852.703	22348
852.838	22455
852.973	22432
853.107	22497
853.242	22230
853.376	22211
853.511	22059
853.645	22169
853.78	22268
853.914	22211
854.048	22188
854.183	22226
854.317	22226
854.451	22428
854.585	22246
854.72	22284
854.854	22185
854.988	22177
855.122	22150
855.256	22116
855.39	22280
855.524	22272
855.658	22246
855.792	22177
855.926	22196
856.06	22246
856.194	22272
856.327	22166
856.461	22192
856.595	22150
856.729	22078
856.862	22306
856.996	22325
857.13	22215
857.263	22314
857.397	22295
857.53	22067
857.664	22196
857.797	22257
857.931	22097
858.064	22196
858.197	22363
858.331	22219
858.464	22196
858.597	22181
858.731	22105
858.864	22097
858.997	22226
859.13	22166
859.263	22158
859.396	22215
859.529	22147
859.662	22177
859.795	22097
859.928	22177
860.061	22363
860.194	22455
860.327	22177
860.46	22291
860.592	22284
860.725	22375
860.858	22188
860.99	22249
861.123	22120
861.256	22242
861.388	22139
861.521	22980
861.653	22044
861.786	22017
861.918	21983
862.05	22036
862.183	22074
862.315	22093
862.447	22177
862.58	21956
862.712	21857
862.844	22006
862.976	22063
863.108	21983
863.24	22455
863.372	21880
863.504	21876
863.636	21998
863.768	21934
863.9	22044
864.032	21922
864.164	21755
864.296	21892
864.428	21991
864.559	21991
864.691	21816
864.823	21838
864.954	21911
865.086	21793
865.217	21831
865.349	21720
865.48	21819
865.612	21804
865.743	21907
865.875	21835
866.006	21827
866.137	21717
866.269	21911
866.4	21717
866.531	21781
866.662	21701
866.793	21656
866.924	21774
867.055	21785
867.186	21671
867.317	21641
867.448	21648
867.579	21641
867.71	21705
867.841	21603
867.972	21800
868.103	21648
868.233	21732
868.364	21884
868.495	21720
868.625	21934
868.756	22051
868.886	21838
869.017	22021
869.147	22029
869.278	22101
869.408	21953
869.539	21873
869.669	22025
869.799	22036
869.929	22128
870.06	22025
870.19	22303
870.32	22226
870.45	22318
870.58	22386
870.71	22512
870.84	22394
870.97	22325
871.1	22375
871.23	22561
871.36	22653
871.489	22474
871.619	22577
871.749	22607
871.879	22592
872.008	22637
872.138	22455
872.267	22687
872.397	22348
872.526	22432
872.656	22356
872.785	22371
872.915	22660
873.044	22626
873.173	22637
873.303	22748
873.432	22660
873.561	22698
873.69	22721
873.819	22649
873.948	22736
874.077	22607
874.206	22557
874.335	22527
874.464	22637
874.593	22782
874.722	22873
874.851	22866
874.979	22805
875.108	22896
875.237	22816
875.365	22755
875.494	22877
875.623	23044
875.751	22752
875.88	22885
876.008	22991
876.136	23025
876.265	23254
876.393	23387
876.521	23284
876.65	23383
876.778	23246
876.906	23254
877.034	23105
877.162	23044
877.29	23136
877.418	23124
877.546	23136
877.674	23113
877.802	23113
877.93	23166
878.058	23277
878.185	23117
878.313	23113
878.441	23273
878.568	22919
878.696	23083
878.824	23265
878.951	23227
879.079	23410
879.206	23478
879.333	23455
879.461	23159
879.588	23322
879.715	23296
879.842	23402
879.97	23345
880.097	22930
880.224	22991
880.351	23090
880.478	23006
880.605	22946
880.732	23018
880.859	23132
880.986	23044
881.112	22995
881.239	22915
881.366	22641
881.493	22702
881.619	22565
881.746	22622
881.872	22557
881.999	22557
882.125	22443
882.252	22550
882.378	22516
882.505	22767
882.631	22379
882.757	22265
882.883	22150
883.01	22143
883.136	22131
883.262	22204
883.388	22051
883.514	22306
883.64	22329
883.766	22109
883.892	21945
884.018	22036
884.143	22120
884.269	22257
884.395	21945
884.52	21854
884.646	21953
884.772	21846
884.897	21785
885.023	21888
885.148	21895
885.274	22025
885.399	22040
885.524	21991
885.65	21926
885.775	21899
885.9	21903
886.025	21979
886.15	21922
886.275	21778
886.4	21827
886.525	21869
886.65	21854
886.775	21728
886.9	21991
887.025	22021
887.149	21854
887.274	21694
887.399	21618
887.523	21667
887.648	21603
887.773	21526
887.897	21576
888.021	21736
888.146	21481
888.27	21846
888.395	21667
888.519	21720
888.643	21694
888.767	21660
888.891	21500
889.015	21439
889.139	21485
889.263	21367
889.387	21447
889.511	21603
889.635	21561
889.759	21389
889.883	21332
890.006	21378
890.13	21397
890.254	21367
890.377	21431
890.501	21268
890.624	21173
890.748	21142
890.871	21017
890.995	21024
891.118	20921
891.241	21051
891.364	20975
891.488	21081
891.611	21062
891.734	20902
891.857	20982
891.98	20982
892.103	21001
892.226	20815
892.349	20876
892.471	20849
892.594	20880
892.717	20921
892.839	20906
892.962	20864
893.085	20967
893.207	20906
893.33	20739
893.452	20849
893.575	20868
893.697	20902
893.819	20975
893.941	21017
894.064	20952
894.186	20724
894.308	20876
894.43	21028
894.552	21013
894.674	21005
894.796	20769
894.918	20956
895.04	20864
895.161	20921
895.283	20902
895.405	20845
895.526	20807
895.648	20773
895.769	20880
895.891	20937
896.012	20941
896.134	20902
896.255	20819
896.376	20735
896.498	20914
896.619	20811
896.74	20815
896.861	20906
896.982	21249
897.103	21321
897.224	21249
897.345	21146
897.466	20952
897.587	21165
897.708	21074
897.828	20994
897.949	21096
898.07	20971
898.19	21039
898.311	21070
898.431	21081
898.552	21085
898.672	21112
898.792	21123
898.913	21096
899.033	20990
899.153	20998
899.273	20739
899.393	20842
899.513	20800
899.633	20899
899.753	20769
899.873	20849
899.993	20895
900.113	20659
900.232	20811
900.352	20667
900.472	20587
900.591	20480
900.711	20602
900.83	20617
900.95	20644
901.069	20697
901.189	20473
901.308	20256
901.427	20142
901.546	20073
901.665	20130
901.784	20107
901.904	19978
902.023	19906
902.141	19731
902.26	19605
902.379	19750
902.498	19616
902.617	19605
902.735	19655
902.854	19613
902.973	19502
903.091	19354
903.21	19312
903.328	19221
903.446	19244
903.565	19160
903.683	19183
903.801	18981
903.919	19008
904.038	19076
904.156	18958
904.274	18985
904.392	18810
904.51	18935
904.627	18810
904.745	18951
904.863	18863
904.981	18730
905.098	18582
905.216	18597
905.334	18532
905.451	18559
905.569	18547
905.686	18612
905.803	18532
905.921	18376
906.038	18429
906.155	18369
906.272	18251
906.389	18273
906.506	18106
906.623	18049
906.74	18087
906.857	17980
906.974	18038
907.091	18163
907.208	18201
907.324	18228
907.441	17939
907.557	17851
907.674	17851
907.79	17718
907.907	17714
908.023	17748
908.139	17779
908.256	17767
908.372	17672
908.488	17707
908.604	17585
908.72	17585
908.836	17486
908.952	17474
909.068	17459
909.184	17661
909.3	17414
909.415	17528
909.531	17417
909.647	17197
909.762	17231
909.878	17239
909.993	17223
910.108	17208
910.224	17025
910.339	17147
910.454	17140
910.57	17018
910.685	16862
910.8	17258
910.915	17102
911.03	16892
911.145	16923
911.259	16812
911.374	16786
911.489	16744
911.604	16630
911.718	16542
911.833	16535
911.947	16417
912.062	16402
912.176	16478
912.291	16508
912.405	16531
912.519	16702
912.633	16786
912.748	16569
912.862	16554
912.976	16356
913.09	16219
913.204	16287
913.318	16207
913.431	16497
913.545	16535
913.659	16310
913.772	16242
913.886	16029
914	16044
914.113	16169
914.226	16162
914.34	16105
914.453	15937
914.566	16169
914.68	15972
914.793	16002
914.906	15865
915.019	15660
915.132	15694
915.245	15751
915.358	15679
915.47	15694
915.583	15648
915.696	15732
915.809	15804
915.921	15922
916.034	15694
916.146	15705
916.259	15496
916.371	15804
916.483	15553
916.595	15511
916.708	15515
916.82	15526
916.932	15439
917.044	15439
917.156	15420
917.268	15416
917.38	15367
917.491	15272
917.603	15306
917.715	15374
917.826	15462
917.938	15199
918.049	15249
918.161	15310
918.272	15424
918.384	15447
918.495	15275
918.606	15161
918.717	14982
918.828	15123
918.939	15135
919.05	14925
919.161	15051
919.272	14864
919.383	14883
919.494	15066
919.604	15306
919.715	15028
919.826	14941
919.936	15009
920.047	15077
920.157	15047
920.267	15252
920.378	15085
920.488	14967
920.598	15173
920.708	15279
920.818	15119
920.928	15100
921.038	15298
921.148	15298
921.258	15020
921.368	14880
921.477	14819
921.587	14777
921.697	14590
921.806	14800
921.916	14689
922.025	14423
922.134	14446
922.244	14355
922.353	14355
922.462	14267
922.571	14229
922.68	14058
922.789	14130
922.898	14168
923.007	13951
923.116	14073
923.224	14084
923.333	13967
923.442	13811
923.55	13883
923.659	13830
923.767	14050
923.876	13814
923.984	13833
924.092	13826
924.201	13788
924.309	13780
924.417	13734
924.525	13643
924.633	13731
924.741	14537
924.849	13525
924.956	13613
925.064	13411
925.172	13464
925.279	13445
925.387	13457
925.494	13457
925.602	13521
925.709	13567
925.816	13343
925.924	13373
926.031	13415
926.138	13476
926.245	13430
926.352	13285
926.459	13297
926.566	13460
926.673	13270
926.779	13190
926.886	13114
926.993	12966
927.099	13034
927.206	12905
927.312	12894
927.419	13038
927.525	12924
927.631	12985
927.737	12901
927.843	12776
927.95	12692
928.056	12715
928.162	12764
928.267	12882
928.373	13472
928.479	12814
928.585	12502
928.69	12715
928.796	12776
928.901	12616
929.007	12426
929.112	12703
929.218	12566
929.323	12578
929.428	12521
929.533	12654
929.638	12486
929.743	12479
929.848	12479
929.953	12376
930.058	12289
930.163	12152
930.267	12224
930.372	12285
930.477	12095
930.581	12388
930.685	12171
930.79	11992
930.894	12114
930.998	12026
931.103	12087
931.207	11771
931.311	11771
931.415	11570
931.519	11471
931.623	11471
