Data from test_V78500241_3691.txt Node
Date: Fri Mar 25 16:07:22 CST 2022
User: usil
Spectrometer: V785-0024
Trigger mode: 0
Integration Time (sec): 4.000000E-1
Scans to average: 1
Nonlinearity correction enabled: false
Boxcar width: 0
Storing dark spectrum: false
XAxis mode: Wavelengths
Number of Pixels in Spectrum: 1024
>>>>>Begin Spectral Data<<<<<
801.071	28443
801.214	28322
801.356	28188
801.499	28055
801.641	28010
801.783	28082
801.926	28059
802.068	27991
802.211	27972
802.353	27949
802.496	27793
802.638	27675
802.78	27755
802.923	27580
803.065	27583
803.208	27701
803.35	27606
803.492	27641
803.635	27922
803.777	27785
803.919	27911
804.061	28169
804.204	27911
804.346	27888
804.488	27762
804.63	27819
804.773	27736
804.915	27991
805.057	28010
805.199	27972
805.341	27979
805.483	27991
805.626	28147
805.768	28074
805.91	28013
806.052	28040
806.194	28112
806.336	28265
806.478	28093
806.62	28059
806.762	28112
806.904	28348
807.046	28668
807.188	28592
807.33	28489
807.472	28557
807.614	28303
807.756	28466
807.898	28314
808.04	28329
808.182	28303
808.324	28329
808.465	28489
808.607	28565
808.749	28748
808.891	28805
809.033	29014
809.174	28824
809.316	28759
809.458	28812
809.6	28679
809.741	28755
809.883	28965
810.025	29136
810.166	28987
810.308	29079
810.45	28987
810.591	28942
810.733	28824
810.875	28835
811.016	28729
811.158	28706
811.299	28839
811.441	28778
811.582	28968
811.724	28869
811.865	28881
812.007	28774
812.148	28752
812.29	28774
812.431	28961
812.573	29105
812.714	29250
812.855	29296
812.997	29406
813.138	29471
813.279	29299
813.421	29433
813.562	29265
813.703	29102
813.845	29041
813.986	28710
814.127	28584
814.268	28493
814.41	28508
814.551	28440
814.692	28554
814.833	28546
814.974	28508
815.115	28424
815.256	28440
815.397	28325
815.539	28531
815.68	28246
815.821	28124
815.962	28447
816.103	28443
816.244	28223
816.385	28166
816.526	28116
816.666	27922
816.807	27755
816.948	27930
817.089	27831
817.23	27656
817.371	27759
817.512	27762
817.653	27743
817.793	27690
817.934	27770
818.075	27793
818.216	27884
818.356	27804
818.497	27603
818.638	27549
818.778	27530
818.919	27534
819.06	27690
819.2	27610
819.341	27781
819.481	27800
819.622	27892
819.762	28230
819.903	28166
820.043	27934
820.184	27899
820.324	28021
820.465	27876
820.605	27869
820.746	27873
820.886	27808
821.026	27869
821.167	27755
821.307	27998
821.447	27861
821.588	27690
821.728	27549
821.868	27355
822.008	27298
822.149	27275
822.289	27230
822.429	26952
822.569	26952
822.709	27017
822.849	26735
822.99	26811
823.13	26845
823.27	26720
823.41	26659
823.55	26453
823.69	26651
823.83	26541
823.97	26587
824.11	26549
824.25	26351
824.389	26450
824.529	26575
824.669	26328
824.809	26453
824.949	26507
825.089	26537
825.228	26434
825.368	26362
825.508	26374
825.648	26301
825.787	26309
825.927	26396
826.067	26138
826.206	26271
826.346	26389
826.485	26362
826.625	26324
826.765	26393
826.904	26355
827.044	26134
827.183	26199
827.323	25940
827.462	26103
827.601	25951
827.741	25955
827.88	26119
828.02	25822
828.159	25955
828.298	25951
828.437	26081
828.577	25887
828.716	26027
828.855	25932
828.994	25784
829.134	25769
829.273	25761
829.412	25731
829.551	25590
829.69	25750
829.829	25799
829.968	25731
830.107	25734
830.246	25643
830.385	25578
830.524	25635
830.663	25529
830.802	25502
830.941	25312
831.08	25282
831.219	25320
831.357	25422
831.496	25533
831.635	25285
831.774	25183
831.913	25160
832.051	25050
832.19	25240
832.329	25091
832.467	25084
832.606	24966
832.744	24913
832.883	25042
833.022	24890
833.16	24939
833.299	25000
833.437	24871
833.576	25080
833.714	25091
833.852	25209
833.991	25099
834.129	25027
834.267	25129
834.406	25175
834.544	25236
834.682	25129
834.821	25107
834.959	25244
835.097	25148
835.235	25183
835.373	25004
835.511	25175
835.65	24886
835.788	24852
835.926	24795
836.064	24730
836.202	24795
836.34	24856
836.478	24897
836.615	24829
836.753	24871
836.891	24882
837.029	24764
837.167	24821
837.305	24901
837.443	24642
837.58	24703
837.718	24642
837.856	24833
837.993	24608
838.131	24726
838.269	24540
838.406	24620
838.544	24551
838.681	24388
838.819	24327
838.956	24220
839.094	24235
839.231	24205
839.369	24342
839.506	24639
839.643	24490
839.781	24209
839.918	24216
840.055	24148
840.193	24136
840.33	24018
840.467	24155
840.604	24270
840.742	24353
840.879	23916
841.016	24003
841.153	23992
841.29	24182
841.427	24064
841.564	24049
841.701	24068
841.838	24007
841.975	24087
842.112	23954
842.249	23885
842.385	23882
842.522	24045
842.659	23908
842.796	23863
842.933	23920
843.069	23863
843.206	23824
843.343	23836
843.479	23851
843.616	23737
843.752	23562
843.889	23627
844.025	23733
844.162	23474
844.298	23691
844.435	23592
844.571	23531
844.708	23779
844.844	23904
844.98	23779
845.117	23729
845.253	23512
845.389	23444
845.525	23509
845.661	23452
845.798	23406
845.934	23398
846.07	23402
846.206	23440
846.342	23524
846.478	23326
846.614	23132
846.75	22999
846.886	23094
847.022	23098
847.158	23189
847.294	23147
847.429	23048
847.565	23041
847.701	23406
847.837	22771
847.972	22713
848.108	22968
848.244	22961
848.379	22721
848.515	22706
848.65	22660
848.786	22725
848.921	22687
849.057	22786
849.192	22809
849.328	22748
849.463	22660
849.598	22565
849.734	22561
849.869	22485
850.004	22519
850.14	22550
850.275	22493
850.41	22386
850.545	22379
850.68	22447
850.815	22394
850.95	22382
851.085	22675
851.22	22497
851.355	22561
851.49	22428
851.625	22440
851.76	22474
851.895	22272
852.03	22322
852.165	22375
852.299	22440
852.434	22527
852.569	22504
852.703	22459
852.838	22611
852.973	22626
853.107	22603
853.242	22402
853.376	22398
853.511	22093
853.645	22154
853.78	22337
853.914	22322
854.048	22192
854.183	22268
854.317	22363
854.451	22451
854.585	22344
854.72	22181
854.854	22322
854.988	22367
855.122	22363
855.256	22166
855.39	22242
855.524	22371
855.658	22272
855.792	22291
855.926	22196
856.06	22360
856.194	22333
856.327	22204
856.461	22154
856.595	22131
856.729	22242
856.862	22443
856.996	22268
857.13	22337
857.263	22386
857.397	22348
857.53	22169
857.664	22223
857.797	22265
857.931	22459
858.064	22207
858.197	22295
858.331	22329
858.464	22185
858.597	22219
858.731	22238
858.864	22223
858.997	22223
859.13	22169
859.263	22131
859.396	22219
859.529	22238
859.662	22181
859.795	22249
859.928	22299
860.061	22447
860.194	22497
860.327	22196
860.46	22276
860.592	22394
860.725	22390
860.858	22367
860.99	22276
861.123	22048
861.256	22135
861.388	22261
861.521	22961
861.653	22093
861.786	22128
861.918	22055
862.05	22093
862.183	22128
862.315	22185
862.447	22185
862.58	22131
862.712	22105
862.844	21918
862.976	22048
863.108	22070
863.24	22390
863.372	21865
863.504	22139
863.636	22002
863.768	21987
863.9	21907
864.032	21934
864.164	21937
864.296	21884
864.428	22135
864.559	22032
864.691	22070
864.823	22082
864.954	21960
865.086	21964
865.217	21911
865.349	21747
865.48	21804
865.612	21724
865.743	22002
865.875	21888
866.006	21770
866.137	21903
866.269	21861
866.4	21816
866.531	21922
866.662	21781
866.793	21831
866.924	21922
867.055	21865
867.186	21747
867.317	21705
867.448	21690
867.579	21797
867.71	21804
867.841	21671
867.972	21854
868.103	21800
868.233	21808
868.364	21789
868.495	21857
868.625	22105
868.756	22128
868.886	22036
869.017	22025
869.147	22090
869.278	22090
869.408	22048
869.539	21968
869.669	22093
869.799	22063
869.929	22185
870.06	22109
870.19	22459
870.32	22360
870.45	22417
870.58	22325
870.71	22554
870.84	22428
870.97	22348
871.1	22409
871.23	22516
871.36	22603
871.489	22573
871.619	22561
871.749	22607
871.879	22679
872.008	22725
872.138	22611
872.267	22527
872.397	22508
872.526	22459
872.656	22508
872.785	22417
872.915	22717
873.044	22862
873.173	22622
873.303	22729
873.432	22653
873.561	22797
873.69	22607
873.819	22561
873.948	22763
874.077	22713
874.206	22573
874.335	22630
874.464	22820
874.593	22812
874.722	22801
874.851	22904
874.979	22953
875.108	22984
875.237	22919
875.365	22873
875.494	22889
875.623	22972
875.751	22877
875.88	22961
876.008	22965
876.136	22942
876.265	23372
876.393	23417
876.521	23258
876.65	23414
876.778	23261
876.906	23242
877.034	23136
877.162	23280
877.29	23181
877.418	23227
877.546	23292
877.674	23208
877.802	23212
877.93	23193
878.058	23220
878.185	23086
878.313	23174
878.441	23159
878.568	22908
878.696	23140
878.824	23204
878.951	23280
879.079	23330
879.206	23649
879.333	23318
879.461	23387
879.588	23368
879.715	23391
879.842	23444
879.97	23246
880.097	23010
880.224	23056
880.351	23136
880.478	23083
880.605	22972
880.732	23136
880.859	23231
880.986	23006
881.112	23060
881.239	22953
881.366	22927
881.493	22729
881.619	22694
881.746	22637
881.872	22736
881.999	22637
882.125	22569
882.252	22713
882.378	22603
882.505	22649
882.631	22379
882.757	22295
882.883	22459
883.01	22226
883.136	22223
883.262	22177
883.388	22128
883.514	22405
883.64	22314
883.766	22215
883.892	22059
884.018	22135
884.143	22257
884.269	22200
884.395	22048
884.52	21876
884.646	21934
884.772	21816
884.897	21800
885.023	21865
885.148	22021
885.274	22040
885.399	22112
885.524	21884
885.65	21983
885.775	22048
885.9	21915
886.025	21941
886.15	21991
886.275	21781
886.4	21755
886.525	21816
886.65	21804
886.775	21724
886.9	22006
887.025	22025
887.149	21838
887.274	21785
887.399	21705
887.523	21682
887.648	21679
887.773	21504
887.897	21736
888.021	21648
888.146	21568
888.27	21698
888.395	21728
888.519	21641
888.643	21743
888.767	21743
888.891	21595
889.015	21492
889.139	21564
889.263	21443
889.387	21523
889.511	21774
889.635	21656
889.759	21439
889.883	21332
890.006	21545
890.13	21576
890.254	21386
890.377	21443
890.501	21348
890.624	21161
890.748	21207
890.871	21089
890.995	21009
891.118	20967
891.241	20982
891.364	20986
891.488	21085
891.611	20956
891.734	20933
891.857	21112
891.98	21013
892.103	20971
892.226	20971
892.349	20982
892.471	20857
892.594	20921
892.717	20982
892.839	20872
892.962	20887
893.085	21085
893.207	20944
893.33	20796
893.452	20762
893.575	21017
893.697	20861
893.819	20979
893.941	21055
894.064	21138
894.186	20876
894.308	20849
894.43	20998
894.552	21020
894.674	20990
894.796	20781
894.918	20880
895.04	20876
895.161	20982
895.283	20982
895.405	20902
895.526	20876
895.648	20948
895.769	20994
895.891	20842
896.012	20941
896.134	20925
896.255	20834
896.376	20788
896.498	20857
896.619	20967
896.74	20864
896.861	20872
896.982	21397
897.103	21332
897.224	21207
897.345	21055
897.466	20982
897.587	21074
897.708	21188
897.828	21089
897.949	21070
898.07	20975
898.19	21039
898.311	21066
898.431	21043
898.552	21039
898.672	21066
898.792	21119
898.913	21123
899.033	20914
899.153	20994
899.273	20842
899.393	20830
899.513	20815
899.633	20826
899.753	20815
899.873	20655
899.993	20788
900.113	20727
900.232	20712
900.352	20701
900.472	20667
900.591	20640
900.711	20602
900.83	20526
900.95	20720
901.069	20667
901.189	20434
901.308	20237
901.427	20130
901.546	20161
901.665	20107
901.784	20134
901.904	20077
902.023	19997
902.141	19727
902.26	19628
902.379	19776
902.498	19578
902.617	19662
902.735	19677
902.854	19655
902.973	19708
903.091	19289
903.21	19369
903.328	19194
903.446	19217
903.565	19228
903.683	19148
903.801	19069
903.919	19076
904.038	19080
904.156	18890
904.274	18916
904.392	18859
904.51	18958
904.627	18935
904.745	18932
904.863	18867
904.981	18688
905.098	18585
905.216	18544
905.334	18635
905.451	18593
905.569	18661
905.686	18631
905.803	18521
905.921	18311
906.038	18407
906.155	18357
906.272	18273
906.389	18327
906.506	18247
906.623	18072
906.74	18095
906.857	17973
906.974	17958
907.091	18155
907.208	18144
907.324	18083
907.441	18041
907.557	17893
907.674	17866
907.79	17843
907.907	17805
908.023	17878
908.139	17767
908.256	17752
908.372	17714
908.488	17722
908.604	17532
908.72	17474
908.836	17581
908.952	17543
909.068	17604
909.184	17680
909.3	17532
909.415	17532
909.531	17497
909.647	17296
909.762	17147
909.878	17151
909.993	17239
910.108	17178
910.224	17121
910.339	17102
910.454	17041
910.57	17037
910.685	16767
910.8	17315
910.915	17231
911.03	17045
911.145	16854
911.259	16755
911.374	16889
911.489	16790
911.604	16668
911.718	16447
911.833	16470
911.947	16424
912.062	16375
912.176	16622
912.291	16565
912.405	16478
912.519	16698
912.633	16588
912.748	16653
912.862	16538
912.976	16421
913.09	16249
913.204	16341
913.318	16280
913.431	16538
913.545	16394
913.659	16424
913.772	16360
913.886	16200
914	16162
914.113	16276
914.226	16402
914.34	16219
914.453	15994
914.566	16131
914.68	16082
914.793	15960
914.906	15907
915.019	15709
915.132	15739
915.245	15766
915.358	15705
915.47	15781
915.583	15625
915.696	15762
915.809	15926
915.921	15941
916.034	15679
916.146	15667
916.259	15610
916.371	15774
916.483	15717
916.595	15545
916.708	15572
916.82	15724
916.932	15603
917.044	15428
917.156	15507
917.268	15355
917.38	15397
917.491	15340
917.603	15378
917.715	15450
917.826	15443
917.938	15332
918.049	15146
918.161	15302
918.272	15298
918.384	15454
918.495	15252
918.606	15055
918.717	15047
918.828	15165
918.939	15131
919.05	15161
919.161	15028
919.272	14861
919.383	14906
919.494	15081
919.604	15272
919.715	15074
919.826	15074
919.936	15089
920.047	15036
920.157	15036
920.267	15161
920.378	15085
920.488	14994
920.598	15192
920.708	15268
920.818	15195
920.928	15081
921.038	15344
921.148	15329
921.258	15009
921.368	14853
921.477	14769
921.587	14743
921.697	14590
921.806	14727
921.916	14655
922.025	14385
922.134	14366
922.244	14351
922.353	14488
922.462	14324
922.571	14206
922.68	14096
922.789	14123
922.898	14100
923.007	13982
923.116	13989
923.224	14084
923.333	13982
923.442	13909
923.55	13826
923.659	13925
923.767	13967
923.876	13837
923.984	13818
924.092	13780
924.201	13795
924.309	13712
924.417	13826
924.525	13738
924.633	13715
924.741	14594
924.849	13449
924.956	13651
925.064	13533
925.172	13308
925.279	13449
925.387	13495
925.494	13445
925.602	13575
925.709	13468
925.816	13384
925.924	13396
926.031	13419
926.138	13411
926.245	13407
926.352	13308
926.459	13308
926.566	13403
926.673	13244
926.779	13255
926.886	13251
926.993	13034
927.099	12966
927.206	12993
927.312	13015
927.419	13046
927.525	12981
927.631	12962
927.737	12867
927.843	12776
927.95	12726
928.056	12783
928.162	12795
928.267	12871
928.373	13373
928.479	12905
928.585	12544
928.69	12791
928.796	12703
928.901	12604
929.007	12532
929.112	12700
929.218	12574
929.323	12528
929.428	12479
929.533	12642
929.638	12441
929.743	12448
929.848	12460
929.953	12357
930.058	12330
930.163	12209
930.267	12159
930.372	12266
930.477	12121
930.581	12422
930.685	12254
930.79	12022
930.894	12125
930.998	12083
931.103	12232
931.207	11836
931.311	11760
931.415	11649
931.519	11448
931.623	11410
